Time,Amplitude_Envelope_P1,Amplitude_Envelope_P2,Filtered_ECG_P1,Filtered_ECG_P2,Filtered_Respiration_P1,Filtered_Respiration_P2,Filtered_EMG_Bicep_P1,Filtered_EMG_Tricep_P1,Filtered_EMG_Bicep_P2,Filtered_EMG_Tricep_P2,right_index_x_P1,right_index_y_P1,right_index_z_P1,right_index_x_P2,right_index_y_P2,right_index_z_P2,ConditionVision,ConditionMovement,Trial
0.0,0.0137127017777924,0.0132060721750607,78.00988125162522,69.74872574443351,-0.4668900038449143,2.0992582905330512,0.0062632241558702,0.0062013421085426,0.0028499511564974,0.0040741890829591,-525.2738699727331,3613.427412713733,594.2826792541517,453.2708869419266,3543.4290042861057,113.51389350081676,Vision,Movement,4
0.001,0.013712701779226392,0.013217384898059799,78.00988125162522,69.74872574443351,-0.46615306924037225,2.1136373542740365,0.006389608676974148,0.006417658882806348,0.002855601805339362,0.00400501687607964,-523.8695196921947,3611.724581594843,594.0850959129352,453.23181408845846,3543.2192344853715,113.61247548570468,Vision,Movement,4
0.002,0.013712701780598286,0.013228678838917122,78.00988125162522,69.74872574443351,-0.4654123146398747,2.1280668581996403,0.006499339563081127,0.0066263459145719,0.0028777932662718626,0.0039347267419707135,-522.4651694116561,3610.0217504759535,593.8875125717188,453.19274123499036,3543.0094646846374,113.71105747059259,Vision,Movement,4
0.003,0.01371270178189668,0.013239917893838755,78.00988125162522,69.74872574443351,-0.46466774089118745,2.142546726809191,0.006591160389283901,0.0068255323744419215,0.002918982123276897,0.0038640112655198055,-522.2623260914802,3609.7837766834514,593.8702045794018,453.1536683815222,3542.799694883903,113.80963945548052,Vision,Movement,4
0.004,0.013712701783109476,0.013251069824291806,78.00988125162522,69.74872574443351,-0.463919348945664,2.15707688340673,0.006664087065379371,0.0070134668272423826,0.002981648121991035,0.003793600502744822,-522.1316309562948,3609.6337647595487,593.8637217754947,453.1145955280541,3542.589925083169,113.90822144036844,Vision,Movement,4
0.005,0.013712701784223572,0.013262104964853359,78.00988125162522,69.74872574443351,-0.46316713985782415,2.171657250088496,0.0067174377918359784,0.0071885535097059835,0.0030682570042080055,0.003724250822745651,-522.0009358211094,3609.4837528356466,593.8572389715875,453.07552267458595,3542.3801552824348,114.00680342525635,Vision,Movement,4
0.006,0.013712701785225271,0.013272995609868572,78.00988125162522,69.74872574443351,-0.4624111147855976,2.186287747743503,0.006750857323180375,0.007349386554410117,0.0031812189034418244,0.003656732623957111,-521.8702406859239,3609.333740911744,593.8507561676803,453.03644982111786,3542.170385481701,114.10538541014427,Vision,Movement,4
0.007,0.013712701786100071,0.013283716578348585,78.00988125162522,69.74872574443351,-0.4616512749898764,2.200968296040885,0.006764334671064354,0.007494781215571052,0.003322842608428213,0.0035918173418428394,-521.7395455507384,3609.1837289878413,593.8442733637731,452.9973769676497,3541.960615680967,114.20396739503218,Vision,Movement,4
0.008,0.013712701786832373,0.013294245299798965,78.00988125162522,69.74872574443351,-0.46088762183751864,2.2156988134839457,0.006758213452015738,0.00762380128633811,0.003495286290682108,0.0035302641914000035,-521.608850415553,3609.033717063939,593.837790559866,452.9583041141816,3541.7508458802326,114.30254937992011,Vision,Movement,4
0.009000000000000001,0.013712701787406077,0.013304561129552823,78.00988125162522,69.74872574443351,-0.46012015679743723,2.2304792173308248,0.0067331942509992904,0.007735782148596435,0.0037005055761959358,0.0034728070626630077,-521.4781552803676,3608.8837051400365,593.8313077559588,452.91923126071345,3541.5410760794985,114.40113136480802,Vision,Movement,4
0.01,0.013712701787803984,0.013314645379619808,78.00988125162522,69.74872574443351,-0.4593488814435946,2.2453094236486035,0.006690328774651893,0.007830349225788008,0.003940200057123926,0.0034201419334502557,-521.3474601451821,3608.7336932161343,593.8248249520516,452.88015840724535,3541.3313062787643,114.49971334969594,Vision,Movement,4
0.011,0.013712701788008194,0.013324481711724597,78.00988125162522,69.74872574443351,-0.4585737974545403,2.2601893472873726,0.006631006132227148,0.007907431946439286,0.004215759449103599,0.0033729150993889526,-521.2167650099966,3608.5836812922316,593.8183421481444,452.8410855537772,3541.12153647803,114.59829533458385,Vision,Movement,4
0.012,0.013712701787999807,0.013334057265818511,78.00988125162522,69.74872574443351,-0.4577949066129327,2.275118901935053,0.006556932049140746,0.007967273560762904,0.004528210662663824,0.003331712442200664,-521.0860698748112,3608.433669368329,593.8118593442373,452.8020127003091,3540.911766677296,114.69687731947177,Vision,Movement,4
0.013000000000000001,0.013712701787759124,0.01334336255093714,78.00988125162522,69.74872574443351,-0.4570122108085874,2.290098000037279,0.006470102004784903,0.008010437238906782,0.004878167093853116,0.003297049882369717,-520.9553747396258,3608.283657444427,593.8053765403301,452.76293984684094,3540.7019968765617,114.7954593043597,Vision,Movement,4
0.014,0.013712701787265646,0.013352390737373515,78.00988125162522,69.74872574443351,-0.45622571203445206,2.305126552852379,0.006372769226401005,0.008037808824750116,0.0052657814860643136,0.0032693651075252537,-520.8246796044403,3608.133645520524,593.798893736423,452.72386699337284,3540.4922270758275,114.89404128924761,Vision,Movement,4
0.015,0.01371270178649767,0.013361137004090333,78.00988125162522,69.74872574443351,-0.4554354123896503,2.3202044704388642,0.006267408330461462,0.008050596477700914,0.005690703732670684,0.003249010649173061,-520.6939844692548,3607.983633596622,593.7924109325157,452.6847941399047,3540.2824572750933,114.99262327413552,Vision,Movement,4
0.016,0.0137127017854331,0.013369598171901623,78.00988125162522,69.74872574443351,-0.4546413140789865,2.3353316616564213,0.0061566753120044886,0.008050327267774507,0.006152045021805198,0.0032362483789950213,-520.5632893340694,3607.8336216727193,593.7859281286086,452.6457212864366,3540.072687474359,115.09120525902344,Vision,Movement,4
0.017,0.013712701784048733,0.0133777737222333,78.00988125162522,69.74872574443351,-0.4538434194131514,2.3505080341533966,0.006043364611852582,0.008038840638559022,0.006648349743543931,0.00323124549159435,-520.432594198884,3607.6836097488167,593.7794453247014,452.61589605722673,3539.8821833714196,115.19953515734969,Vision,Movement,4
0.018000000000000002,0.013712701782320475,0.01338566524043239,78.00988125162522,69.74872574443351,-0.45304173080820803,2.3657334944227646,0.005930364102303186,0.008018278577026994,0.007177576549692537,0.0032340720294467486,-520.3018990636984,3607.5335978249145,593.7729625207943,452.60003919504777,3539.720779752062,115.32258910034828,Vision,Movement,4
0.019,0.013712701780223522,0.013393274738889344,78.00988125162522,69.74872574443351,-0.45223625078869173,2.381007947720849,0.005820608922446426,0.007991072361551915,0.007737089811415958,0.003244700011462504,-520.1970264159718,3607.4140383921263,593.7790117817556,452.5841823328688,3539.559376132704,115.44564304334686,Vision,Movement,4
0.02,0.013712701777732273,0.013400604858521082,78.00988125162522,69.74872574443351,-0.4514269819834513,2.396331298123537,0.005717035081212359,0.00795992586721072,0.008323662517749917,0.0032630042601636587,-520.1190107815339,3607.3261514680325,593.798095179465,452.56832547068984,3539.3979725133463,115.56869698634546,Vision,Movement,4
0.021,0.013712701774820335,0.013407657871616433,78.00988125162522,69.74872574443351,-0.4506139271287479,2.411703448513724,0.005622533652402522,0.007927795490912944,0.008933491396727998,0.003288765055172917,-520.0409951470962,3607.238264543939,593.8171785771743,452.5524686085109,3539.236568893989,115.69175092934405,Vision,Movement,4
0.022,0.013712701771460802,0.013414434768907826,78.00988125162522,69.74872574443351,-0.4497970890677161,2.427124300568873,0.005539906261869839,0.007897866719260557,0.009562224807362919,0.003321672725968148,-519.9629795126583,3607.150377619845,593.8362619748837,452.53661174633197,3539.075165274631,115.81480487234263,Vision,Movement,4
0.023,0.013712701767625778,0.01342093499878198,78.00988125162522,69.74872574443351,-0.44897647074981917,2.4425937548179206,0.005471822460848104,0.007873527192099956,0.01020500369736924,0.003361334214634006,-519.8849638782206,3607.0624906957514,593.8553453725931,452.520754884153,3538.9137616552734,115.93785881534123,Vision,Movement,4
0.024,0.013712701763286964,0.01342715723472241,78.00988125162522,69.74872574443351,-0.44815207523399087,2.4581117105590544,0.0054207794818906955,0.007858335880886481,0.010856515615177365,0.0034072815094762557,-519.8069482437827,3606.9746037716573,593.8744287703024,452.50489802197404,3538.7523580359157,116.06091275833982,Vision,Movement,4
0.025,0.013712701758415357,0.013433102329035615,78.00988125162522,69.74872574443351,-0.44732390568436414,2.4736780659169466,0.005389064788234547,0.007855987795545265,0.011511061444056413,0.0034589817199158334,-519.7289326093448,3606.8867168475635,593.8935121680117,452.4890411597951,3538.590954416558,116.18396670133842,Vision,Movement,4
0.026000000000000002,0.01371270175298176,0.013438773094809247,78.00988125162522,69.74872574443351,-0.44649196537341695,2.4892927178302764,0.005378721770907816,0.007870273552350628,0.012162634150532398,0.0035158484619661765,-519.6509169749071,3606.79882992347,593.9125955657212,452.4731842976161,3538.4295507972,116.307020644337,Vision,Movement,4
0.027,0.013712701746956173,0.013444172552932539,78.00988125162522,69.74872574443351,-0.44565625768140205,2.504955562053151,0.005391518909572448,0.007905033236015607,0.012805008501046027,0.003577254159558435,-519.5729013404692,3606.710942999376,593.9316789634305,452.45732743543715,3538.2681471778424,116.4300745873356,Vision,Movement,4
0.028,0.013712701740308596,0.013449305071203519,78.00988125162522,69.74872574443351,-0.44481678609651104,2.520666493142773,0.005428922662632428,0.007964104240223858,0.013431840307449103,0.0036425428219298782,-519.4948857060315,3606.6230560752824,593.9507623611399,452.44147057325824,3538.106743558485,116.55312853033419,Vision,Movement,4
0.029,0.01371270173300863,0.013454175645183744,78.00988125162522,69.74872574443351,-0.4439735542142928,2.5364254045174532,0.005492074244544374,0.008051263088849013,0.0140367732756276,0.003711042828948911,-519.4168700715936,3606.5351691511883,593.9698457588493,452.4256137110793,3537.9453399391273,116.67618247333277,Vision,Movement,4
0.03,0.013712701725025677,0.013458788930788989,78.00988125162522,69.74872574443351,-0.4431265657408446,2.5522321883732615,0.005581770282104535,0.008170161602859044,0.014613550934660446,0.0037820792611789377,-519.3388544371559,3606.4472822270945,593.9889291565586,452.4097568489003,3537.7839363197695,116.79923641633137,Vision,Movement,4
0.031,0.013712701716329335,0.013463148727721511,78.00988125162522,69.74872574443351,-0.44227582448840597,2.5680867357424826,0.0056984471657506395,0.00832425818581854,0.015156130545389649,0.0038549853720694976,-519.260838802718,3606.359395303001,594.008012554268,452.39389998672135,3537.6225327004117,116.92229035932996,Vision,Movement,4
0.032,0.013712701706889206,0.013467257994086119,78.00988125162522,69.74872574443351,-0.44142133437855996,2.5839889364810347,0.005842168799896085,0.008516745349067162,0.015658795345972237,0.003929112898958889,-519.1828231682802,3606.271508378907,594.0270959519773,452.3780431245424,3537.461129081054,117.04534430232854,Vision,Movement,4
0.033,0.013712701696675088,0.013471119974901384,78.00988125162522,69.74872574443351,-0.44056309944161437,2.599938679256224,0.006012617494989795,0.008750474781185404,0.01611626114801243,0.004003841031239277,-519.1048075338424,3606.1836214548134,594.0461793496867,452.3621862623634,3537.299725461696,117.16839824532714,Vision,Movement,4
0.034,0.013712701685657186,0.013474737834702717,78.00988125162522,69.74872574443351,-0.4397011238159903,2.615935851605649,0.006209087951341403,0.009027881302902094,0.016523773279519666,0.004078583972175705,-519.0267918994045,3606.0957345307193,594.0652627473961,452.3581384833968,3537.191192247086,117.29089644905973,Vision,Movement,4
0.035,0.013712701673806397,0.013478116272050852,78.00988125162522,69.74872574443351,-0.43883541175145074,2.6319803398529564,0.00643048459306337,0.009350907088192133,0.016877190385733872,0.004152797119406093,-518.9499350155727,3606.0085264532445,594.0850073169661,452.3571048647352,3537.0961537189332,117.41325280543587,Vision,Movement,4
0.036000000000000004,0.01371270166109402,0.013481262076415139,78.00988125162522,69.74872574443351,-0.4379659676045845,2.6480720291672744,0.006675322779045037,0.009720927671920516,0.017173052608367833,0.004225981932642646,-518.9032298113303,3605.9389825440912,594.1219561425629,452.35607124607367,3537.001115190781,117.53560916181202,Vision,Movement,4
0.037,0.013712701647492657,0.013484180971685281,78.00988125162522,69.74872574443351,-0.43709279584204364,2.664210803550755,0.00694173451285786,0.010138681461895964,0.01740863268499552,0.004297689559585306,-518.856524607088,3605.869438634938,594.1589049681598,452.3550376274121,3536.9060766626285,117.65796551818816,Vision,Movement,4
0.038,0.013712701632975811,0.013486878800694277,78.00988125162522,69.74872574443351,-0.43621590103913616,2.68039654584043,0.00722747920939137,0.010604204722339968,0.01758196917095953,0.0043675233013804535,-518.8098194028455,3605.7998947257847,594.1958537937567,452.35400400875056,3536.811038134476,117.78032187456432,Vision,Movement,4
0.039,0.013712701617518277,0.013489362470775803,78.00988125162522,69.74872574443351,-0.43533528788384823,2.6966291376960707,0.007529959910870272,0.01111677423632844,0.017691881281356493,0.004435140042139759,-518.7631141986031,3605.7303508166315,594.2328026193535,452.35297039008907,3536.7159996063237,117.90267823094047,Vision,Movement,4
0.04,0.013712701601096458,0.013491637702184164,78.00988125162522,69.74872574443351,-0.4344509611683221,2.712908459660153,0.007846245204596324,0.01167486006529642,0.017737965215568776,0.004500250831947142,-518.7164089943608,3605.6608069074778,594.2697514449504,452.3519367714275,3536.620961078171,118.02503458731661,Vision,Movement,4
0.041,0.013712701583688454,0.013493709642516949,78.00988125162522,69.74872574443351,-0.43356292580003797,2.72923439107255,0.008173096987093712,0.0122760908303887,0.01772057261794875,0.004562620843257596,-518.6697037901184,3605.5912629983245,594.3067002705473,452.35090315276597,3536.5259225500185,118.14739094369277,Vision,Movement,4
0.042,0.013712701565274562,0.013495582703050313,78.00988125162522,69.74872574443351,-0.4326711867932015,2.745606810130981,0.008507004201923647,0.012917233817366935,0.01764077299482405,0.004622068890084263,-518.622998585876,3605.5217190891713,594.3436490961441,452.3498695341044,3536.4308840218664,118.26974730006891,Vision,Movement,4
0.043000000000000003,0.013712701545837288,0.013497260926505654,78.00988125162522,69.74872574443351,-0.4317757492728331,2.762025593864321,0.008844222602251229,0.013594191842854413,0.01750030301384515,0.004678466633832327,-518.5762933816336,3605.452175180018,594.380597921741,452.34883591544286,3536.335845493714,118.39210365644506,Vision,Movement,4
0.044,0.013712701525361625,0.013498748155399694,78.00988125162522,69.74872574443351,-0.43087661847407005,2.778490618193251,0.009180820474429833,0.01430201843426475,0.017301506234270837,0.0047317375608074775,-518.5295881773912,3605.3826312708647,594.4175467473378,452.34780229678137,3536.240806965561,118.5144600128212,Vision,Movement,4
0.045,0.013712701503835875,0.01350004804088873,78.00988125162522,69.74872574443351,-0.42997379974148575,2.795001757844246,0.009512730008784883,0.015034952377492953,0.017047266823267026,0.004781855806041941,-518.4828829731489,3605.3130873617115,594.4544955729347,452.3467686781198,3536.145768437409,118.63681636919736,Vision,Movement,4
0.046,0.013712701481251038,0.013501165513914053,78.00988125162522,69.74872574443351,-0.4290672985324015,2.8115588864109515,0.009835803721447054,0.015786472175084453,0.016740940340487297,0.0048288448875119135,-518.4361777689064,3605.2435434525582,594.4914443985316,452.34573505945826,3536.0507299092565,118.7591727255735,Vision,Movement,4
0.047,0.013712701457602013,0.013502107084181795,78.00988125162522,69.74872574443351,-0.4281571204121274,2.8281618763417424,0.010145875126937312,0.01654937048680251,0.016386283979843225,0.004872776368800625,-518.3894725646641,3605.1739995434045,594.5283932241284,452.3447014407967,3535.955691381104,118.88152908194965,Vision,Movement,4
0.048,0.013712701432887497,0.013502880228007955,78.00988125162522,69.74872574443351,-0.42724327105729143,2.844810598941963,0.010438822742943946,0.017315848153044103,0.015987387951323536,0.0049137683991772275,-518.3427673604217,3605.1044556342513,594.5653420497252,452.34366782213516,3535.8606528529513,119.0038854383258,Vision,Movement,4
0.049,0.013712701407110494,0.01350349295244464,78.00988125162522,69.74872574443351,-0.4263257562543305,2.8615049243619657,0.01071063641956047,0.01807762696639568,0.015548609161122388,0.004951984002308816,-518.2960621561793,3605.034911725098,594.6022908753221,452.3426342034736,3535.765614324799,119.12624179470195,Vision,Movement,4
0.05,0.013712701380278596,0.01350395378257385,78.00988125162522,69.74872574443351,-0.42540458190361474,2.878244721658793,0.010957484781767288,0.018826079804058985,0.01507450806607033,0.004987628895778975,-518.2493569519369,3604.965367815945,594.639239700919,452.3416005848121,3535.6705757966465,119.2485981510781,Vision,Movement,4
0.051000000000000004,0.013712701352404608,0.013504271714041036,78.00988125162522,69.74872574443351,-0.42447975401053695,2.8950298587091385,0.011175782302320336,0.01955237611110644,0.014569789479117922,0.005020948508836439,-518.2026517476945,3604.8958239067915,594.6761885265158,452.34056696615056,3535.575537268494,119.37095450745424,Vision,Movement,4
0.052000000000000005,0.013712701323506722,0.01350445608598957,78.00988125162522,69.74872574443351,-0.42355127869710435,2.9118602022718414,0.011362254277943202,0.020247639946816828,0.014039248020247325,0.005052223762492924,-518.1662881310641,3604.829721361581,594.7120187332379,452.33906604057563,3535.483472200073,119.49354360215939,Vision,Movement,4
0.053,0.01371270129360904,0.013504516409900014,78.00988125162522,69.74872574443351,-0.422619162192916,2.9287356179752946,0.011513997969691442,0.020903117140908756,0.013487718794922955,0.0050817651699081685,-518.1372961002032,3604.7660718545717,594.7470515773798,452.3341310790475,3535.413257798375,119.61784298996454,Vision,Movement,4
0.054,0.01371270126274206,0.013504462130992517,78.00988125162522,69.74872574443351,-0.42168341083936717,2.9456559703055856,0.011628538351491587,0.021510347444130096,0.012920033643912237,0.0051099049826241584,-518.1083040693425,3604.7024223475623,594.7820844215217,452.3291961175193,3535.343043396678,119.74214237776968,Vision,Movement,4
0.055,0.013712701230942976,0.0135043022547006,78.00988125162522,69.74872574443351,-0.42074403108807434,2.962621122668992,0.011703877221157169,0.022061337138253343,0.012340983016377519,0.005136987418970589,-518.0793120384817,3604.6387728405525,594.8171172656638,452.3242611559911,3535.2728289949805,119.86644176557483,Vision,Movement,4
0.056,0.013712701198256589,0.01350404533542444,78.00988125162522,69.74872574443351,-0.41980102950425713,2.9796309373041097,0.011738534608317181,0.02254872716176462,0.011755283295955982,0.005163357335195403,-518.0503200076208,3604.575123333543,594.8521501098057,452.3193261944629,3535.2026145932828,119.99074115337997,Vision,Movement,4
0.057,0.013712701164735296,0.013503699769481793,78.00988125162522,69.74872574443351,-0.4188544127617601,2.996685275345284,0.011731581397479474,0.022965951530000733,0.01116754927206697,0.005189347902684235,-518.0213279767601,3604.511473826534,594.8871829539478,452.3143912329348,3535.1324001915855,120.11504054118512,Vision,Movement,4
0.058,0.013712701130439889,0.013503274101147364,78.00988125162522,69.74872574443351,-0.41790418764647175,3.013783996810202,0.011682661965684066,0.023307380837713217,0.010582271379426711,0.0052152678909739725,-517.9923359458993,3604.4478243195244,594.9222157980897,452.3094562714066,3535.062185789888,120.23933992899026,Vision,Movement,4
0.059000000000000004,0.013712701095439869,0.01350277591415729,78.00988125162522,69.74872574443351,-0.41695036105551453,3.0309269606025273,0.011592005630704026,0.023568446199570332,0.010003797182983457,0.00524138909051633,-517.9633439150384,3604.3841748125146,594.9572486422317,452.3045213098784,3534.9919713881904,120.36363931679541,Vision,Movement,4
0.06,0.01371270105981433,0.013502211423683044,78.00988125162522,69.74872574443351,-0.4159929399964709,3.0481140245001597,0.011460425958080982,0.023745739894442393,0.009436316439738784,0.005267934328008941,-517.9343518841777,3604.3205253055053,594.9922814863737,452.29958634835026,3534.921756986493,120.48793870460055,Vision,Movement,4
0.061,0.013712701023652065,0.013501585314019753,78.00988125162522,69.74872574443351,-0.4150319315907963,3.0653450452186948,0.011289307468622481,0.023837089823633653,0.008883848987658375,0.005295066474653322,-517.9053598533169,3604.256875798496,595.0273143305157,452.29465138682207,3534.851542584796,120.6122380924057,Vision,Movement,4
0.062,0.013712700987052476,0.013500900765446328,78.00988125162522,69.74872574443351,-0.41406734306873555,3.08261987832258,0.01108057984047258,0.02384160542545925,0.0083502347562473,0.005322878811638915,-517.876367822456,3604.1932262914866,595.0623471746577,452.2897164252939,3534.7813281830986,120.73653748021084,Vision,Movement,4
0.063,0.013712700950126153,0.013500159346164926,78.00988125162522,69.74872574443351,-0.41309918177277893,3.0999383782893983,0.010836680163816937,0.023759693168555286,0.007839125289233272,0.005351387081645263,-517.8473757915953,3604.1295767844767,595.0973800187996,452.2847814637657,3534.711113781401,120.860836868016,Vision,Movement,4
0.064,0.013712700912994888,0.013499360818889944,78.00988125162522,69.74872574443351,-0.412127455156828,3.1173003984827865,0.01056050420233159,0.02359304063226399,0.007353976317434859,0.005380523529917054,-517.8183837607345,3604.0659272774674,595.1324128629416,452.27984650223755,3534.6408993797036,120.98513625582113,Vision,Movement,4
0.065,0.013712700875792981,0.013498503085722311,78.00988125162522,69.74872574443351,-0.4111521707862028,3.1347057912165215,0.010255348114111551,0.023344569585437132,0.006898041004987493,0.005410133247639742,-517.7893917298736,3604.002277770458,595.1674457070836,452.27491154070935,3534.5706849780063,121.10943564362628,Vision,Movement,4
0.066,0.01371270083866742,0.013497583091226605,78.00988125162522,69.74872574443351,-0.4101733363368301,3.152154407665043,0.009924842662747011,0.023018360074277565,0.006474363548384386,0.005439973154655696,-517.7603996990129,3603.9386282634487,595.2024785512256,452.26997657918116,3534.5004705763085,121.23373503143142,Vision,Movement,4
0.067,0.0137127008017785,0.013496597324781019,78.00988125162522,69.74872574443351,-0.4091909595986946,3.1696460979286707,0.009572882380424653,0.0226195488260332,0.0060857727800637485,0.005469713947611603,-517.731407668152,3603.8749787564393,595.2375113953675,452.26504161765297,3534.4302561746113,121.35803441923657,Vision,Movement,4
0.068,0.013712700765300517,0.013495541334522871,78.00988125162522,69.74872574443351,-0.4082050484706271,3.187180711021229,0.009203552223217846,0.022154206024481635,0.00573487540091814,0.005498945242495563,-517.7024156372912,3603.8113292494295,595.2725442395096,452.26010665612483,3534.360041772914,121.48233380704171,Vision,Movement,4
0.069,0.013712700729422158,0.01349440987232214,78.00988125162522,69.74872574443351,-0.40721561096380554,3.2047580948730268,0.008821054042704581,0.02162919492333489,0.00542404844858236,0.005527183952745286,-517.6734236064304,3603.74767974242,595.3075770836515,452.2605080757053,3534.3108122863805,121.59503059389861,Vision,Movement,4
0.07,0.013712700694347215,0.013493197459066778,78.00988125162522,69.74872574443351,-0.40622265520086215,3.2223780963193147,0.008429634818607557,0.021052019089041207,0.0051554307003585246,0.0055538856964792,-517.644887969703,3603.6842124579166,595.3426688798851,452.2658728016114,3534.28110062664,121.69693593585906,Vision,Movement,4
0.07100000000000001,0.013712700660295082,0.01349189858171554,78.00988125162522,69.74872574443351,-0.4052261894150414,3.2400405611652934,0.008033518226467482,0.02043066238215241,0.004930912897484742,0.005578458776290395,-517.622062018316,3603.6230248547117,595.3784981919383,452.27123752751754,3534.2513889669,121.7988412778195,Vision,Movement,4
0.07200000000000001,0.013712700627501346,0.013490505970044675,78.00988125162522,69.74872574443351,-0.4042262219536792,3.2577453340957065,0.007636840778052163,0.019773426875072192,0.0047521268945557174,0.005600280078807513,-517.599236066929,3603.5618372515073,595.4143275039914,452.2766022534237,3534.221677307159,121.90074661977995,Vision,Movement,4
0.073,0.0137127005962184,0.01348901086929913,78.00988125162522,69.74872574443351,-0.4032227612728868,3.275492258741096,0.0072435934696077585,0.019088773604780063,0.004620433970454608,0.005618712132647199,-517.5764101155422,3603.5006496483024,595.4501568160446,452.28196697932975,3534.191965647419,122.00265196174038,Vision,Movement,4
0.074,0.013712700566715632,0.013487403887042806,78.00988125162522,69.74872574443351,-0.40221581594108824,3.2932811776651727,0.006857569617380258,0.01838517045146519,0.00453691258772182,0.005633120529501909,-517.5535841641553,3603.4394620450976,595.4859861280977,452.2873317052359,3534.1622539876785,122.10455730370083,Vision,Movement,4
0.075,0.013712700539280231,0.0134856764515006,78.00988125162522,69.74872574443351,-0.40120539463810495,3.311111932353379,0.006482319295707591,0.0176709505853571,0.00450234588503606,0.005642890931540252,-517.5307582127683,3603.378274441893,595.5218154401508,452.292696431142,3534.1325423279377,122.20646264566128,Vision,Movement,4
0.076,0.013712700514217484,0.01348382008668812,78.00988125162522,69.74872574443351,-0.40019150615511245,3.3289843632786305,0.006121110578771524,0.01695418405915462,0.0045172092132082136,0.005647444964969126,-517.5079322613814,3603.3170868386883,595.557644752204,452.29806115704815,3534.1028306681974,122.30836798762172,Vision,Movement,4
0.077,0.01371270049185148,0.013481825026049842,78.00988125162522,69.74872574443351,-0.3991741593937603,3.3468983098101543,0.005776897629485845,0.01624256432128701,0.0045816580770724966,0.005646254465970982,-517.4851063099944,3603.2558992354834,595.5934740642572,452.30342588295423,3534.073119008457,122.41027332958217,Vision,Movement,4
0.078,0.013712700472525007,0.01347968142039932,78.00988125162522,69.74872574443351,-0.3981533633696858,3.364853610280594,0.00545229560082699,0.015543310760092275,0.004695516898786761,0.005638853781272385,-517.4622803586075,3603.194711632279,595.6293033763103,452.30879060886036,3534.0434073487163,122.5121786715426,Vision,Movement,4
0.079,0.01371270045660035,0.013477380770308708,78.00988125162522,69.74872574443351,-0.39712912720707344,3.382850101973663,0.005149562249232576,0.014863087795174694,0.004858269054853178,0.005624850032429086,-517.4394544072206,3603.133524029074,595.6651326883634,452.3141553347665,3534.013695688976,122.61408401350305,Vision,Movement,4
0.08,0.013712700444459198,0.013474917779411937,78.00988125162522,69.74872574443351,-0.3961014601422333,3.4008876211274837,0.004870586063848655,0.014207940520166268,0.005069048652904198,0.005603931336927268,-517.4166284558337,3603.0723364258697,595.7009620004167,452.31952006067263,3533.983984029235,122.71598935546349,Vision,Movement,4
0.081,0.013712700436503333,0.01347229100582713,78.00988125162522,69.74872574443351,-0.3950703715226251,3.4189660029232773,0.004616880554126583,0.013583246399720188,0.005326634497431148,0.005575872941739621,-517.3938025044467,3603.011148822665,595.7367913124698,452.32488478657876,3533.954272369495,122.81789469742394,Vision,Movement,4
0.082,0.013712700433154543,0.013469503995647662,78.00988125162522,69.74872574443351,-0.39403587080594765,3.4370850815519494,0.004389584235145381,0.012993682114358772,0.0056294466323024515,0.00554054115609362,-517.3709765530598,3602.94996121946,595.7726206245229,452.33024951248484,3533.9245607097546,122.91980003938437,Vision,Movement,4
0.083,0.01371270043485471,0.013466564770536163,78.00988125162522,69.74872574443351,-0.39299796756367794,3.4552446901220697,0.004189465861666849,0.012443204271973908,0.0059755457195050585,0.005497894964400615,-517.3481506016728,3602.8887736162555,595.808449936576,452.335614238391,3533.894849050014,123.02170538134482,Vision,Movement,4
0.084,0.013712700442065923,0.01346348286793282,78.00988125162522,69.74872574443351,-0.3919566714755286,3.4734446607279548,0.004016934565293258,0.011935042405413255,0.0063626353452732425,0.0054479852861074535,-517.3253246502859,3602.8275860130507,595.8442792486293,452.3409789642971,3533.8651373902735,123.12361072330526,Vision,Movement,4
0.085,0.013712700455270762,0.013460267638830762,78.00988125162522,69.74872574443351,-0.3909119923330592,3.491684824437014,0.003872054642714656,0.011471702540366788,0.006788067147785881,0.005390951998854103,-517.3132897424567,3602.798986457908,595.8715747102228,452.34634369020324,3533.835425730533,123.22551606526571,Vision,Movement,4
0.08600000000000001,0.01371270047497141,0.013456927908737424,78.00988125162522,69.74872574443351,-0.3898639400386816,3.5099650112785534,0.00375456472670282,0.011054979594372925,0.007248848521317103,0.00532701899807574,-517.3063917427888,3602.785899935324,595.8948077652625,452.392274374473,3533.8596856741715,123.31845620441798,Vision,Movement,4
0.08700000000000001,0.013712700501690257,0.013453470790553238,78.00988125162522,69.74872574443351,-0.38881252460556404,3.5282850503110366,0.0036639009871221374,0.010685977014730024,0.007741652571475715,0.005256487687794855,-517.2994937431208,3602.7728134127397,595.9180408203022,452.44190377468647,3533.8888666313383,123.41057891585741,Vision,Movement,4
0.088,0.013712700535969277,0.013449902148266767,78.00988125162522,69.74872574443351,-0.3877577561566835,3.546644769529373,0.0035992238913123286,0.010365132336422354,0.008262829946695202,0.005179729360074922,-517.2925957434528,3602.7597268901554,595.9412738753418,452.4915331748999,3533.9180475885055,123.50270162729683,Vision,Movement,4
0.089,0.013712700578369557,0.013446227248732541,78.00988125162522,69.74872574443351,-0.38669964492839604,3.5650439959337894,0.003559447930993188,0.010092247692665316,0.008808422193033811,0.005097176915635847,-517.2856977437849,3602.746640367571,595.9645069303815,452.5411625751134,3533.9472285456727,123.59482433873626,Vision,Movement,4
0.09,0.013712700629470583,0.013442450818169055,78.00988125162522,69.74872574443351,-0.38563820126477205,3.583482555517517,0.00354327359790685,0.009866524572160473,0.009374176393371946,0.005009316326740788,-517.2787997441169,3602.733553844987,595.9877399854212,452.59079197532685,3533.97640950284,123.68694705017569,Vision,Movement,4
0.091,0.013712700689870133,0.013438576548095268,78.00988125162522,69.74872574443351,-0.38457343562124746,3.6019602732704596,0.0035492207791094203,0.009686602200005511,0.009955561172154053,0.00491667816364473,-517.271901744449,3602.720467322403,596.0109730404608,452.64042137554026,3534.005590460007,123.77906976161512,Vision,Movement,4
0.092,0.013712700760182888,0.013434607105028893,78.00988125162522,69.74872574443351,-0.38350535856356344,3.620476973168122,0.0035756626595860783,0.00955059885697796,0.010547784583631365,0.0048198294295945425,-517.265003744781,3602.7073807998186,596.0342060955005,452.6900507757537,3534.0347714171744,123.87119247305455,Vision,Movement,4
0.093,0.01371270084103994,0.013430543957002496,78.00988125162522,69.74872574443351,-0.3824339807667879,3.639032478239671,0.0036208592018566617,0.009456155476130856,0.011145814820562183,0.00471936588938867,-517.2581057451131,3602.6942942772343,596.0574391505402,452.7396801759672,3534.0639523743416,123.96331518449398,Vision,Movement,4
0.094,0.013712700933087263,0.0134263889112378,78.00988125162522,69.74872574443351,-0.38135931301890946,3.657626610474396,0.0036829893568750736,0.009400481088454675,0.011744404929416653,0.004615905037905307,-517.2512077454451,3602.68120775465,596.08067220558,452.78930957618064,3534.093133331509,124.05543789593341,Vision,Movement,4
0.095,0.013712701036984947,0.013422145884738135,78.00988125162522,69.74872574443351,-0.3802813662150739,3.6762591908911544,0.003760181358571122,0.00938040008970406,0.012338122814407559,0.004510079824295203,-517.2443097457772,3602.668121232066,596.1039052606196,452.8389389763941,3534.1223142886756,124.14756060737282,Vision,Movement,4
0.096,0.01371270115340527,0.013417821266539759,78.00988125162522,69.74872574443351,-0.3792001513612654,3.6949300395108855,0.003850540691147651,0.009392401669695965,0.012921387713639241,0.0044025332208343535,-517.2374117461092,3602.6550347094817,596.1271383156593,452.88856837660757,3534.151495245843,124.23968331881225,Vision,Movement,4
0.097,0.013712701283031523,0.013413422720950398,78.00988125162522,69.74872574443351,-0.37811567957323045,3.7136389754251757,0.003952175504730392,0.009432691893523278,0.013488514101367904,0.0042939136711754484,-517.2305137464413,3602.641948186898,596.150371370699,452.93819777682097,3534.18067620301,124.33180603025168,Vision,Movement,4
0.098,0.013712701426555786,0.013408958365161447,78.00988125162522,69.74872574443351,-0.3770279620763296,3.7323858167022066,0.004063219361149663,0.009497248827279212,0.014033763538752506,0.004184871374986456,-517.2236157467732,3602.6288616643137,596.1736044257386,452.98782717703443,3534.2098571601773,124.42392874169111,Vision,Movement,4
0.099,0.01371270158467715,0.013404436288402738,78.00988125162522,69.74872574443351,-0.375937010204522,3.75117038045716,0.004181851267941884,0.009581880852762265,0.014551404466500547,0.004076055268521409,-517.2167177471053,3602.6157751417295,596.1968374807783,453.0374565772479,3534.2390381173445,124.51605145313054,Vision,Movement,4
0.1,0.013712701758099598,0.01339986451850077,78.00988125162522,69.74872574443351,-0.3748428354039857,3.7699924828399203,0.004306313035648882,0.00968228803097341,0.015035779316973747,0.0039681104795089,-517.2098197474373,3602.6026886191453,596.220070535818,453.08708597746136,3534.2682190745118,124.60817416456997,Vision,Movement,4
0.101,0.013712701947529021,0.013395250735798246,78.00988125162522,69.74872574443351,-0.3737454492272368,3.788851939039029,0.004434924068869089,0.009794126094382336,0.015481377733630895,0.003861675979249772,-517.204809206954,3602.599566787947,596.2432817512444,453.1367153776748,3534.297400031679,124.70029687600939,Vision,Movement,4
0.10200000000000001,0.013712702153671307,0.013390602876250355,78.00988125162522,69.74872574443351,-0.37264486333682256,3.8077485632708234,0.004566093768491647,0.00991307233797804,0.015882914109488548,0.003757382149641992,-517.2063254010327,3602.630902335326,596.2664174464368,453.1985471788074,3534.3389157131583,124.79170526339212,Vision,Movement,4
0.10300000000000001,0.013712702377228452,0.01338592989520247,78.00988125162522,69.74872574443351,-0.3715410895033123,3.8266821688487336,0.004698331811548373,0.010034892316497538,0.016235407210203525,0.003655848028405875,-517.2078415951115,3602.662237882705,596.2895531416292,453.2869425612707,3534.407283032658,124.88155862850485,Vision,Movement,4
0.10400000000000001,0.013712702618896245,0.013381241568816133,78.00988125162522,69.74872574443351,-0.3704341396089336,3.8456525680884726,0.004830256656489559,0.010155505861240997,0.016534259495031366,0.0035576780810771137,-517.2093577891903,3602.693573430084,596.3126888368216,453.37533794373394,3534.475650352158,124.97141199361758,Vision,Movement,4
0.105,0.013712702879360184,0.013376548246831169,78.00988125162522,69.74872574443351,-0.3693240256416154,3.8646595723793076,0.00496060266204795,0.010271050642065169,0.01677533402874801,0.003463458440893855,-517.2108739832692,3602.724908977463,596.335824532014,453.4637333261972,3534.544017671658,125.0612653587303,Vision,Movement,4
0.106,0.013712703159291868,0.01337186004175913,78.00988125162522,69.74872574443351,-0.36821075969872674,3.883702992171365,0.005088226171398758,0.010377941455306268,0.016955027396109323,0.0033737526567583728,-517.212390177348,3602.7562445248423,596.3589602272065,453.55212870866046,3534.612384991158,125.15111872384303,Vision,Movement,4
0.107,0.013712703459344996,0.013367186536106437,78.00988125162522,69.74872574443351,-0.3670943539859279,3.9027826369648717,0.005212110832993081,0.0104729236470436,0.017070337463686094,0.003289097085234549,-517.2139063714268,3602.7875800722218,596.3820959223989,453.6405240911237,3534.6807523106577,125.24097208895576,Vision,Movement,4
0.108,0.01371270378015107,0.013362536773852695,78.00988125162522,69.74872574443351,-0.36597482081699845,3.921898315380034,0.00533137231115451,0.01055311939751265,0.017118924893709773,0.0032099961481548006,-517.2154225655056,3602.818915619601,596.4052316175914,453.728919473587,3534.7491196301576,125.33082545406847,Vision,Movement,4
0.109,0.0137127041223144,0.013357919173338685,78.00988125162522,69.74872574443351,-0.3648521726136352,3.941049835061621,0.005445262397259687,0.010616065812391518,0.01709916706852857,0.003136917716658986,-517.2169387595843,3602.85025116698,596.4283673127838,453.81731485605025,3534.817486949657,125.4206788191812,Vision,Movement,4
0.11,0.013712704486407597,0.013353341462131298,78.00988125162522,69.74872574443351,-0.3637264219043696,3.9602370027509313,0.005553172368657486,0.010659743871701823,0.017010202785443695,0.0030702888524595864,-517.2184549536631,3602.881586714359,596.4515030079763,453.9057102385135,3534.885854269157,125.51053218429394,Vision,Movement,4
0.111,0.013712704872965671,0.013348810796764829,78.00988125162522,69.74872574443351,-0.362597581328232,3.979459624273521,0.005654635279832091,0.010682597401614443,0.016851965948425845,0.0030104920727227723,-517.219971147742,3602.912922261738,596.4746387031687,453.99410562097677,3534.9542215886568,125.60038554940667,Vision,Movement,4
0.112,0.013712705282480746,0.013344333538468832,78.00988125162522,69.74872574443351,-0.36146566362866345,3.9987175045434475,0.005749326733275096,0.010683541446274368,0.01662520665949681,0.0029578622424603945,-517.2214873418208,3602.944257809117,596.4977743983611,454.0825010034401,3535.0225889081566,125.69023891451938,Vision,Movement,4
0.113,0.01371270571539614,0.01333991504532871,78.00988125162522,69.74872574443351,-0.36033068165726423,4.018010447552648,0.005837063569812437,0.010661959737481878,0.016331498631135248,0.0029126841658168707,-517.2230035358996,3602.975593356496,596.5209100935535,454.17089638590335,3535.0909562276565,125.78009227963211,Vision,Movement,4
0.114,0.013712706172099383,0.013335559872008162,78.00988125162522,69.74872574443351,-0.35919264837169074,4.037338256441483,0.005917799879647272,0.010617691387544315,0.01597323259395162,0.0028751909289683017,-517.2245197299784,3603.006928903875,596.5440457887461,454.2592917683666,3535.1593235471564,125.86994564474485,Vision,Movement,4
0.115,0.013712706652916306,0.01333127251934044,78.00988125162522,69.74872574443351,-0.35805157683933186,4.056700733402623,0.0059916198215366695,0.010551007409489782,0.015553596120821089,0.0028455630199446915,-517.2260359240572,3603.0382644512542,596.5671814839385,454.34768715082987,3535.2276908666563,125.95979900985756,Vision,Movement,4
0.116,0.013712707158103047,0.013327057714818416,78.00988125162522,69.74872574443351,-0.3569074802311488,4.07609767975382,0.006058726998565434,0.010462578089525228,0.015076540761207489,0.0028239282005213984,-517.227552118136,3603.0695999986337,596.5903171791309,454.43608253329313,3535.296058186156,126.0496523749703,Vision,Movement,4
0.117,0.013712707687839257,0.013322920213728046,78.00988125162522,69.74872574443351,-0.3557603718254695,4.095528895925182,0.006119430480418294,0.010353432555086082,0.014546737524447116,0.002810362044683657,-517.2290683122147,3603.100935546013,596.6134528743233,454.5244779157564,3535.364425505656,126.13950574008302,Vision,Movement,4
0.11800000000000001,0.013712708242219882,0.013318864243433167,78.00988125162522,69.74872574443351,-0.35461026500676224,4.114994181448649,0.006174127822905304,0.010224912172748882,0.01396952163141861,0.002804889004096412,-517.2350454850894,3603.1554532890755,596.6403248426117,454.61287329821965,3535.432792825156,126.22935910519575,Vision,Movement,4
0.11900000000000001,0.013712708821246882,0.013314893121621341,78.00988125162522,69.74872574443351,-0.353457173265383,4.134493335029065,0.006223285523561369,0.010078619735315542,0.0133508273111464,0.0028074838373068536,-517.2423465484975,3603.216850842785,596.6683056295717,454.6906118943992,3535.4858418576114,126.31214023238918,Vision,Movement,4
0.12,0.013712709424821019,0.013311009423261976,78.00988125162522,69.74872574443351,-0.3523011101964362,4.154026154447506,0.006267417355652477,0.009916366650023028,0.012697113477155082,0.002818073248529567,-517.2496476119057,3603.2782483964943,596.6962864165316,454.7640629847826,3535.532727939742,126.39207601200192,Vision,Movement,4
0.121,0.013712710052731973,0.01330721529585279,78.00988125162522,69.74872574443351,-0.35114208950347,4.173592436634714,0.00630706108554048,0.009740120369627105,0.012015281403287496,0.002836537618689652,-517.2569486753139,3603.3396459502037,596.7242672034916,454.837514075166,3535.5796140218727,126.47201179161466,Vision,Movement,4
0.122,0.013712710704649918,0.01330351239733198,78.00988125162522,69.74872574443351,-0.3499801249922084,4.193191977658833,0.006342754266874675,0.009551954074962822,0.011312585988637701,0.002862712773621459,-517.264249738722,3603.4010435039136,596.7522479904517,454.9109651655494,3535.6265001040033,126.5519475712274,Vision,Movement,4
0.123,0.013712711380115152,0.013299902029969255,78.00988125162522,69.74872574443351,-0.3488152305743739,4.212824572729902,0.006375010048457988,0.009354000221139074,0.010596542621748445,0.0028963918060128683,-517.2715508021303,3603.462441057623,596.7802287774116,454.9844162559328,3535.6733861861344,126.63188335084014,Vision,Movement,4
0.124,0.01371271207852797,0.013296385185081088,78.00988125162522,69.74872574443351,-0.34764742026638795,4.232490016189487,0.006404294100707652,0.009148409088137093,0.009874831930264392,0.002937327009055651,-517.2788518655384,3603.5238386113324,596.8082095643716,455.0578673463162,3535.720272268265,126.71181913045288,Vision,Movement,4
0.125,0.013712712799138285,0.013292962652116564,78.00988125162522,69.74872574443351,-0.3464767081882028,4.2521881015823295,0.006431003767989023,0.0089373130216711,0.00915520472607291,0.0029852319586883436,-517.2861529289465,3603.585236165042,596.8361903513317,455.1313184366996,3535.7671583503957,126.79175491006562,Vision,Movement,4
0.126,0.013712713541034717,0.013289635166855884,78.00988125162522,69.74872574443351,-0.3453031085670114,4.271918621559054,0.006455450406981135,0.008722796657038982,0.008445389249645146,0.0030397837051791003,-517.2934539923548,3603.646633718751,596.8641711382916,455.204769527083,3535.8140444325263,126.87169068967836,Vision,Movement,4
0.127,0.013712714303133394,0.013286403168762874,78.00988125162522,69.74872574443351,-0.34412663573089186,4.291681367949805,0.006477845640306033,0.008506873129733,0.0077530024118723775,0.0031006249503561676,-517.3007550557629,3603.7080312724606,596.8921519252516,455.2782206174664,3535.8609305146574,126.95162646929111,Vision,Movement,4
0.128,0.013712715084166261,0.013283266750948826,78.00988125162522,69.74872574443351,-0.3429473041126529,4.311476131736574,0.00649829199788185,0.008291466096564839,0.007085466318953198,0.0031673660372869426,-517.3080561191712,3603.7694288261705,596.9201327122116,455.3516717078498,3535.907816596788,127.03156224890385,Vision,Movement,4
0.129,0.01371271588266937,0.013280225463843552,78.00988125162522,69.74872574443351,-0.3417651282485292,4.331302703125245,0.00651677817055072,0.008078397238194377,0.006449930941036755,0.003239586592935749,-517.3153571825793,3603.83082637988,596.9481134991715,455.4251227982332,3535.9547026789187,127.11149802851659,Vision,Movement,4
0.13,0.01371271669697049,0.013277278536020239,78.00988125162522,69.74872574443351,-0.3405801227778749,4.351160871447882,0.00653317886917616,0.007869378785270848,0.0058532034485284015,0.0033168367230382236,-517.3226582459874,3603.8922239335893,596.9760942861316,455.4985738886166,3536.0015887610493,127.19143380812933,Vision,Movement,4
0.131,0.0137127175251769,0.013274424937802313,78.00988125162522,69.74872574443351,-0.33939230244196167,4.371050425237375,0.0065472590787965,0.00766601052381845,0.0053016844162198234,0.0033986377392867364,-517.3299593093957,3603.9536214872987,597.0040750730916,455.572024979,3536.04847484318,127.27136958774207,Vision,Movement,4
0.132,0.01371271836516279,0.013271663192195719,78.00988125162522,69.74872574443351,-0.33820168208770335,4.390971152215185,0.006558682343347065,0.007469780706235883,0.004801310846394707,0.0034844824730115185,-517.3372603728038,3604.015019041008,597.0320558600515,455.6454760693834,3536.095360925311,127.35130536735481,Vision,Movement,4
0.133,0.013712719214555767,0.013268991630890566,78.00988125162522,69.74872574443351,-0.33700827666119815,4.410922839296052,0.006567022632738781,0.007282070257135103,0.004357505720440042,0.0035738352924433434,-517.344561436212,3604.076416594718,597.0600366470115,455.7189271597668,3536.1422470074417,127.43124114696755,Vision,Movement,4
0.134,0.01371272007072455,0.013266408620356369,78.00988125162522,69.74872574443351,-0.33581210121159893,4.430905272577833,0.006571779318864601,0.00710415959535222,0.003975133626175154,0.003666131980198727,-517.3518624996202,3604.1378141484274,597.0880174339716,455.7923782501502,3536.1891330895724,127.51117692658029,Vision,Movement,4
0.135,0.01371272093076508,0.013263912458385157,78.00988125162522,69.74872574443351,-0.3346131708897339,4.450918237414073,0.0065723947768677494,0.006937237315114209,0.0036584619190125423,0.00376077965429724,-517.3591635630283,3604.199211702137,597.1159982209315,455.86046546480634,3536.230348129249,127.58937004291741,Vision,Movement,4
0.136,0.0137127217914878,0.013261501463353448,78.00988125162522,69.74872574443351,-0.33341150094687677,4.470961518315724,0.006568274088373669,0.006782409967247473,0.0034111268852429462,0.003857156946505399,-517.3664646264366,3604.2606092558462,597.1439790078915,455.8857801329351,3536.226341217566,127.65366683692561,Vision,Movement,4
0.137,0.01371272264940358,0.013259174118739442,78.00988125162522,69.74872574443351,-0.3322071067384823,4.491034899026459,0.00655880625263771,0.006640712246024997,0.0032361044735306323,0.00395461469836561,-517.3737656898447,3604.3220068095557,597.1719597948515,455.9110948010639,3536.2223343058836,127.71796363093381,Vision,Movement,4
0.138,0.013712723500711,0.013256929102738891,78.00988125162522,69.74872574443351,-0.33100000371764654,4.511138162509856,0.00654338623950989,0.006513116954863967,0.003135685361120793,0.004052477468046165,-517.3858569088688,3604.404412465667,597.2095913372044,455.93640946919265,3536.218327394201,127.78226042494201,Vision,Movement,4
0.139,0.013712724341282357,0.01325476510015246,78.00988125162522,69.74872574443351,-0.3297902074389957,4.531271090939341,0.006521437165880004,0.006400544155204102,0.003111454312111522,0.004150046145395184,-517.416561073815,3604.5684485958745,597.2847224938989,455.9617241373214,3536.2143204825184,127.84655721895021,Vision,Movement,4
0.14,0.013712725166650865,0.013252681009778175,78.00988125162522,69.74872574443351,-0.3285777335573065,4.551433465771169,0.0064924318334981645,0.006303868925887769,0.003164273933312436,0.0042466019273665325,-517.4472652387614,3604.7324847260825,597.3598536505934,455.9870388054502,3536.2103135708358,127.91085401295841,Vision,Movement,4
0.14100000000000001,0.013712725971997453,0.013250676043899321,78.00988125162522,69.74872574443351,-0.3273625978271451,4.571625067645706,0.006455912827054615,0.006223927259585799,0.0032942730287322843,0.004341411809357133,-517.4779694037076,3604.8965208562904,597.434984807288,456.01235347357897,3536.206306659153,127.97515080696661,Vision,Movement,4
0.14200000000000002,0.013712726752137767,0.013248749507075958,78.00988125162522,69.74872574443351,-0.32614481610160456,4.591845676463268,0.006411510387331996,0.006161519774098099,0.003500839834453388,0.0044337356255015545,-517.5086735686538,3605.0605569864983,597.5101159639825,456.03766814170774,3536.2022997474705,128.0394476009748,Vision,Movement,4
0.14300000000000002,0.013712727501509673,0.013246900526218554,78.00988125162522,69.74872574443351,-0.3249244043360519,4.6120950713718845,0.00635895741744606,0.006117413058752758,0.0037826204991687896,0.00452283454956986,-517.5393777336001,3605.2245931167063,597.585247120677,456.0629828098365,3536.198292835788,128.103744394983,Vision,Movement,4
0.14400000000000002,0.01371272821416135,0.013245127890497043,78.00988125162522,69.74872574443351,-0.3237013785814921,4.632373030772213,0.00629810123993154,0.006092338572164378,0.004137523262426476,0.004607980884095156,-517.5700818985463,3605.388629246914,597.6603782773715,456.0882974779653,3536.1942859241053,128.1680411889912,Vision,Movement,4
0.145,0.01371272888373929,0.013243430180432638,78.00988125162522,69.74872574443351,-0.32247575498847875,4.652679332307603,0.0062289119914805775,0.0060869890635519295,0.0045627288545858425,0.004688468905652262,-517.6007860634925,3605.5526653771217,597.735509434066,456.11361214609406,3536.1902790124227,128.23233798299938,Vision,Movement,4
0.146,0.013712729503477513,0.013241806213994843,78.00988125162522,69.74872574443351,-0.32124754980565595,4.673013752937547,0.006151487713492124,0.006102012514732943,0.005054707677113031,0.004763626481169503,-517.6314902284388,3605.7167015073296,597.8106405907605,456.1389268142228,3536.18627210074,128.2966347770076,Vision,Movement,4
0.147,0.013712730066186844,0.013240255139023705,78.00988125162522,69.74872574443351,-0.32001677937847084,4.693376068838436,0.006066056273411573,0.006138003628659991,0.005609244283574021,0.004832827113502187,-517.662194393385,3605.8807376375375,597.885771747455,456.1642414823516,3536.1822651890575,128.36093157101578,Vision,Movement,4
0.148,0.013712730564245525,0.013238776165830189,78.00988125162522,69.74872574443351,-0.31878346015292686,4.7137660554793985,0.005972974283409108,0.006195492956602797,0.006221469591204032,0.004895502030424563,-517.6928985583312,3606.0447737677455,597.9609029041495,456.18955615048037,3536.178258277375,128.425228365024,Vision,Movement,4
0.149,0.01371273098959032,0.01323736840110376,78.00988125162522,69.74872574443351,-0.3175476086688714,4.734183487594601,0.005872723183260433,0.006274933876571292,0.006885901067919888,0.004951151900202278,-517.7236027232774,3606.2088098979534,598.036034060844,456.21487081860914,3536.1742513656923,128.48952515903218,Vision,Movement,4
0.15,0.013712731333708907,0.01323603097548225,78.00988125162522,69.74872574443351,-0.3163092415639224,4.754628139256973,0.005765902617557535,0.006376687766746371,0.007596490952288984,0.004999357748848467,-517.7543068882237,3606.372846028161,598.1111652175385,456.2401854867379,3536.1702444540097,128.5538219530404,Vision,Movement,4
0.151,0.013712731587633068,0.01323476290373744,78.00988125162522,69.74872574443351,-0.3150683755720148,4.775099783778654,0.005653221193910368,0.0065010077976593895,0.008346682366425261,0.005039790669589957,-517.7938169009064,3606.5308009886144,598.1887198774688,456.2655001548667,3536.166237542327,128.61811874704858,Vision,Movement,4
0.152,0.013712731741933706,0.013233563027236796,78.00988125162522,69.74872574443351,-0.3138250275229853,4.7955981937878365,0.005535484754500245,0.0066480217537283025,0.009129473047949676,0.005072219971365346,-517.8347035791277,3606.687805247093,598.2666534166947,456.28251028837855,3536.15912903011,128.67693229303615,Vision,Movement,4
0.153,0.013712731786716338,0.013232430026706305,78.00988125162522,69.74872574443351,-0.3125792143412534,4.816123141216526,0.0054135824491835976,0.006817714201210522,0.009937486250374446,0.005096519492800517,-517.875590257349,3606.8448095055714,598.3445869559205,456.29153390947926,3536.1490376931697,128.73047257202074,Vision,Movement,4
0.154,0.013712731711619384,0.013231362439571312,78.00988125162522,69.74872574443351,-0.31133095304958175,4.836674397305616,0.0052884710844257376,0.007009908176609841,0.010763048179842442,0.005112671879013117,-517.9164769355704,3607.0018137640495,598.4225204951463,456.30055753058,3536.13894635623,128.78401285100537,Vision,Movement,4
0.155,0.013712731505812882,0.01323035867737305,78.00988125162522,69.74872574443351,-0.31008026076227546,4.857251732595172,0.0051611583220190415,0.007224246439013465,0.011598271084523918,0.0051207706483944555,-517.9573636137916,3607.158818022528,598.5004540343721,456.30958115168073,3536.12885501929,128.83755312998997,Vision,Movement,4
0.156,0.013712731158000173,0.013229417042371067,78.00988125162522,69.74872574443351,-0.30882715468912536,4.877854916998543,0.00503268529196363,0.0074601722779105055,0.012435140828353085,0.005121019882494156,-517.9982502920129,3607.3158222810066,598.5783875735979,456.31860477278144,3536.11876368235,128.8910934089746,Vision,Movement,4
0.157,0.013712730656420802,0.013228535743184387,78.00988125162522,69.74872574443351,-0.3075716521338749,4.898483719702366,0.004904109107552999,0.007716909970740449,0.013265607478210518,0.005113731406376926,-518.0391369702342,3607.4728265394847,598.6563211128237,456.3276283938822,3536.10867234541,128.9446336879592,Vision,Movement,4
0.158,0.013712729988856224,0.013227712909469991,78.00988125162522,69.74872574443351,-0.3063137704928756,4.919137909243954,0.004776485703672831,0.007993445217249704,0.01408167726854193,0.0050993194271540246,-518.0800236484555,3607.629830797963,598.7342546520495,456.3366520149829,3536.09858100847,128.9981739669438,Vision,Movement,4
0.159,0.013712729142637494,0.013226946605662803,78.00988125162522,69.74872574443351,-0.30505352725885304,4.9398172534983775,0.004650853367951911,0.008288506206937694,0.014875504302737007,0.005078292738852589,-518.1209103266767,3607.7868350564418,598.8121881912754,456.3456756360837,3536.08848967153,129.05171424592842,Vision,Movement,4
0.16,0.013712728104655665,0.013226234843804887,78.00988125162522,69.74872574443351,-0.3037909400140333,4.960521519668868,0.00452821728049007,0.00860054634146396,0.015639480592317272,0.00505124471469353,-518.1617970048981,3607.94383931492,598.8901217305012,456.3546992571844,3536.07839833459,129.10525452491302,Vision,Movement,4
0.161,0.013712726861375282,0.013225575595493345,78.00988125162522,69.74872574443351,-0.30252602643410026,4.981250474361217,0.004409535313543943,0.008927729927809741,0.01636632326987137,0.005018841353629811,-518.2026836831193,3608.1008435733984,598.968055269727,456.36372287828516,3536.06830699765,129.15879480389765,Vision,Movement,4
0.162,0.013712725398850097,0.013224966802979018,78.00988125162522,69.74872574443351,-0.30125880428667134,5.002003883483433,0.004295705256325243,0.009267922324627205,0.01704915782239155,0.004981807655240495,-518.2435703613406,3608.257847831877,599.0459888089528,456.37274649938587,3536.05821566071,129.21233508288225,Vision,Movement,4
0.163,0.013712723702743143,0.013224406389446065,78.00988125162522,69.74872574443351,-0.29998929143082914,5.022781512323569,0.0041875535552293374,0.009618685997667256,0.017681596034918028,0.004940912624199442,-518.2844570395619,3608.414852090355,599.1239223481786,456.38177012048664,3536.04812432377,129.26587536186688,Vision,Movement,4
0.164,0.01371272175834884,0.013223892268505781,78.00988125162522,69.74872574443351,-0.2987175058157476,5.043583125537466,0.004085825609155375,0.009977283758470363,0.01825780718615606,0.0048969532811478575,-518.3253437177832,3608.5718563488335,599.2018558874043,456.39079374158734,3536.0380329868303,129.31941564085147,Vision,Movement,4
0.165,0.013712719550620197,0.013223422352935874,78.00988125162522,69.74872574443351,-0.2974434654844608,5.064408487153972,0.003991177637225037,0.010340690160635376,0.01877258121814591,0.004850738137178899,-518.3662303960044,3608.728860607312,599.2797894266301,456.39981736268805,3536.02794164989,129.3729559198361,Vision,Movement,4
0.166,0.013712717064198597,0.01322299456269905,78.00988125162522,69.74872574443351,-0.29616718856690843,5.085257360565467,0.003904170116494759,0.010705611680915907,0.019221383069447182,0.004803070623451713,-518.4071170742258,3608.8858648657906,599.3577229658559,456.4088409837888,3536.01785031295,129.4264961988207,Vision,Movement,4
0.167,0.013712714283448401,0.013222606832271997,78.00988125162522,69.74872574443351,-0.2948886932838611,5.1061295086025895,0.0038252627703027524,0.011068515937293608,0.01960039795292153,0.004754732953447929,-518.4532288651287,3609.0484727395547,599.4408911062702,456.41786460488953,3536.0077589760103,129.4800364778053,Vision,Movement,4
0.168,0.013712711192495937,0.01322225711731795,78.00988125162522,69.74872574443351,-0.29360799794441506,5.127024693433516,0.003754811087670038,0.011425669857611459,0.019906567818479385,0.004706470864910002,-518.5068093011986,3609.219090280626,599.531541454485,456.4268882259903,3535.99766763907,129.53357675678993,Vision,Movement,4
0.169,0.013712707775272602,0.013221943400734869,78.00988125162522,69.74872574443351,-0.29232512094976126,5.147942676642244,0.0036930643945547906,0.011773186390573879,0.02013761942353218,0.004658979643586117,-518.5603897372685,3609.3897078216974,599.6221918026997,456.46771832914277,3536.0378054449916,129.58120428268734,Vision,Movement,4
0.17,0.013712704015563352,0.013221663698111376,78.00988125162522,69.74872574443351,-0.29104008078617805,5.168883219215609,0.0036401655320239864,0.012107079096128967,0.020292084253852673,0.004612891759224295,-518.6139701733382,3609.5603253627687,599.7128421509145,456.5117676215106,3536.083027029582,129.6282333685894,Vision,Movement,4
0.171,0.013712699897059592,0.013221416062620919,78.00988125162522,69.74872574443351,-0.2897528960290099,5.189846081533921,0.0035961521816536123,0.0124233237120848,0.020369310169523334,0.0045687663375525685,-518.6675506094081,3609.73094290384,599.8034924991293,456.55581691387846,3536.1282486141727,129.67526245449147,Vision,Movement,4
0.17200000000000001,0.01371269540341828,0.01322119858938639,78.00988125162522,69.74872574443351,-0.28846358534108174,5.210831023445918,0.0035609598093044917,0.012717925562700487,0.020369464335258478,0.0045270805713186,-518.7211310454779,3609.9015604449114,599.894142847344,456.5998662062463,3536.173470198763,129.72229154039354,Vision,Movement,4
0.17300000000000001,0.013712690518325913,0.013221009419344268,78.00988125162522,69.74872574443351,-0.28717216747222957,5.231837804167759,0.003534426133849745,0.012986991390484265,0.020293527009289228,0.004488223061853375,-518.7747114815477,3610.0721779859823,599.9847931955588,456.64391549861415,3536.2186917833537,129.7693206262956,Vision,Movement,4
0.17400000000000002,0.013712685225568719,0.013220846742639321,78.00988125162522,69.74872574443351,-0.2858786612587805,5.252866182361675,0.003516296997771788,0.013226803911996462,0.02014327615747765,0.0044524890062375,-518.8282919176175,3610.2427955270537,600.0754435437736,456.687964790982,3536.263913367944,129.81634971219768,Vision,Movement,4
0.17500000000000002,0.013712679509108558,0.013220708801577104,78.00988125162522,69.74872574443351,-0.2845830856221274,5.273915916123721,0.003506233504448798,0.013433897159727438,0.019921263381228415,0.0044200771405336434,-518.8818723536874,3610.413413068125,600.1660938919885,456.73201408334984,3536.3091349525344,129.86337879809975,Vision,Movement,4
0.176,0.013712673353165802,0.013220593893164063,78.00988125162522,69.74872574443351,-0.28328545957249857,5.294986762989093,0.0035038202513550543,0.01360513049533918,0.019630781951003956,0.004391088417108077,-518.9354527897572,3610.5840306091964,600.2567442402031,456.77606337571774,3536.354356537125,129.91040788400178,Vision,Movement,4
0.177,0.013712666742308338,0.013220500371262102,78.00988125162522,69.74872574443351,-0.28198580220186237,5.316078479922895,0.0035085744208679724,0.01373775906641723,0.019275827657660356,0.004365526495270205,-518.989033225827,3610.7546481502677,600.347394588418,456.8201126680856,3536.3995781217154,129.95743696990385,Vision,Movement,4
0.178,0.013712659661547453,0.013220426648383451,78.00988125162522,69.74872574443351,-0.2806841326878705,5.337190823395342,0.0035199554192742676,0.01382949840505047,0.018861052860697582,0.0043433001990611396,-519.0426136618969,3610.925265691339,600.4380449366328,456.86416196045343,3536.444799706306,130.00446605580592,Vision,Movement,4
0.179,0.013712652096441024,0.013220371197152327,78.00988125162522,69.74872574443351,-0.27938047029128305,5.358323549280439,0.0035373747087543337,0.01387858083572638,0.018391713775348904,0.004324228115988504,-519.0961940979666,3611.0958832324104,600.5286952848475,456.9082112528213,3536.4900212908965,130.051495141708,Vision,Movement,4
0.18,0.013712644033203818,0.013220332551458356,78.00988125162522,69.74872574443351,-0.27807483435973696,5.379476412934245,0.003560205470242529,0.01388380139703258,0.01787361079760864,0.004308045487475839,-519.1497745340365,3611.2665007734818,600.6193456330623,456.9522605451891,3536.5352428754873,130.09852422761006,Vision,Movement,4
0.181,0.013712635458825562,0.01322030930732412,78.00988125162522,69.74872574443351,-0.27676724432060396,5.400649169167292,0.003587791778664657,0.013844551258291643,0.017313021555465654,0.004294413499114211,-519.2033549701064,3611.4371183145527,600.7099959812771,456.99630983755696,3536.5804644600776,130.14555331351212,Vision,Movement,4
0.182,0.013712626361196559,0.013220300123511466,78.00988125162522,69.74872574443351,-0.2754577196849858,5.421841572319928,0.0036194570795030187,0.013760837249693281,0.016716626365559026,0.004282931004245854,-519.2569354061761,3611.607735855624,600.8006463294918,457.0403591299248,3536.6256860446683,130.1925823994142,Vision,Movement,4
0.183,0.013712616729241256,0.0132203037218872,78.00988125162522,69.74872574443351,-0.27414628004606534,5.443053376160829,0.0036545119182386653,0.013633287003799661,0.016091426010721468,0.004273148585634256,-519.310515842246,3611.7783533966954,600.8912966777066,457.08440842229265,3536.6709076292586,130.23961148531626,Vision,Movement,4
0.184,0.013712606553060442,0.013220318887569402,78.00988125162522,69.74872574443351,-0.27283294507853956,5.464284333966271,0.0036922610419812653,0.013463139981275135,0.015444652248698452,0.004264584679769684,-519.3632281794386,3611.9375483582326,600.982475152392,457.1284577146605,3536.716129213849,130.28664057121833,Vision,Movement,4
0.185,0.013712595824080734,0.013220344468874773,78.00988125162522,69.74872574443351,-0.271517734537152,5.48553419850789,0.0037320101194314903,0.013252225082862678,0.014783672173560235,0.004256743293388723,-519.4159028891555,3612.0962482116133,601.073676518555,457.18568825752163,3536.778065791723,130.3319034142323,Vision,Movement,4
0.186,0.013712584535213766,0.013220379377085223,78.00988125162522,69.74872574443351,-0.270200668260456,5.5068027220580715,0.003773072391651479,0.013002925711077038,0.014115888167968643,0.004249132666140005,-519.4685775988723,3612.254948064994,601.164877884718,457.27275441733406,3536.877836574872,130.37316838570302,Vision,Movement,4
0.187,0.01371257268102337,0.01322042258605193,78.00988125162522,69.74872574443351,-0.2688817661636058,5.52808965638092,0.003814775566795279,0.012718133291175193,0.013448635538990823,0.00424128410255784,-519.5212523085892,3612.413647918375,601.2560792508809,457.3598205771464,3536.977607358021,130.41443335717375,Vision,Movement,4
0.188,0.013712560257901282,0.013220473131653974,78.00988125162522,69.74872574443351,-0.26756104824235866,5.549394752807768,0.0038564691987152196,0.012401190547847035,0.012789080001349176,0.004232770124535186,-519.573927018306,3612.5723477717556,601.3472806170439,457.44688673695885,3537.0773781411704,130.45569832864444,Vision,Movement,4
0.189,0.013712547264251805,0.013220530111127568,78.00988125162522,69.74872574443351,-0.2662385345713404,5.570717762135436,0.003897532657159628,0.012055826164376319,0.012144117154107556,0.004223221078195358,-519.6266017280228,3612.7310476251364,601.4384819832068,457.5339528967712,3537.177148924319,130.49696330011517,Vision,Movement,4
0.19,0.013712533700685913,0.013220592682280593,78.00988125162522,69.74872574443351,-0.26491424530255675,5.592058434705851,0.003937383632456552,0.011686082715861539,0.011520276061161778,0.004212339354992767,-519.6792764377396,3612.889747478517,601.5296833493697,457.62101905658363,3537.2769197074686,130.5382282715859,Vision,Movement,4
0.191,0.013712519570223524,0.013220660062606708,78.00988125162522,69.74872574443351,-0.2635882006691525,5.613416520392943,0.003975486957338099,0.011296239905545293,0.010923629009810134,0.004199910473816383,-519.7319511474566,3613.048447331898,601.6208847155327,457.70808521639606,3537.3766904906174,130.57949324305662,Vision,Movement,4
0.192,0.013712504878504497,0.013220731528312346,78.00988125162522,69.74872574443351,-0.26226042097814906,5.634791768593707,0.004011363400058075,0.010890735172905782,0.010359709318574365,0.0041858104515840495,-519.7846258571734,3613.2071471852787,601.7120860816957,457.7951513762084,3537.4764612737667,130.62075821452734,Vision,Movement,4
0.193,0.013712489634009615,0.01322080641326822,78.00988125162522,69.74872574443351,-0.2609309266144511,5.656183928303831,0.004044598000990157,0.010474083752678685,0.009833438749200842,0.004170009152719662,-519.8373005668902,3613.3658470386595,601.8032874478587,457.88221753602085,3537.5762320569156,130.66202318599807,Vision,Movement,4
0.194,0.013712473848288765,0.013220884107897799,78.00988125162522,69.74872574443351,-0.2595997380391366,5.677592748015785,0.0040748474902688745,0.01005080021892645,0.009349065750051311,0.004152569586220043,-519.8899752766071,3613.5245468920402,601.8944888140217,457.9692836958332,3537.676002840065,130.70328815746876,Vision,Movement,4
0.195,0.013712457536199032,0.013220964058010896,78.00988125162522,69.74872574443351,-0.2582668757888408,5.69901797579868,0.004101846308271418,0.009625323475711779,0.00891011549356176,0.004133643361590251,-519.9426499863239,3613.683246745421,601.9856901801846,458.05634985564564,3537.775773623214,130.7445531289395,Vision,Movement,4
0.196,0.013712440716150473,0.013221045763595226,78.00988125162522,69.74872574443351,-0.25693236047424556,5.720459359285994,0.004125410746617098,0.009201947006402904,0.008519352546738228,0.004113462721009991,-519.9953246960407,3613.8419465988018,602.0768915463476,458.14341601545806,3537.875544406363,130.7858181004102,Vision,Movement,4
0.197,0.01371242341036022,0.013221128777571083,78.00988125162522,69.74872574443351,-0.25559621278388467,5.741916645681034,0.0041454407649908235,0.00878475595763012,0.008178756895613192,0.004092329727395429,-520.0479994057577,3614.0006464521825,602.1680929125106,458.2304821752704,3537.975315189512,130.82708307188093,Vision,Movement,4
0.198,0.013712405645114846,0.013221212704519087,78.00988125162522,69.74872574443351,-0.2542584534777124,5.7633895817481156,0.0041619191604900015,0.008377572289673245,0.007889513866457979,0.004070603282333504,-520.1006741154745,3614.1593463055633,602.2592942786736,458.31754833508285,3538.0750859726613,130.86834804335166,Vision,Movement,4
0.199,0.013712387451039561,0.013221297199387834,78.00988125162522,69.74872574443351,-0.2529191033858438,5.784877913888305,0.004174907980023633,0.007983908826627499,0.007652018187731719,0.004048684672258062,-520.1533488251913,3614.318046158944,602.3504956448365,458.4046144948952,3538.17485675581,130.90961301482238,Vision,Movement,4
0.2,0.013712368863375506,0.013221381966186354,78.00988125162522,69.74872574443351,-0.25157818341784255,5.806381388037335,0.004184542348665738,0.007606932615170078,0.007465892076952717,0.004027002323814738,-520.1948981763109,3614.4451682264585,602.432249177383,458.49168065470764,3538.2746275389595,130.95087798629308,Vision,Movement,4
0.201,0.013712349922263015,0.013221466756668231,78.00988125162522,69.74872574443351,-0.2502357145498339,5.827899749745709,0.00419102217296663,0.007249437626319803,0.007330016880287737,0.0040059964107039825,-520.2255548348863,3614.541372898398,602.5047524600708,458.57874681452006,3538.3743983221084,130.9921429577638,Vision,Movement,4
0.202,0.013712330673030829,0.013221551369011257,78.00988125162522,69.74872574443351,-0.24889171783400765,5.8494327441655285,0.004194602380358537,0.006913826595152185,0.0072425775069022025,0.003986103906054137,-520.2562114934617,3614.6375775703377,602.5772557427587,458.6731129495191,3538.471675080181,131.03321551521125,Vision,Movement,4
0.203,0.013712311166491964,0.013221635646496158,78.00988125162522,69.74872574443351,-0.24754621439008853,5.870980116041769,0.0041955824267851825,0.006602101596074984,0.007201118636786947,0.003967744616077494,-520.2868681520372,3614.733782242277,602.6497590254464,458.77053735066426,3538.56790698642,131.07420746234448,Vision,Movement,4
0.20400000000000001,0.013712291459242907,0.013221719476188621,78.00988125162522,69.74872574443351,-0.24619922540934627,5.892541609788074,0.004194295763959524,0.006315862832320966,0.0072026114285000335,0.0039513086550234675,-520.3175248106126,3614.8299869142165,602.7222623081343,458.8679617518094,3538.6641388926587,131.11519940947773,Vision,Movement,4
0.20500000000000002,0.013712271613967703,0.01322180278762573,78.00988125162522,69.74872574443351,-0.24485077215282958,5.914116969384558,0.004191099857460118,0.0060563149686671995,0.007243529210231735,0.003937145719481647,-520.348181469188,3614.926191586156,602.7947655908222,458.96538615295447,3538.760370798898,131.15619135661098,Vision,Movement,4
0.20600000000000002,0.013712251699745045,0.01322188555151018,78.00988125162522,69.74872574443351,-0.24350087595070366,5.935705938458103,0.0041863672159210925,0.005824280213275438,0.007319930435013483,0.003925556400080837,-520.3788381277635,3615.0223962580953,602.8672688735099,459.0628105540996,3538.856602705137,131.1971833037442,Vision,Movement,4
0.20700000000000002,0.013712231792357261,0.013221967778411406,78.00988125162522,69.74872574443351,-0.24214955820070053,5.957308260269134,0.004180477739120096,0.005620217251500436,0.00742754702413422,0.003916785654518552,-520.4094947863389,3615.118600930035,602.9397721561978,459.16023495524473,3538.9528346113757,131.23817525087745,Vision,Movement,4
0.20800000000000002,0.013712211974600413,0.01322204951747602,78.00988125162522,69.74872574443351,-0.2407968403719076,5.9789236777030155,0.004173812532014396,0.005444245091174195,0.007561876086664527,0.00391101846980293,-520.4401514449144,3615.2148056019746,603.0122754388856,459.2576593563898,3539.049066517615,131.2791671980107,Vision,Movement,4
0.209,0.01371219233659458,0.013222130855145908,78.00988125162522,69.74872574443351,-0.2394427439982335,6.000551933345852,0.004166749189571773,0.005296170894307664,0.0077182728878719105,0.003908377658336272,-520.4708081034897,3615.311010273914,603.0847787215735,459.35508375753494,3539.1452984238535,131.32015914514392,Vision,Movement,4
0.21,0.013712172976092158,0.013222211913884287,78.00988125162522,69.74872574443351,-0.2380872906771307,6.022192769382214,0.004159658452686149,0.005175520915462739,0.007892042869282431,0.003908923645220019,-520.5014647620652,3615.4072149458534,603.1572820042612,459.4525081586801,3539.2415303300927,131.36115109227717,Vision,Movement,4
0.211,0.01371215399878416,0.013222292850907601,78.00988125162522,69.74872574443351,-0.23673050207889781,6.043845927675569,0.004152902058886309,0.00508157368143565,0.00807853053179905,0.003912656012914583,-520.5321214206407,3615.503419617793,603.2297852869491,459.54993255982515,3539.3377622363314,131.40214303941042,Vision,Movement,4
0.212,0.013712135518601004,0.013222373856921781,78.00988125162522,69.74872574443351,-0.23537239993366507,6.065511149755045,0.0041468315443542346,0.005013394551793074,0.008273203075967689,0.003919516501159869,-520.5627780792161,3615.5996242897327,603.302288569637,459.6473569609703,3539.4339941425706,131.44313498654364,Vision,Movement,4
0.213,0.013712117658008715,0.013222455154860542,78.00988125162522,69.74872574443351,-0.234013006040925,6.087188176806904,0.004141787697502745,0.004969870840284302,0.008471726889734167,0.003929393141004687,-520.5934347377915,3615.695828961672,603.3747918523247,459.7447813621154,3539.5302260488093,131.4841269336769,Vision,Movement,4
0.214,0.013712100548295839,0.013222536998621855,78.00988125162522,69.74872574443351,-0.23265234226090428,6.108876749750351,0.0041381003265009144,0.004949746729266943,0.008670035289825453,0.003942125225468949,-520.6240913963669,3615.7920336336115,603.4472951350126,459.8422057632605,3539.6264579550484,131.52511888081014,Vision,Movement,4
0.215,0.01371208432985223,0.013222619671800757,78.00988125162522,69.74872574443351,-0.2312904305185695,6.1305766091351925,0.004136087972233992,0.004951657265307797,0.008864386314929933,0.003957508853345681,-520.6547480549424,3615.888238305551,603.5197984177004,459.9396301644056,3539.7226898612876,131.56611082794336,Vision,Movement,4
0.216,0.013712069152434867,0.013222703486412609,78.00988125162522,69.74872574443351,-0.22992729280181098,6.152287495222402,0.004136057150731716,0.004974160761403661,0.009051409768288412,0.003975302810424955,-520.6854047135178,3615.9844429774903,603.5923017003882,460.03705456555076,3539.8189217675263,131.6071027750766,Vision,Movement,4
0.217,0.013712055175420262,0.013222788781604048,78.00988125162522,69.74872574443351,-0.2285629511607352,6.174009147971817,0.004138300668937448,0.005015768989484088,0.009228143048961227,0.0039952345819036315,-520.7160613720932,3616.08064764943,603.664804983076,460.13447896669584,3539.9151536737654,131.64809472220986,Vision,Movement,4
0.218,0.01371204256804078,0.01322287592234583,78.00988125162522,69.74872574443351,-0.22719742770608053,6.195741307047622,0.004143094608820325,0.005074974655503787,0.009392055651921685,0.004017006330794063,-520.7467180306687,3616.1768523213696,603.7373082657639,460.2283177980282,3540.00522595224,131.68864022944283,Vision,Movement,4
0.219,0.013712031509601937,0.01322296529810261,78.00988125162522,69.74872574443351,-0.2258307446129838,6.217483711809947,0.004150693785217025,0.0051502758224416575,0.009541062608415017,0.00404030071747706,-520.7575344859052,3616.22587644424,603.808480511667,460.29095798627446,3540.041702278551,131.72530118837938,Vision,Movement,4
0.22,0.013712022189678241,0.013223057321473298,78.00988125162522,69.74872574443351,-0.22446292411435562,6.239236101390632,0.004161325804954182,0.005240197163394754,0.009673527584696697,0.004064786461429612,-520.7682605454231,3616.2746856036056,603.8796466931149,460.3535981745208,3540.0781786048624,131.76196214731596,Vision,Movement,4
0.221,0.013712014808285402,0.01322315242679784,78.00988125162522,69.74872574443351,-0.22309398849959078,6.260998214590858,0.004175184149107879,0.005343308136293202,0.00978825676780356,0.004090123563416849,-520.778986604941,3616.323494762971,603.9508128745626,460.4162383627671,3540.1146549311734,131.79862310625253,Vision,Movement,4
0.222,0.013712009576024675,0.013223251068721308,78.00988125162522,69.74872574443351,-0.22172396012386697,6.28276978996181,0.0041924208683991404,0.005458238325800876,0.009884484957649002,0.00411596812946538,-520.7897126644589,3616.372303922337,604.0219790560104,460.4788785510134,3540.1511312574844,131.83528406518911,Vision,Movement,4
0.223,0.013712006714197868,0.013223353720710401,78.00988125162522,69.74872574443351,-0.2203528613950304,6.3045505657913585,0.004213139527027849,0.005583690267435211,0.009961855409211955,0.004141976760176898,-520.8004387239768,3616.421113081703,604.0931452374582,460.54151873925974,3540.187607583796,131.87194502412567,Vision,Movement,4
0.224,0.013712006454887512,0.013223460873515534,78.00988125162522,69.74872574443351,-0.21898071478313672,6.326340280095759,0.004237388989172532,0.00571845003805068,0.010020394975872985,0.004167810489689942,-520.8111647834946,3616.4699222410686,604.164311418906,460.60415892750603,3540.224083910107,131.90860598306224,Vision,Movement,4
0.225,0.01371200904100177,0.013223573033568773,78.00988125162522,69.74872574443351,-0.21760754281174194,6.348138670695353,0.004265158537279616,0.0058613958172591095,0.010060486041214445,0.004193138289572746,-520.8218908430125,3616.5187314004343,604.2354776003539,460.6667991157524,3540.2605602364183,131.94526694199882,Vision,Movement,4
0.226,0.013712014726277122,0.013223690721313346,78.00988125162522,69.74872574443351,-0.2162333680618991,6.369945475112199,0.004296374652904277,0.006011504527798527,0.010082836622554029,0.00421764019389217,-520.8326169025304,3616.5675405598004,604.3066437818017,460.7294393039987,3540.2970365627293,131.9819279009354,Vision,Movement,4
0.227,0.013712023775237881,0.013223814469453697,78.00988125162522,69.74872574443351,-0.2148582131702944,6.391760430650801,0.004330899612856627,0.0061678566281808695,0.010088449877299671,0.004241010122963354,-520.8433429620483,3616.616349719166,604.3778099632494,460.79207949224497,3540.333512889041,132.01858885987195,Vision,Movement,4
0.228,0.013712036463106385,0.01322394482112003,78.00988125162522,69.74872574443351,-0.2134821008284995,6.413583274385791,0.00436853188768015,0.006329639132521952,0.01007859401847871,0.004262958459729457,-520.8540690215661,3616.6651588785317,604.4489761446972,460.8547196804913,3540.369989215352,132.05524981880853,Vision,Movement,4
0.229,0.013712053075661743,0.013224082327938464,78.00988125162522,69.74872574443351,-0.21210505378135658,6.435413743167368,0.0044090082011613175,0.006496146913989583,0.010054773345607039,0.0042832143926462,-520.864795081084,3616.7139680378978,604.5201423261451,460.9173598687376,3540.406465541663,132.0919107777451,Vision,Movement,4
0.23,0.013712073909041316,0.013224227547997725,78.00988125162522,69.74872574443351,-0.210727094830716,6.45725157361312,0.004452007027162871,0.006666782260404355,0.01001870073586657,0.004301528034179398,-520.8755211406019,3616.7627771972634,604.5913085075929,460.98000005698395,3540.4429418679742,132.1285717366817,Vision,Movement,4
0.231,0.01371209926948051,0.01322438104370483,78.00988125162522,69.74872574443351,-0.2093482468287373,6.4790965021836,0.004497153266736173,0.00684105251477751,0.009972271569273756,0.004317672379681721,-520.8862472001198,3616.811586356629,604.6624746890407,461.04264024523025,3540.4794181942852,132.16523269561824,Vision,Movement,4
0.232,0.013712129472987838,0.01322454337952019,78.00988125162522,69.74872574443351,-0.20796853267652513,6.500948265079998,0.00454402385179422,0.0070185654801333056,0.00991753874359552,0.004331445251658084,-520.8969732596378,3616.860395515995,604.7336408704884,461.1052804334766,3540.5158945205967,132.20189365455482,Vision,Movement,4
0.233,0.013712164844948537,0.01322471511956382,78.00988125162522,69.74872574443351,-0.20658797533254822,6.522806598323841,0.004592154038974203,0.007199022150827182,0.009856688228653928,0.004342671415997883,-520.9076993191557,3616.909204675361,604.8048070519363,461.1679206217229,3540.5523708469077,132.2385546134914,Vision,Movement,4
0.234,0.013712205719653361,0.01322489682508429,78.00988125162522,69.74872574443351,-0.20520659780473854,6.544671237730053,0.004641044175945184,0.00738220630680908,0.00979201457008805,0.004351205019481966,-520.9184253786735,3616.9580138347264,604.8759732333841,461.2305608099692,3540.588847173219,132.27521557242798,Vision,Movement,4
0.23500000000000001,0.013712252439745805,0.01322508905177996,78.00988125162522,69.74872574443351,-0.20382442314879198,6.5665419189824386,0.004690166762691858,0.007567970626166205,0.009725895870670213,0.0043569323950164145,-520.9288306674644,3617.0196107007287,604.9487647866483,461.2932009982155,3540.62532349953,132.31187653136453,Vision,Movement,4
0.23600000000000002,0.013712305355584618,0.013225292346965943,78.00988125162522,69.74872574443351,-0.20244147447096134,6.588418377531416,0.004738973715165617,0.007756219281952394,0.009660767963563981,0.004359775156482023,-520.9389652177275,3617.0920007114228,605.0229281944358,461.3558411864618,3540.661799825841,132.3485374903011,Vision,Movement,4
0.23700000000000002,0.013712364824514836,0.013225507246576996,78.00988125162522,69.74872574443351,-0.20105777492615579,6.610300348674767,0.004786903827132985,0.007946887413237418,0.009599097609319793,0.004359693405873719,-520.9490997679906,3617.164390722117,605.0970916022234,461.41848137470816,3540.6982761521526,132.3851984492377,Vision,Movement,4
0.23800000000000002,0.013712431210041818,0.013225734271997198,78.00988125162522,69.74872574443351,-0.19967334771722514,6.632187567545292,0.0048333904594442395,0.0081399182625501,0.009543354540134772,0.004356688817457209,-520.9592343182536,3617.236780732811,605.171255010011,461.48112156295446,3540.7347524784636,132.42185940817427,Vision,Movement,4
0.23900000000000002,0.013712504880903415,0.013225973926709959,78.00988125162522,69.74872574443351,-0.19828821609417388,6.654079769116222,0.004877869457896678,0.008335239069869545,0.009495982088699277,0.004350807335408814,-520.9693688685167,3617.309170743505,605.2454184177985,461.5472401072983,3540.7579559376322,132.46672989834641,Vision,Movement,4
0.24,0.013712586210034806,0.01322622669275777,78.00988125162522,69.74872574443351,-0.1969024033525217,6.675976688193203,0.0049197872581175995,0.008532736995013435,0.009459366094969711,0.004342141210614351,-520.9795034187797,3617.381560754199,605.3195818255862,461.6197903453982,3540.756617051413,132.52678031527324,Vision,Movement,4
0.241,0.013712675573419084,0.013226493027006413,78.00988125162522,69.74872574443351,-0.1955159328370054,6.697878059489612,0.004958609127743075,0.00873223640245771,0.009435801848326248,0.004330830110212724,-520.9896379690427,3617.4539507648933,605.3937452333737,461.69234058349804,3540.7552781651934,132.5868307322001,Vision,Movement,4
0.242,0.013712773348818536,0.013226773357204229,78.00988125162522,69.74872574443351,-0.1941288279348206,6.71978361752437,0.00499382752918235,0.0089334787651517,0.009427458981382973,0.004317061055952356,-520.9997725193059,3617.5263407755874,605.4679086411612,461.76489082159793,3540.753939278974,132.64688114912693,Vision,Movement,4
0.243,0.013712879914381339,0.013227068077829984,78.00988125162522,69.74872574443351,-0.19274111207425068,6.741693096702679,0.005024970627949924,0.009136106226949246,0.009436344448694492,0.00430106697518023,-521.009907069569,3617.5987307862815,605.5420720489489,461.83744105969777,3540.752600392755,132.70693156605375,Vision,Movement,4
0.244,0.013712995647116255,0.013227377545722774,78.00988125162522,69.74872574443351,-0.19135280873306104,6.763606231302548,0.005051610997063389,0.00933964959335075,0.009464263988659894,0.004283123693956819,-521.020041619832,3617.6711207969756,605.6162354567364,461.9099912977976,3540.7512615065357,132.7669819829806,Vision,Movement,4
0.245,0.013713120921231158,0.013227702075488094,78.00988125162522,69.74872574443351,-0.18996394143053752,6.785522755466881,0.005073374558644373,0.009543521276608118,0.009512782744392474,0.004263545286331202,-521.030176170095,3617.7435108076697,605.690398864524,461.9825415358975,3540.7499226203163,132.82703239990744,Vision,Movement,4
0.246,0.013713256106328448,0.01322804193467357,78.00988125162522,69.74872574443351,-0.1885745337257625,6.807442403278599,0.005089949740063007,0.00974701352664778,0.009583185942115609,0.004242677810784619,-521.0403107203581,3617.815900818364,605.7645622723115,462.05509177399733,3540.748583734097,132.8870828168343,Vision,Movement,4
0.247,0.013713401565450915,0.01322839733871088,78.00988125162522,69.74872574443351,-0.1871846092203827,6.829364908658593,0.0051010967039565,0.009949302138035002,0.009676440660710574,0.004220891579795911,-521.0504452706211,3617.888290829058,605.8387256800991,462.1276420120972,3540.7472448478775,132.94713323376112,Vision,Movement,4
0.248,0.013713557652974764,0.013228768445617694,78.00988125162522,69.74872574443351,-0.18579419155667182,6.851290005446382,0.005106656360490372,0.010149455676585114,0.009793159837278754,0.004198572198829065,-521.0605798208842,3617.960680839752,605.9128890878867,462.20019225019706,3540.7459059616585,133.00718365068795,Vision,Movement,4
0.249,0.013713724712341386,0.013229155350458916,78.00988125162522,69.74872574443351,-0.18440330441671204,6.873217427387754,0.00510655871636764,0.010346450081856362,0.009933569798545493,0.004176110683807414,-521.0707143711473,3618.0330708504466,605.9870524956742,462.27274248829696,3540.744567075439,133.0672340676148,Vision,Movement,4
0.25,0.013713903073623442,0.013229558079561957,78.00988125162522,69.74872574443351,-0.18301197152073728,6.895146908140088,0.005100829987011238,0.010539188281327659,0.010097482768889771,0.00415389302356448,-521.0808489214104,3618.1054608611407,606.0612159034619,462.3452927263968,3540.7432281892197,133.12728448454163,Vision,Movement,4
0.251,0.013714093050920749,0.013229976584487478,78.00988125162522,69.74872574443351,-0.18162021663072517,6.917078181264546,0.005089597844704461,0.0107265242299789,0.010284275898671254,0.004132289588390689,-521.0943998000826,3618.190582601027,606.1370439095363,462.41784296449663,3540.7418893030003,133.1873349014685,Vision,Movement,4
0.252,0.013714294939579664,0.013230410735752202,78.00988125162522,69.74872574443351,-0.18022806354283907,6.939010980300931,0.0050730942456664865,0.010907290616668548,0.010492878314570932,0.004111644792483736,-521.1428685953597,3618.405833943499,606.2298855914643,462.46120761631414,3540.7302772922067,133.2255924722408,Vision,Movement,4
0.253,0.013714509013231218,0.01323086031630716,78.00988125162522,69.74872574443351,-0.17883553609220365,6.960945038665831,0.005051655456941653,0.011080329338942369,0.010721767471175358,0.0040922674034657765,-521.1913373906369,3618.6210852859713,606.3227272733923,462.5013200631306,3540.7175205277385,133.26142162500693,Vision,Movement,4
0.254,0.013714735520644113,0.01323132501477169,78.00988125162522,69.74872574443351,-0.17744265814563506,6.982880089733161,0.005025719101361636,0.011244523688079437,0.010968975699213549,0.004074421853628916,-521.2398061859142,3618.8363366284434,606.4155689553203,462.5414325099471,3540.704763763271,133.29725077777306,Vision,Movement,4
0.255,0.013714974682387578,0.013231804418427529,78.00988125162522,69.74872574443351,-0.17604945361118823,7.004815866820623,0.004995818189181317,0.01139883092907674,0.011232107344925952,0.004058320841644102,-521.2882749811913,3619.051587970915,606.5084106372484,462.58154495676354,3540.692006998803,133.33307993053916,Vision,Movement,4
0.256,0.013715226687300797,0.0132322980059776,78.00988125162522,69.74872574443351,-0.17465594643015306,7.026752103182004,0.0049625722207287375,0.011542313703156922,0.011508366388905403,0.004044119426099351,-521.3367437764686,3619.266839313387,606.6012523191764,462.62165740358,3540.6792502343355,133.36890908330528,Vision,Movement,4
0.257,0.013715491688764772,0.013232805140075677,78.00988125162522,69.74872574443351,-0.17326216057531205,7.048688532081797,0.004926675585311441,0.01167416855602811,0.011794593985375905,0.004031910716244833,-521.3852125717457,3619.4820906558593,606.6940940011044,462.66176985039647,3540.666493469868,133.4047382360714,Vision,Movement,4
0.258,0.013715769800774583,0.0132333250596351,78.00988125162522,69.74872574443351,-0.17186812005367771,7.0706248866935155,0.004888883660268847,0.011793750052277533,0.012087315008997174,0.004021723162596929,-521.4336813670229,3619.6973419983315,606.7869356830324,462.70188229721293,3540.6537367054,133.4405673888375,Vision,Movement,4
0.259,0.013716061093808862,0.01323385687192741,78.00988125162522,69.74872574443351,-0.17047384890452563,7.092560900180117,0.00484999718477495,0.011900589328167233,0.012382792427620925,0.004013519358437098,-521.4821501623001,3619.9125933408036,606.8797773649604,462.7419947440294,3540.640979940932,133.47639654160363,Vision,Movement,4
0.26,0.013716365590495177,0.013234399544481445,78.00988125162522,69.74872574443351,-0.1690793711985437,7.114496305681613,0.004810845578268208,0.011994406358671944,0.01267708803615701,0.004007196222546281,-521.5306189575773,3620.1278446832753,606.9726190468886,462.7821071908458,3540.6282231764644,133.51222569436976,Vision,Movement,4
0.261,0.013716683261070308,0.013234951896797747,78.00988125162522,69.74872574443351,-0.16768471103616092,7.136430836320295,0.00477226985554475,0.012075115452229853,0.012966127795847186,0.00400258644937157,-521.5790877528544,3620.3430960257474,607.0654607288166,462.8222196376623,3540.6154664119967,133.54805484713586,Vision,Movement,4
0.262,0.013717014018634462,0.013235512591893544,78.00988125162522,69.74872574443351,-0.16628989255108972,7.15836422519311,0.004735105682361767,0.012142823527517558,0.013245769804815843,0.0039994611463796455,-521.6275565481317,3620.5583473682195,607.1583024107446,462.86233208447874,3540.602709647529,133.58388399990199,Vision,Movement,4
0.263,0.01371735771420035,0.01323608012769831,78.00988125162522,69.74872574443351,-0.16489493990268372,7.1802962054459725,0.004700166980912786,0.01219782082051562,0.013511872928119152,0.003997533602990324,-521.6760253434089,3620.7735987106917,607.2511440926726,462.9024445312952,3540.5899528830614,133.6197131526681,Vision,Movement,4
0.264,0.01371771413153931,0.01323665282831877,78.00988125162522,69.74872574443351,-0.16349987727985113,7.202226510172332,0.004668230390060778,0.012240564054975733,0.013760364335774114,0.00399646417009505,-521.724494138686,3620.9888500531633,607.3439857746006,462.94255697811167,3540.5771961185933,133.6555423054342,Vision,Movement,4
0.265,0.013718082981824505,0.013237228835198353,78.00988125162522,69.74872574443351,-0.1621047288989968,7.224154872492201,0.004640020803669268,0.012271652761896148,0.013987304500501991,0.003995866286755514,-521.7729629339633,3621.2041013956355,607.4368274565286,462.98266942492813,3540.5644393541256,133.69137145820034,Vision,Movement,4
0.266,0.013718463898077422,0.013237806098196109,78.00988125162522,69.74872574443351,-0.1607095190023471,7.246081025525844,0.004616198122128908,0.012291800078319919,0.014188948431808355,0.003995313740254318,-521.8214317292404,3621.4193527381076,607.5296691384567,463.0227818717446,3540.551682589658,133.72720061096646,Vision,Movement,4
0.267,0.01371885642942009,0.013238382366615188,78.00988125162522,69.74872574443351,-0.15931427186146757,7.26800470246786,0.004597345255059903,0.012301799743730591,0.01436180212198033,0.003994349242759472,-521.8699005245177,3621.6346040805797,607.6225108203847,463.06289431856106,3540.5389258251903,133.76302976373256,Vision,Movement,4
0.268,0.013719260035139185,0.013238955180211669,78.00988125162522,69.74872574443351,-0.1579190117696212,7.2899256364859335,0.004583957353798823,0.01230249105858143,0.014502673421224778,0.003992494336588923,-521.9236936335985,3621.8471073155674,607.696193287936,463.101573307388,3540.530701424788,133.79647472569195,Vision,Movement,4
0.269,0.013719674078570509,0.013239521860219953,78.00988125162522,69.74872574443351,-0.15652376304566523,7.3118435608009245,0.004576432282923214,0.012294723344503619,0.014608716871433353,0.003989260517499517,-521.9805346891627,3622.0580373742073,607.7589079083178,463.13687662504833,3540.5331503547545,133.82430512188066,Vision,Movement,4
0.27,0.013720097820809797,0.013240079500432383,78.00988125162522,69.74872574443351,-0.15512855003205966,7.333758208674467,0.004575062472227656,0.012279321101277189,0.014677472308326332,0.003984161328252525,-522.0373757447269,3622.2689674328476,607.8216225286997,463.1721799427086,3540.5355992847212,133.85213551806933,Vision,Movement,4
0.271,0.013720530414261706,0.013240624958374815,78.00988125162522,69.74872574443351,-0.15373339709398925,7.355669313414069,0.004580028473465546,0.012257050756332977,0.014706897251466948,0.003976725057851907,-522.094216800291,3622.4798974914875,607.8843371490815,463.207483260369,3540.538048214688,133.87996591425804,Vision,Movement,4
0.272,0.013720970896038258,0.013241154846624007,78.00988125162522,69.74872574443351,-0.15233832861768348,7.3775766083656755,0.0045913946808314125,0.012228589768033789,0.014695393240528955,0.00396650760125425,-522.1510578558551,3622.690827550128,607.9470517694633,463.2427865780293,3540.540497144654,133.90779631044674,Vision,Movement,4
0.273,0.013721418181219119,0.013241665524315355,78.00988125162522,69.74872574443351,-0.15094336901390357,7.399479826987343,0.004609107697031528,0.012194498894781509,0.014641826356185715,0.003953104994186156,-522.2078989114193,3622.9017576087676,608.0097663898451,463.2780898956897,3540.542946074621,133.93562670663542,Vision,Movement,4
0.274,0.013721871055989411,0.013242153088894305,78.00988125162522,69.74872574443351,-0.14954854271030726,7.421378702748327,0.004632997745232175,0.012155198600061796,0.014545542130679066,0.003936165145928884,-522.2647399669834,3623.112687667408,608.072481010227,463.31339321334997,3540.5453950045876,133.96345710282412,Vision,Movement,4
0.275,0.013722328170671858,0.01324261336816702,78.00988125162522,69.74872574443351,-0.14815387415532297,7.443272969208913,0.00466278337826388,0.012110950706352376,0.014406374878151506,0.003915398347637002,-522.3215810225475,3623.323617726048,608.1351956306088,463.3486965310103,3540.547843934554,133.9912874990128,Vision,Movement,4
0.276,0.01372278803267204,0.013243041912712816,78.00988125162522,69.74872574443351,-0.1467593878160697,7.465162360006749,0.004698079554722262,0.01206184642601263,0.01422465125230584,0.003890586211977117,-522.3784220781116,3623.534547784688,608.1979102509906,463.38399984867067,3540.5502928645205,134.0191178952015,Vision,Movement,4
0.277,0.013723248999358575,0.013243433988722507,78.00988125162522,69.74872574443351,-0.14536510817667525,7.487046608849494,0.004738408969727872,0.01200780173774007,0.014001187705050221,0.003861588776755768,-522.4352631336758,3623.745477843328,608.2606248713724,463.419303166331,3540.5527417944872,134.0469482913902,Vision,Movement,4
0.278,0.013723709270899637,0.013243784571331131,78.00988125162522,69.74872574443351,-0.1439710597417363,7.50892544958815,0.004783216383618044,0.011948560761905789,0.013737281528159619,0.0038283495852902655,-522.49210418924,3623.956407901968,608.3233394917543,463.4546064839913,3540.555190724454,134.07477868757888,Vision,Movement,4
0.279,0.013724166883083953,0.013244088338521339,78.00988125162522,69.74872574443351,-0.14257726702869183,7.530798616116448,0.004831885600692736,0.011883707379078312,0.01343469524421716,0.0037908986543356156,-522.548945244804,3624.167337960608,608.3860541121361,463.48990980165166,3540.55763965442,134.1026090837676,Vision,Movement,4
0.28,0.013724619700152433,0.013244339665672676,78.00988125162522,69.74872574443351,-0.14118375457167873,7.552665842450434,0.004883758689668837,0.011812684891229646,0.013095634150219368,0.003749353350505463,-522.6057863003682,3624.378268019248,608.4487687325179,463.525213119312,3540.560088584387,134.13043947995627,Vision,Movement,4
0.281,0.013725065407671395,0.013244532620842681,78.00988125162522,69.74872574443351,-0.13979054691952386,7.574526862716056,0.004938156985599503,0.01173482306395364,0.012722716837860245,0.003703917304013611,-522.6626273559324,3624.5891980778883,608.5114833528997,463.56051643697236,3540.5625375143536,134.15826987614497,Vision,Movement,4
0.28200000000000003,0.013725501505482,0.01324466096086488,78.00988125162522,69.74872574443351,-0.1383976686348411,7.5963814111541055,0.004994403364888354,0.011649371443882731,0.01231893864670374,0.0036548775712733437,-522.7194684114965,3624.800128136528,608.5741979732816,463.59581975463266,3540.56498644432,134.18610027233368,Vision,Movement,4
0.28300000000000003,0.013725925300759842,0.013244718128358177,78.00988125162522,69.74872574443351,-0.13700514429234903,7.6182292221129675,0.005051845248920933,0.011555537483034176,0.011887628401285774,0.003602600295051755,-522.7763094670606,3625.0110581951685,608.6369125936634,463.631123072293,3540.5674353742866,134.21393066852235,Vision,Movement,4
0.28400000000000003,0.013726333901225293,0.013244697249743982,78.00988125162522,69.74872574443351,-0.13561299848229794,7.640070030121494,0.005109877743540388,0.011452527799959443,0.011432399356087919,0.0035475250924969135,-522.8331505226248,3625.2219882538084,608.6996272140452,463.66642638995336,3540.5698843042533,134.24176106471106,Vision,Movement,4
0.28500000000000003,0.013726724208546735,0.013244591134372761,78.00988125162522,69.74872574443351,-0.13422125580285849,7.661903569788783,0.0051679662361336825,0.011339590859537223,0.010957095779949057,0.0034901583556897616,-522.8899915781889,3625.4329183124487,608.762341834427,463.70202911378345,3540.5859958772717,134.2675157121127,Vision,Movement,4
0.28600000000000003,0.013727092911979783,0.013244392274868491,78.00988125162522,69.74872574443351,-0.1328299408639533,7.6837295758821424,0.005225667657198819,0.011216059371992866,0.01046573681917145,0.003431065623198866,-522.946832633753,3625.6438483710886,608.8250564548089,463.73776236556427,3540.608063763079,134.29236542413705,Vision,Movement,4
0.28700000000000003,0.013727436482293465,0.013244092848802486,78.00988125162522,69.74872574443351,-0.131439078285159,7.705547783301311,0.005282649518098624,0.011081390716654314,0.009962459251288778,0.003370863217714811,-523.0036736893172,3625.854778429729,608.8877710751907,463.773495617345,3540.6301316488857,134.31721513616142,Vision,Movement,4
0.28800000000000003,0.013727751166032842,0.013243684721812438,78.00988125162522,69.74872574443351,-0.1300486926940249,7.727357927151027,0.00533870580898904,0.010935203730549004,0.009451460603822718,0.003310209431483558,-523.0605147448813,3626.0657084883687,608.9504856955725,463.8092288691258,3540.6521995346925,134.34206484818577,Vision,Movement,4
0.289,0.013728032980174436,0.013243159452290999,78.00988125162522,69.74872574443351,-0.12865880872947033,7.749159742641073,0.005393768941194883,0.010777310341192494,0.008936944025059762,0.0032497956276442315,-523.1173558004455,3626.276638547009,609.0132003159544,463.84496212090653,3540.6742674204993,134.36691456021015,Vision,Movement,4
0.29,0.013728277707232141,0.013242508297768234,78.00988125162522,69.74872574443351,-0.12726945103419166,7.770952965165311,0.005447917162742921,0.010607740807790646,0.008423066183450168,0.0031903376440674245,-523.1741968560096,3626.487568605649,609.0759149363362,463.8806953726873,3540.696335306306,134.3917642722345,Vision,Movement,4
0.291,0.013728480890875954,0.013241722223121038,78.00988125162522,69.74872574443351,-0.1258806442584714,7.792737330289246,0.005501377174847455,0.010426761761342124,0.007913889311888567,0.003132567824994157,-523.2310379115737,3626.698498664289,609.138629556718,463.91642862446804,3540.718403192113,134.41661398425887,Vision,Movement,4
0.292,0.013728637832129935,0.013240791910745333,78.00988125162522,69.74872574443351,-0.12449241305815956,7.814512573754825,0.005554521887738537,0.010234886705937835,0.007413338230504486,0.0030772278854137853,-523.2878789671379,3626.909428722929,609.2013441770998,463.95216187624885,3540.7404710779197,134.44146369628322,Vision,Movement,4
0.293,0.013728743586217297,0.013239707772831264,78.00988125162522,69.74872574443351,-0.12310478209375118,7.8362784314733265,0.00560786330976713,0.010032879025230293,0.0069251628623003365,0.003025062676075415,-523.3447200227021,3627.1203587815694,609.2640587974817,463.9878951280296,3540.7625389637265,134.4663134083076,Vision,Movement,4
0.294,0.013728792960128038,0.013238459965887841,78.00988125162522,69.74872574443351,-0.1217177760287074,7.858034639597425,0.00566204057933734,0.009821747709301049,0.006452906447323703,0.002976814791732979,-523.4015610782661,3627.3312888402093,609.3267734178635,464.02362837981036,3540.7846068495332,134.49116312033195,Vision,Movement,4
0.295,0.013728780510983715,0.013237038407664818,78.00988125162522,69.74872574443351,-0.12033141953281694,7.879780934421697,0.005717803303205718,0.009602736054860684,0.005999879427725229,0.0029332198777921926,-523.4584021338303,3627.5422188988496,609.3894880382453,464.0593616315911,3540.80667473534,134.51601283235632,Vision,Movement,4
0.296,0.013728700545282604,0.01323543279662685,78.00988125162522,69.74872574443351,-0.11894573727462879,7.901517052461265,0.005775990714253854,0.009377303697310166,0.005569138818401005,0.002895002448590587,-523.5152431893945,3627.7531489574894,609.4522026586271,464.09509488337187,3540.828742621147,134.54086254438067,Vision,Movement,4
0.297,0.013728547119108456,0.01323363263413533,78.00988125162522,69.74872574443351,-0.11756075392523409,7.92324273043802,0.00583750756133463,0.009147102658973855,0.005163472842430679,0.002862872019450508,-523.6337678585438,3628.1660778265464,609.5630916236044,464.1308281351526,3540.8508105069536,134.56571225640505,Vision,Movement,4
0.298,0.013728314039392333,0.013231627249499986,78.00988125162522,69.74872574443351,-0.11617649415615884,7.944957705273607,0.005903297893149961,0.008913948548967935,0.004785390601929549,0.0028375193284824805,-523.7637895635798,3628.616656687837,609.6829596696768,464.16656138693344,3540.8728783927604,134.5905619684294,Vision,Movement,4
0.299,0.013727994866320118,0.013229405828062448,78.00988125162522,69.74872574443351,-0.11479298263768811,7.966661714161032,0.005974317904232359,0.00867978842560171,0.004437116544316345,0.002819612363668166,-523.8938112686159,3629.0672355491274,609.8028277157493,464.2022946387142,3540.894946278567,134.61541168045378,Vision,Movement,4
0.3,0.013727582916981868,0.01322695744247935,78.00988125162522,69.74872574443351,-0.11341024404219675,7.9883544944655664,0.0060515088444623695,0.008446666942971482,0.0041205894331560675,0.00280979183594284,-524.0238329736518,3629.517814410418,609.9226957618218,464.23802789049495,3540.917014164374,134.64026139247812,Vision,Movement,4
0.301,0.013727071270363564,0.01322427108737187,78.00988125162522,69.74872574443351,-0.11202830303660827,8.010035783803046,0.0061357707813028,0.008216692251567901,0.0038374654256519473,0.002808665701410144,-524.1538546786878,3629.968393271708,610.0425638078943,464.2740585731441,3540.9401487563464,134.66464318883132,Vision,Movement,4
0.302,0.013726452773785942,0.013221335717513227,78.00988125162522,69.74872574443351,-0.1106471842861519,8.03170532002743,0.00622793782847861,0.007992002845129385,0.0035891247582295026,0.0028168023894412798,-524.2838763837239,3630.4189721329985,610.1624318539668,464.31293159820166,3540.97347712608,134.68455343667628,Vision,Movement,4
0.303,0.013725720050897018,0.013218140289725153,78.00988125162522,69.74872574443351,-0.10926691245242688,8.053362841235403,0.006328755334961399,0.007774736237016005,0.003376681450477585,0.0028347225585381706,-524.4138980887598,3630.869550994289,610.2822999000393,464.3518046232592,3541.0068054958133,134.70446368452127,Vision,Movement,4
0.304,0.013724865511330807,0.013214673808655212,78.00988125162522,69.74872574443351,-0.10788751219319907,8.075008085759448,0.006438859425414811,0.007567000088206748,0.003200995410725899,0.0028628894530166446,-524.5439197937958,3631.320129855579,610.4021679461118,464.3906776483168,3541.040133865547,134.72437393236623,Vision,Movement,4
0.305,0.013723881362146959,0.01321092537660683,78.00988125162522,69.74872574443351,-0.10650900815576263,8.096640792238876,0.0065587591882515185,0.007370846181648342,0.0030626863506029276,0.0029016981892653016,-524.6739414988318,3631.7707087168696,610.5220359921843,464.42955067337437,3541.07346223528,134.74428418021122,Vision,Movement,4
0.306,0.01372275962116939,0.013206884247593724,78.00988125162522,69.74872574443351,-0.10513142499103556,8.118260699521278,0.006688821734815473,0.007188247438691113,0.0029621489734041355,0.0029514644631924727,-524.8039632038679,3632.22128757816,610.6419040382568,464.46842369843193,3541.106790605014,134.7641944280562,Vision,Movement,4
0.307,0.013721492132345156,0.013202539885788227,78.00988125162522,69.74872574443351,-0.10375478733481806,8.139867546740334,0.0068292603429465065,0.007021077974749229,0.002899568953616236,0.0030124132019237067,-524.9339849089038,3632.6718664394507,610.7617720843293,464.5072967234895,3541.140118974747,134.78410467590115,Vision,Movement,4
0.308,0.013720070583248546,0.013197882028530814,78.00988125162522,69.74872574443351,-0.10237911981718004,8.161461073302005,0.006980125905965646,0.0068710960577196695,0.0028749392704897616,0.0030846676199860045,-525.0640066139398,3633.1224453007408,610.8816401304018,464.5461697485471,3541.173447344481,134.80401492374614,Vision,Movement,4
0.309,0.013718486524856825,0.013192900754064553,78.00988125162522,69.74872574443351,-0.1010044470584614,8.183041018877683,0.007141301906209575,0.006739929720215811,0.002888076486175846,0.003168239054039139,-525.1940283189758,3633.5730241620313,611.0015081764743,464.5850427736047,3541.206775714214,134.8239251715911,Vision,Movement,4
0.31,0.013716731393727588,0.013187586554155107,78.00988125162522,69.74872574443351,-0.09963079367253834,8.204607123474721,0.007312503031498467,0.006629064729938037,0.002938636592508629,0.00326301787574474,-525.3240500240117,3634.023603023322,611.1213762225468,464.62391579866227,3541.2401040839477,134.8438354194361,Vision,Movement,4
0.311,0.013714796536709113,0.013181930411749422,78.00988125162522,69.74872574443351,-0.0982581842593459,8.226159127338333,0.007493277385148555,0.006539834598325598,0.0030261300739002116,0.0033687657258593515,-525.4263181015244,3634.39591746195,611.220015268426,464.66278882371984,3541.273432453681,134.86374566728105,Vision,Movement,4
0.312,0.01371267323831686,0.013175923883822932,78.00988125162522,69.74872574443351,-0.09688664340858344,8.247696771029025,0.007683012038137277,0.006473412330582099,0.003149935823879063,0.0034851092854543894,-525.494163412788,3634.671160700619,611.292324029706,464.7016618487774,3541.3067608234146,134.883655915126,Vision,Movement,4
0.313,0.013710352750911915,0.013169559189553069,78.00988125162522,69.74872574443351,-0.0955161956976943,8.269219795410145,0.007880941495921999,0.006430803679290803,0.0033093134934420077,0.0036115357963009223,-525.5620087240516,3634.946403939288,611.364632790986,464.740534873835,3541.340089193148,134.903566162971,Vision,Movement,4
0.314,0.01370782632781539,0.013162829303953434,78.00988125162522,69.74872574443351,-0.09414686569092014,8.290727941652275,0.008086158510084089,0.006412841771949921,0.0035034137623642858,0.0037473905559580437,-525.6298540353152,3635.221647177957,611.436941552266,464.77940789889254,3541.3734175628815,134.92347641081597,Vision,Movement,4
0.315,0.01370508525949705,0.013155728057086683,78.00988125162522,69.74872574443351,-0.09277867793764416,8.31222095122647,0.008297626606970638,0.006420183107315859,0.003731285957590234,0.0038918766135293942,-525.6976993465788,3635.4968904166262,611.5092503135461,464.8182809239501,3541.4067459326147,134.94338665866096,Vision,Movement,4
0.316,0.013702120912972664,0.01314825023896799,78.00988125162522,69.74872574443351,-0.0914116569756172,8.333698565974162,0.008514193760697335,0.006453304989938506,0.003991882465719169,0.004044056870053441,-525.7655446578425,3635.772133655295,611.581559074826,464.8571539490077,3541.4400743023484,134.96329690650592,Vision,Movement,4
0.317,0.013698924774547112,0.013140391710252467,78.00988125162522,69.74872574443351,-0.09004582732352523,8.355160528009652,0.008734606785864083,0.006512504430454661,0.004284059541069743,0.004202858741525665,-525.8333899691061,3636.047376893964,611.6538678361061,464.89602697406525,3541.4734026720816,134.9832071543509,Vision,Movement,4
0.318,0.01369548849603639,0.01313214951879024,78.00988125162522,69.74872574443351,-0.08868121348466183,8.376606579795592,0.008957526187482794,0.006597898399772417,0.004606574395148298,0.0043670814902560815,-525.9012352803696,3636.3226201326333,611.7261765973861,464.937580700236,3541.5088868072007,134.9985131776024,Vision,Movement,4
0.319,0.013691803944601786,0.013123522022110354,78.00988125162522,69.74872574443351,-0.08731783994482317,8.39803646411814,0.009181541384610255,0.006709425192352559,0.004958078756352136,0.004535406266641119,-525.9690805916333,3636.597863371302,611.7984853586661,464.9818905914439,3541.5465873942594,135.00908536358085,Vision,Movement,4
0.32,0.013687863256326909,0.013114509015881662,78.00988125162522,69.74872574443351,-0.0859557311706604,8.419449924156416,0.009405186413133941,0.006846846620623694,0.005337109333903445,0.00470640885304205,-526.0369259028969,3636.8731066099713,611.8707941199461,465.0262004826518,3541.584287981318,135.0196575495593,Vision,Movement,4
0.321,0.013683658893662133,0.013105111868374783,78.00988125162522,69.74872574443351,-0.08459491161287122,8.440846703385406,0.009626956379943182,0.007009750843560217,0.005742075731276604,0.004878575048040912,-526.1047712141605,3637.1483498486405,611.9431028812261,465.0705103738597,3541.621988568377,135.03022973553774,Vision,Movement,4
0.322,0.013679183706861397,0.013095333660928288,78.00988125162522,69.74872574443351,-0.08323540569881004,8.462226545652506,0.009845324983323345,0.00719755576198803,0.00617124638523704,0.005050318577167143,-526.1726165254241,3637.4235930873097,612.0154116425061,465.1148202650676,3541.659689155436,135.0408019215162,Vision,Movement,4
0.323,0.013674430999526293,0.013085179334396872,78.00988125162522,69.74872574443351,-0.08187723783613138,8.483589195165077,0.010058763279136226,0.007409512985216839,0.006622733074401191,0.005220001342915939,-526.2404618366877,3637.6988363259784,612.0877204037862,465.15913015627547,3541.6973897424946,135.05137410749464,Vision,Movement,4
0.324,0.013669394598370861,0.013074655841534041,78.00988125162522,69.74872574443351,-0.0805204324107804,8.504934396494617,0.010265759657978405,0.007644712351697519,0.0070944745348043015,0.005385955752429977,-526.3083071479514,3637.9740795646476,612.1600291650661,465.20344004748335,3541.7350903295537,135.06194629347308,Vision,Movement,4
0.325,0.013664068927309278,0.013063772305231742,78.00988125162522,69.74872574443351,-0.07916501378604074,8.526261894570148,0.010464840807576162,0.00790208688167353,0.00758421977109096,0.005546508772166234,-526.376152459215,3638.2493228033168,612.2323379263462,465.24774993869124,3541.7727909166124,135.07251847945153,Vision,Movement,4
0.326,0.013658449085964045,0.013052540182506489,78.00988125162522,69.74872574443351,-0.07781100630089921,8.547571434747006,0.010654593342524228,0.008180417929872912,0.008089511826252383,0.005700007259844628,-526.4439977704785,3638.5245660419855,612.3046466876262,465.29205982989913,3541.810491503671,135.08309066542998,Vision,Movement,4
0.327,0.013652530932680818,0.013040973434092403,78.00988125162522,69.74872574443351,-0.07645843427319544,8.568862762710397,0.01083368573066424,0.008478340233091072,0.00860767305457802,0.005844844024318372,-526.5118430817422,3638.7998092806547,612.3769554489062,465.336369721107,3541.84819209073,135.09366285140842,Vision,Movement,4
0.328,0.01364631117212508,0.013029088699459363,78.00988125162522,69.74872574443351,-0.07510732199228735,8.590135624551337,0.01100089004411446,0.008794346526979021,0.009135793279170513,0.005979483993860273,-526.4982076776789,3638.9311766673572,612.3965194874856,465.3806796123149,3541.885892677789,135.10423503738687,Vision,Movement,4
0.329,0.01363978744752697,0.01301690547703988,78.00988125162522,69.74872574443351,-0.07375769372265895,8.611389766752765,0.011155102885711065,0.009126791413863078,0.00967072242346054,0.0061024898232409554,-526.4840141398486,3639.0615585206,612.4157222306264,465.4249895035228,3541.9235932648476,135.11480722336532,Vision,Movement,4
0.33,0.013632958437623577,0.013004446309404078,78.00988125162522,69.74872574443351,-0.07240957370182746,8.632624936182985,0.011295364684070537,0.009473894239618091,0.01020906923146802,0.0062125462587970404,-526.4698206020181,3639.191940373843,612.4349249737674,465.4692993947307,3541.9612938519067,135.12537940934376,Vision,Movement,4
0.331,0.01362582395833626,0.012991736973078804,78.00988125162522,69.74872574443351,-0.0710629861387196,8.653840880163868,0.01142087646454812,0.009833740886363889,0.010747207490148764,0.006308482610104779,-526.4556270641876,3639.3223222270863,612.4541277169081,465.51360928593857,3541.9989944389654,135.1359515953222,Vision,Movement,4
0.332,0.013618385069202302,0.012978806672659302,78.00988125162522,69.74872574443351,-0.06971795521678523,8.675037346374985,0.011531013227547153,0.010204284640137604,0.01128129080130741,0.006389292746229761,-526.4414335263573,3639.452704080329,612.4733304600489,465.55791917714646,3542.036695026024,135.14652378130066,Vision,Movement,4
0.333,0.01361064418456482,0.012965688238810037,78.00988125162522,69.74872574443351,-0.0683745050867132,8.696214082929039,0.01162533324024373,0.010583346602545705,0.011807276523672743,0.00645415212699196,-526.4272399885268,3639.583085933572,612.4925332031899,465.60222906835435,3542.074395613083,135.1570959672791,Vision,Movement,4
0.334,0.013602605189503347,0.012952418329700476,78.00988125162522,69.74872574443351,-0.06703265987000898,8.717370838359429,0.011703582896037719,0.010968616357611777,0.012320959013197972,0.006502431471999939,-526.4130464506964,3639.713467786815,612.5117359463306,465.64653895956224,3542.112096200142,135.16766815325755,Vision,Movement,4
0.335,0.01359427356046663,0.012939037635362933,78.00988125162522,69.74872574443351,-0.06569244365700215,8.738507361624187,0.01176569722774128,0.011357653704262383,0.012818011805706955,0.006533706759440509,-526.3988529128659,3639.843849640058,612.5309386894714,465.69628449244175,3542.1543831236154,135.17183673201316,Vision,Movement,4
0.336,0.01358565649054773,0.012925591084400263,78.00988125162522,69.74872574443351,-0.06435388050589412,8.759623402099514,0.011811796480464607,0.011747892157881691,0.0132940378976396,0.0065477653023283105,-526.3846593750355,3639.974231493301,612.5501414326123,465.74669232304547,3542.1972288624697,135.17522507271283,Vision,Movement,4
0.337,0.013576763019315966,0.012912128052409228,78.00988125162522,69.74872574443351,-0.06301699444114994,8.780718709647234,0.011842179294002572,0.01213664474907511,0.013744626866647793,0.006544607683885879,-526.3704658372051,3640.104613346544,612.5693441757531,465.7971001536492,3542.2400746013236,135.1786134134125,Vision,Movement,4
0.338,0.013567604167091572,0.012898702571418496,78.00988125162522,69.74872574443351,-0.06168180945656848,8.801793034519637,0.011857313081138238,0.012521112542612707,0.014165417294925164,0.006524445404359684,-526.3562722993746,3640.2349951997867,612.5885469188939,465.8475079842529,3542.282920340178,135.18200175411218,Vision,Movement,4
0.339,0.013558193073523865,0.012885373539572099,78.00988125162522,69.74872574443351,-0.060348349508063746,8.822846127434282,0.011857822181273148,0.012898396291410411,0.014552162872056025,0.006487694256479694,-526.3420787615443,3640.3653770530295,612.6077496620348,465.8979158148566,3542.3257660790323,135.18539009481185,Vision,Movement,4
0.34,0.013548545140299306,0.012872204930213273,78.00988125162522,69.74872574443351,-0.059016638517204685,8.84387773956007,0.011844474305439112,0.013265511586117015,0.014900800575699156,0.0064349637007855495,-526.3278852237138,3640.495758906273,612.6269524051756,465.94832364546033,3542.368611817886,135.18877843551152,Vision,Movement,4
0.341,0.013538678177775423,0.012859265999453827,78.00988125162522,69.74872574443351,-0.057686700369141114,8.86488762251085,0.011818165695159059,0.013619407728490879,0.015207519418943438,0.006367042776744698,-526.3136916858833,3640.6261407595157,612.6461551483164,465.99873147606405,3542.4114575567405,135.19216677621117,Vision,Movement,4
0.342,0.01352861255529889,0.012846631491227637,78.00988125162522,69.74872574443351,-0.056358558911010194,8.88587552841224,0.011779905394081233,0.013956990391571942,0.015468828276074004,0.006284883258314763,-526.2814802644349,3640.685987048933,612.6366921676353,466.0491393066677,3542.454303295595,135.19555511691084,Vision,Movement,4
0.343,0.013518371354931192,0.012834381838751498,78.00988125162522,69.74872574443351,-0.055032237954969705,8.906841209807094,0.011730799128132973,0.014275148087165826,0.015681621188438275,0.006189580801074992,-526.2370893646012,3640.698153688885,612.6078521296321,466.09954713727143,3542.497149034449,135.1989434576105,Vision,Movement,4
0.34400000000000003,0.01350798052826329,0.01282260336122599,78.00988125162522,69.74872574443351,-0.05370776127103784,8.927784419729726,0.011672033405132839,0.014570782549291181,0.015843238371428075,0.006082354761559177,-526.1926984647674,3640.710320328838,612.5790120916289,466.14995496787515,3542.539994773303,135.20233179831018,Vision,Movement,4
0.34500000000000003,0.013497469055958574,0.012811388454522841,78.00988125162522,69.74872574443351,-0.05238515259060008,8.948704911693488,0.011604860433916156,0.014840843221010433,0.01595152103417906,0.005964527267149188,-526.1483075649337,3640.7224869687907,612.5501720536258,466.20036279847886,3542.5828405121574,135.20572013900986,Vision,Movement,4
0.34600000000000003,0.013486869109620504,0.01280083577451334,78.00988125162522,69.74872574443351,-0.051064435604441724,8.969602439694448,0.011530584272398363,0.015082366007748624,0.01600485824877094,0.0058375020125619,-526.1039166651001,3640.7346536087434,612.5213320156226,466.2507706290826,3542.6256862510118,135.20910847970953,Vision,Movement,4
0.34700000000000003,0.013476216215532001,0.012791050411596928,78.00988125162522,69.74872574443351,-0.0497456339618002,8.990476758205066,0.011450548314868272,0.015292516275828573,0.016002224404140977,0.005702743185442831,-526.0595257652664,3640.7468202486957,612.4924919776196,466.3011784596863,3542.6685319898656,135.2124968204092,Vision,Movement,4
0.34800000000000003,0.013465549419764753,0.012782144054891729,78.00988125162522,69.74872574443351,-0.04842877126879055,9.011327622240236,0.01136612392314269,0.015468635811052999,0.01594320610046917,0.005561754890785127,-526.0151348654326,3640.7589868886485,612.4636519396164,466.35158629029,3542.71137772872,135.21588516110887,Vision,Movement,4
0.34900000000000003,0.013454911454104714,0.012774235144451595,78.00988125162522,69.74872574443351,-0.047113871091393464,9.032154787263531,0.011278699762837375,0.015608293157687211,0.01582801761888921,0.00541606144801418,-525.970743965599,3640.771153528601,612.4348119016132,466.40199412089373,3542.7542234675743,135.21927350180854,Vision,Movement,4
0.35000000000000003,0.01344434890218481,0.012767449009774178,78.00988125162522,69.74872574443351,-0.04580095694837037,9.052958009259193,0.011189671233388137,0.015709336440293972,0.0156575044659295,0.005267188922583783,-525.9263530657653,3640.783320168554,612.4059718636101,466.45240195149745,3542.7970692064287,135.22266184250822,Vision,Movement,4
0.35100000000000003,0.01343391236515742,0.012761917992791838,78.00988125162522,69.74872574443351,-0.04449005231473041,9.073737044708418,0.011100429294685927,0.0157699473793087,0.01543313505460414,0.005116648191155892,-525.8819621659316,3640.7954868085067,612.377131825607,466.5016381211935,3542.841127853192,135.2249706155555,Vision,Movement,4
0.352,0.013423656626181934,0.01275778155360781,78.00988125162522,69.74872574443351,-0.04318118061968393,9.094491650654822,0.011012348043567976,0.01578869476273546,0.015156981186421083,0.0049659197145044106,-525.8375712660979,3640.807653448459,612.3482917876039,466.54800183496997,3542.888160077448,135.2246327094541,Vision,Movement,4
0.353,0.013413640812937225,0.012755186358285058,78.00988125162522,69.74872574443351,-0.041874365245084776,9.115221584611238,0.010926770622441646,0.015764585203942198,0.014831688372148913,0.0048164400679050175,-525.7931803662642,3640.8198200884117,612.3194517496007,466.5943655487465,3542.9351923017043,135.22429480335276,Vision,Movement,4
0.354,0.01340392855730414,0.012754286352842792,78.00988125162522,69.74872574443351,-0.04056962952838079,9.13592660463275,0.010844993360428259,0.015697108723624658,0.014460437111200123,0.004669590182933006,-525.7487894664305,3640.8319867283644,612.2906117115975,466.640729262523,3542.9822245259606,135.22395689725138,Vision,Movement,4
