Time,Amplitude_Envelope_P1,Amplitude_Envelope_P2,Filtered_ECG_P1,Filtered_ECG_P2,Filtered_Respiration_P1,Filtered_Respiration_P2,Filtered_EMG_Bicep_P1,Filtered_EMG_Tricep_P1,Filtered_EMG_Bicep_P2,Filtered_EMG_Tricep_P2,right_index_x_P1,right_index_y_P1,right_index_z_P1,right_index_x_P2,right_index_y_P2,right_index_z_P2,ConditionVision,ConditionMovement,Trial
0.0,0.0103410174584606,0.0,63.82412906657212,67.0953312831982,1.0240693845617976,4.572987389269724,0.0027721399727276,0.0011615249807857,0.0030998796797317,0.0021620704727439,-584.6431941454003,3683.6451864859055,-54.359301198999454,702.4035687839607,3484.599009711801,-423.8389177232004,Vision,NoMovement,1
0.001,0.010345021635289192,0.0005058771698292397,63.82412906657212,67.0953312831982,1.0242175607184534,4.579911624786793,0.002977581324038184,0.0012613964549362602,0.003086156030171146,0.0022046080209638394,-584.6734716994902,3683.7035458202545,-54.32947063413877,702.1922638161684,3484.164354101095,-423.7330320320943,Vision,NoMovement,1
0.002,0.010348992240791008,0.0010076623848328228,63.82412906657212,67.0953312831982,1.024365522689048,4.586852725911508,0.0031826133451119737,0.0013615503847296095,0.0030732286159748084,0.002247355572607168,-584.70374925358,3683.761905154604,-54.299640069278084,701.980958848376,3483.729698490389,-423.6271463409882,Vision,NoMovement,1
0.003,0.010352914364072516,0.0015037144174001188,63.82412906657212,67.0953312831982,1.0245132659736598,4.593810613968725,0.003385952947345129,0.0014612836115246199,0.0030612341029327204,0.0022900221528876497,-584.7340268076699,3683.820264488953,-54.2698095044174,701.7696538805836,3483.295042879683,-423.5212606498821,Vision,NoMovement,1
0.004,0.010356774866278815,0.001992601717389562,63.82412906657212,67.0953312831982,1.0246607860661094,4.60078520976543,0.003586346710003648,0.0015598937035019146,0.003050299156914274,0.0023323163620204016,-584.7643043617597,3683.878623823302,-54.23997893955672,701.5583489127913,3482.860387268977,-423.41537495877594,Vision,NoMovement,1
0.005,0.010360562151131854,0.0024730470000690124,63.82412906657212,67.0953312831982,1.024808078453548,4.607776433522663,0.003782589041398466,0.0016566901303328577,0.003040538000831165,0.0023739511520842436,-584.7945819158496,3683.936983157651,-54.21014837469603,701.347043944999,3482.4257316582707,-423.30948926766985,Vision,NoMovement,1
0.006,0.010364265350403643,0.002943917435123789,63.82412906657212,67.0953312831982,1.0249551386167188,4.614784204908638,0.003973538725394827,0.0017510053469954416,0.0030320501405201815,0.002414648824412707,-584.8248594699394,3683.9953424920004,-54.18031780983535,701.1357389772065,3481.991076047565,-423.20360357656375,Vision,NoMovement,1
0.007,0.010367874883314457,0.003404220607912351,63.82412906657212,67.0953312831982,1.0251019620300827,4.6218084430339355,0.004158133480713996,0.0018422054990884773,0.003024918295005843,0.0024541462082673274,-584.8551370240293,3684.0537018263494,-54.15048724497466,700.9244340094142,3481.556420436859,-423.09771788545766,Vision,NoMovement,1
0.008,0.010371382752886897,0.0038530919421836166,63.82412906657212,67.0953312831982,1.0252485441620758,4.6288490664530295,0.004335402249973946,0.001929700472165151,0.0030192065337639098,0.0024921999252452624,-584.8854145781191,3684.1120611606984,-54.12065668011398,700.7131290416219,3481.1217648261527,-422.99183219435156,Vision,NoMovement,1
0.009000000000000001,0.01037478235392858,0.004289783880321206,63.82412906657212,67.0953312831982,1.0253948804745758,4.635905993159454,0.004504474957566257,0.00201295303141096,0.003014958604484158,0.0025285915945011507,-584.915692132209,3684.1704204950474,-54.0908261152533,700.5018240738295,3480.687109215447,-422.88594650324546,Vision,NoMovement,1
0.01,0.010378068529029418,0.004713656527694246,63.82412906657212,67.0953312831982,1.0255409664244866,4.642979140606626,0.004664589488309793,0.0020914868261865636,0.003012196447250637,0.0025631328244035767,-584.9459696862988,3684.228779829397,-54.06099555039261,700.2905191060371,3480.252453604741,-422.78006081213937,Vision,NoMovement,1
0.011,0.010381236583280697,0.005124170880414193,63.82412906657212,67.0953312831982,1.025686797462009,4.650068425703038,0.004815095701510332,0.0021648930468346705,0.0030109189302963933,0.0025956698625168246,-584.9762472403887,3684.287139163746,-54.03116498553193,700.0792141382448,3479.8177979940347,-422.6741751210332,Vision,NoMovement,1
0.012,0.01038428258804953,0.005520883490835623,63.82412906657212,67.0953312831982,1.0258323690322293,4.657173764775321,0.004955456460785802,0.002232835538760289,0.0030111008842937815,0.0026260878094313553,-585.0065247944785,3684.345498498095,-54.00133442067125,699.8679091704524,3479.3831423833285,-422.5682894299271,Vision,NoMovement,1
0.013000000000000001,0.010387203918129688,0.005903438163530542,63.82412906657212,67.0953312831982,1.0259776765747126,4.66429507362772,0.005085245807069512,0.0022950541899404465,0.003012692537138175,0.0026543143128043016,-585.0368023485684,3684.403857832444,-53.97150385581056,699.6566042026601,3478.948486772623,-422.462403738821,Vision,NoMovement,1
0.014,0.010389999234943947,0.006271560339727476,63.82412906657212,67.0953312831982,1.0261227155232422,4.671432267505218,0.005204144507480013,0.0023513664565026856,0.0030156194637457065,0.0026803226314748006,-585.0670799026582,3684.4622171667934,-53.94167329094988,699.4452992348677,3478.5138311619166,-422.3565180477149,Vision,NoMovement,1
0.015,0.010392667654308298,0.006625052904458888,63.82412906657212,67.0953312831982,1.0262674813067336,4.6785852611274645,0.005311933258301574,0.002401666970214555,0.0030197831764426464,0.0027041339072623937,-585.089208986505,3684.5087919310695,-53.9207130866372,699.2743878840191,3478.1682039229636,-422.2743643630473,Vision,NoMovement,1
0.016,0.010395208160944098,0.006963792240335866,63.82412906657212,67.0953312831982,1.02641196934884,4.685753968651695,0.00540848388963126,0.0024459252756966537,0.0030250624746390943,0.0027258184204981086,-585.1059839384696,3684.5476233839677,-53.90558134813461,699.1483845348292,3477.921554853555,-422.21859497038264,Vision,NoMovement,1
0.017,0.010397621036787087,0.0072877237838852894,63.82412906657212,67.0953312831982,1.026556175068213,4.692938303700351,0.005493749063173585,0.0024841818604311987,0.0030313156151114793,0.0027454955741175176,-585.1227588904343,3684.586454836866,-53.89044960963202,699.0223811856393,3477.6749057841457,-422.16282557771797,Vision,NoMovement,1
0.018000000000000002,0.010399908152840318,0.007596855782099009,63.82412906657212,67.0953312831982,1.0267000938786317,4.700138179356328,0.005567751128132514,0.002516542749341621,0.0030383832523121373,0.0027633323813942893,-585.1395338423989,3684.625286289764,-53.87531787112943,698.8963778364495,3477.428256714737,-422.1070561850533,Vision,NoMovement,1
0.019,0.010402072413089714,0.007891251547387759,63.82412906657212,67.0953312831982,1.026843721189261,4.707353508158328,0.005630570928961186,0.002543173024791452,0.003046091971573397,0.002779540338035278,-585.1563087943636,3684.6641177426623,-53.86018613262684,698.7703744872596,3477.181607645328,-422.0512867923886,Vision,NoMovement,1
0.02,0.010404116899846105,0.008171022292494117,63.82412906657212,67.0953312831982,1.0269870524041371,4.714584202128665,0.005682337366688494,0.0025642896724628263,0.003054258151048245,0.0027943707109084302,-585.1730837463282,3684.7029491955604,-53.84505439412425,698.6443711380697,3476.9349585759187,-421.99551739972395,Vision,NoMovement,1
0.021,0.010406044473879017,0.008436322826485876,63.82412906657212,67.0953312831982,1.0271300829237207,4.721830172735946,0.005723218398853063,0.002580154131169247,0.0030626918762484243,0.0028081084226620483,-585.1898586982927,3684.7417806484586,-53.82992265562166,698.5183677888798,3476.68830950651,-421.9397480070593,Vision,NoMovement,1
0.022,0.010407858745820169,0.008687348892580356,63.82412906657212,67.0953312831982,1.0272728081432154,4.729091330923039,0.005753413964421845,0.002591064854658435,0.003071200690828024,0.0028210648093663303,-585.2066336502573,3684.780612101357,-53.81479091711907,698.3923644396899,3476.441660437101,-421.8839786143946,Vision,NoMovement,1
0.023,0.010409564122867934,0.00892433319700188,63.82412906657212,67.0953312831982,1.0274152234541243,4.7363675871023645,0.00577315110184458,0.0025973501121248645,0.0030795930554732816,0.0028335695593849973,-585.223408602222,3684.819443554255,-53.79965917861648,698.2663610905,3476.195011367692,-421.82820922172994,Vision,NoMovement,1
0.024,0.010411165862083061,0.009147540686352144,63.82412906657212,67.0953312831982,1.0275573242438554,4.743658851151312,0.0057826813014998256,0.002599361180521061,0.0030876814573593233,0.002845962127296909,-585.2401835541866,3684.858275007153,-53.78452744011389,698.1403577413101,3475.948362298283,-421.77243982906526,Vision,NoMovement,1
0.025,0.010412668861908725,0.009357265372132191,63.82412906657212,67.0953312831982,1.0276991058954792,4.750965032440324,0.005782279922950094,0.0025974660342385895,0.0030952851488139166,0.0028585828882782866,-585.2569585061512,3684.8971064600514,-53.769395701611295,698.0143543921203,3475.7017132288743,-421.7166704364006,Vision,NoMovement,1
0.026000000000000002,0.010414076511158275,0.009553828760180865,63.82412906657212,67.0953312831982,1.0278405637886237,4.758286039788894,0.005772247316771311,0.002592043614931766,0.0031022325040191943,0.00287176427509619,-585.2737334581159,3684.9359379129496,-53.754263963108706,697.8883510429304,3475.455064159465,-421.660901043736,Vision,NoMovement,1
0.027,0.010415390492042426,0.009737577739392754,63.82412906657212,67.0953312831982,1.0279816932990948,4.765621781526667,0.005752911144500615,0.0025834787569943333,0.0031083629769810845,0.002885822123813972,-585.2905084100805,3684.974769365848,-53.73913222460612,697.7623476937405,3475.208415090056,-421.6051316510713,Vision,NoMovement,1
0.028,0.010416610995835534,0.009908880330545239,63.82412906657212,67.0953312831982,1.0281224897991355,4.772972165422863,0.0057246293143068715,0.002572157828571357,0.0031135286323386176,0.0029010474341473738,-585.3072833620452,3685.013600818746,-53.72400048610353,697.6363443445506,3474.9617660206472,-421.54936225840663,Vision,NoMovement,1
0.029,0.01041773793605784,0.010068121054371848,63.82412906657212,67.0953312831982,1.0282629486575605,4.780337098754347,0.005687792977854318,0.0025584651075769194,0.003117595223653628,0.0029176987191616385,-585.3240583140098,3685.052432271644,-53.70886874760093,697.5103409953607,3474.715116951238,-421.49359286574196,Vision,NoMovement,1
0.03,0.01041877127257558,0.010215697800718017,63.82412906657212,67.0953312831982,1.02840306524001,4.787716488268019,0.005642829176952785,0.0025427798567829005,0.003120442824519745,0.0029359950755441246,-585.3408332659744,3685.0912637245424,-53.69373700909834,697.3843376461708,3474.4684678818294,-421.4378234730773,Vision,NoMovement,1
0.031,0.010419709887746273,0.010352019629722486,63.82412906657212,67.0953312831982,1.0285428349084584,4.795110240215906,0.00559020293251711,0.002525474018520001,0.00312196606820588,0.0029561100688857878,-585.3557586791093,3685.126501234245,-53.680445786151566,697.2583342969809,3474.22181881242,-421.3820540804126,Vision,NoMovement,1
0.032,0.010420552272703705,0.010477502943424685,63.82412906657212,67.0953312831982,1.0286822530227233,4.802518260317301,0.005530418723715789,0.002506910432029466,0.003122074090559964,0.002978166507470201,-585.360228112578,3685.1414211402466,-53.67755953168469,697.132330947791,3473.975169743011,-421.32628468774794,Vision,NoMovement,1
0.033,0.010421297500345083,0.010592571268040515,63.82412906657212,67.0953312831982,1.0288213149388443,4.809940453780998,0.005464021343175054,0.0024874414796220113,0.0031206902804368185,0.0030022321771509455,-585.3646975460468,3685.1563410462486,-53.67467327721783,697.0063275986012,3473.7285206736024,-421.27051529508327,Vision,NoMovement,1
0.034,0.010421945092359414,0.010697652695056794,63.82412906657212,67.0953312831982,1.0289600160105958,4.817376725333728,0.00539159603815239,0.002467408071864452,0.0031177519304675066,0.0030283166181998963,-585.3691669795157,3685.1712609522506,-53.67178702275096,696.9014132076073,3473.543931751142,-421.22842463997796,Vision,NoMovement,1
0.035,0.01042249479155479,0.010793178191457314,63.82412906657212,67.0953312831982,1.029098351589113,4.824826979149118,0.0053137677464686174,0.0024471388801974537,0.0031132098653391675,0.003056369031560525,-585.3736364129845,3685.1861808582526,-53.66890076828409,696.801881579994,3473.3751831126474,-421.1898253573217,Vision,NoMovement,1
0.036000000000000004,0.010422945909427647,0.010879578203242824,63.82412906657212,67.0953312831982,1.029236317022658,4.832291118943306,0.005231199162580485,0.00242694970760448,0.0031070281062888314,0.0030862774013625826,-585.3781058464534,3685.201100764254,-53.666014513817224,696.7023499523807,3473.2064344741534,-421.15122607466543,Vision,NoMovement,1
0.037,0.010423297736128472,0.010957280636399724,63.82412906657212,67.0953312831982,1.0293739076574977,4.839769047903414,0.005144587377350276,0.0024071428666029874,0.0030991836027667538,0.0031178689079695587,-585.3825752799222,3685.216020670256,-53.66312825935036,696.6028183247673,3473.0376858356594,-421.1126267920092,Vision,NoMovement,1
0.038,0.010423548921170174,0.01102670981111837,63.82412906657212,67.0953312831982,1.0295111188375379,4.847260668723271,0.005054658936567866,0.002388006432552475,0.0030896660211230417,0.0031509116859280324,-585.387044713391,3685.230940576258,-53.660242004883486,696.503286697154,3472.868937197165,-421.07402750935296,Vision,NoMovement,1
0.039,0.010423698431627637,0.011088285376979387,63.82412906657212,67.0953312831982,1.0296479459045835,4.854765883598826,0.004962163329757675,0.002369813276742241,0.0030784775387421317,0.0031851179357717603,-585.3915141468599,3685.2458604822596,-53.65735575041662,696.4037550695406,3472.700188558671,-421.0354282266967,Vision,NoMovement,1
0.04,0.010423745670374959,0.011142421777281811,63.82412906657212,67.0953312831982,1.0297843841984702,4.862284594223792,0.004867865112603624,0.0023528198471813233,0.0030656325790375054,0.0032201483335269204,-585.3959835803287,3685.2607803882615,-53.654469495949755,696.3042234419272,3472.5314399201766,-420.99682894404043,Vision,NoMovement,1
0.041,0.01042368969141299,0.011189527621131344,63.82412906657212,67.0953312831982,1.0299204290573172,4.869816701818599,0.004772535019862107,0.0023372647127099452,0.0030511574585287684,0.0032556176153756707,-585.4004530137976,3685.2757002942635,-53.65158324148288,696.204691814314,3472.3626912816826,-420.95822966138417,Vision,NoMovement,1
0.042,0.010423529741320839,0.01123000476159325,63.82412906657212,67.0953312831982,1.030056075817061,4.87736210708569,0.004676940501764286,0.0023233668897205606,0.0030350899793501816,0.003291101175163695,-585.4049224472664,3685.290620200265,-53.64869698701602,696.1051601867006,3472.193942643188,-420.91963037872796,Vision,NoMovement,1
0.043000000000000003,0.010423265590450303,0.01126424641960337,63.82412906657212,67.0953312831982,1.0301913198129165,4.884920710272251,0.0045818361044213905,0.0023113239470899196,0.0030174790440910754,0.003326142509767167,-585.4093918807351,3685.305540106267,-53.64581073254915,696.0056285590872,3472.025194004694,-420.8810310960717,Vision,NoMovement,1
0.044,0.010422897599751929,0.011292635952516986,63.82412906657212,67.0953312831982,1.030326156377816,4.8924924110981935,0.004487954051402081,0.0023013098861690098,0.002998384381222919,0.003360261360842942,-585.413861314204,3685.320460012269,-53.64292447808228,695.9060969314738,3471.8564453661998,-420.84243181341543,Vision,NoMovement,1
0.045,0.01042242703648597,0.0113155463806832,63.82412906657212,67.0953312831982,1.0304605808438778,4.900077108819666,0.004395995292691181,0.0022934728504977325,0.0029778764562549817,0.0033929624229360467,-585.4183307476728,3685.335379918271,-53.64003822361541,695.8065653038606,3471.6876967277058,-420.80383253075917,Vision,NoMovement,1
0.046,0.010421856818128475,0.011333339138204597,63.82412906657212,67.0953312831982,1.0305945885420449,4.907674702224323,0.004306621243065017,0.0022879328194533297,0.0029560366173177334,0.003423744502590158,-585.4228001811417,3685.3502998242725,-53.63715196914855,695.7070336762472,3471.5189480892113,-420.7652332481029,Vision,NoMovement,1
0.047,0.0104211903984041,0.011346363541145679,63.82412906657212,67.0953312831982,1.0307281748018726,4.915285089599749,0.004220446426597567,0.0022847795187962306,0.002932957482875262,0.0034521100201786122,-585.4272696146105,3685.3652197302745,-53.634265714681675,695.6075020486338,3471.3501994507174,-420.7266339654467,Vision,NoMovement,1
0.048,0.01042043217557719,0.011354956751334615,63.82412906657212,67.0953312831982,1.030861334952374,4.9229081687630645,0.0041380322637737076,0.0022840707959005313,0.0029087435380157007,0.0034775747300663973,-585.4317390480794,3685.3801396362765,-53.63137946021481,695.5079704210204,3471.1814508122234,-420.68803468279043,Vision,NoMovement,1
0.049,0.010419587469326077,0.011359443630419788,63.82412906657212,67.0953312831982,1.0309940643216762,4.930543837056476,0.004059882218186329,0.0022858316586962554,0.0028835118755907575,0.003499677499253615,-585.4362084815482,3685.395059542278,-53.628493205747944,695.4084387934072,3471.012702173729,-420.64943540013417,Vision,NoMovement,1
0.05,0.01041866201662029,0.011360137257716828,63.82412906657212,67.0953312831982,1.0311263582372734,4.938191991349589,0.003986438431251347,0.0022900540958460305,0.002857392991267365,0.003517989945320655,-585.440677915017,3685.40997944828,-53.62560695128107,695.3128586338621,3470.8544779497042,-420.61152531034816,Vision,NoMovement,1
0.051000000000000004,0.010417660942780939,0.011357339386818842,63.82412906657212,67.0953312831982,1.0312582120262748,4.9458525280352355,0.003918079857369499,0.0022966977061409095,0.00283053151399032,0.0035321256964627895,-585.4451473484859,3685.424899354282,-53.622720696814206,695.2335920049434,3470.7397034903765,-420.5764605349621,Vision,NoMovement,1
0.052000000000000005,0.010416589545661256,0.011351340980270807,63.82412906657212,67.0953312831982,1.0313896210150713,4.953525343059017,0.0038551218036052617,0.0023056910742302317,0.002803086744298488,0.0035417490081263167,-585.4496167819547,3685.4398192602835,-53.61983444234734,695.1543253760246,3470.6249290310484,-420.5413957595761,Vision,NoMovement,1
0.053,0.010415453699348572,0.011342420467679635,63.82412906657212,67.0953312831982,1.031520580530064,4.961210331880706,0.0037978166910398125,0.0023169337405762776,0.0027752329032667005,0.003546582466328553,-585.4540862154236,3685.4547391662854,-53.61694818788047,695.0750587471058,3470.5101545717202,-420.50633098419013,Vision,NoMovement,1
0.054,0.010414259928448993,0.01133084287705136,63.82412906657212,67.0953312831982,1.0316510858978967,4.9689073895041975,0.003746355797769644,0.0023302985372809,0.0027471590468438945,0.0035464135310057324,-585.4585556488923,3685.4696590722874,-53.6140619334136,694.9957921181871,3470.3953801123926,-420.47126620880414,Vision,NoMovement,1
0.055,0.010413014375370316,0.011316860821801892,63.82412906657212,67.0953312831982,1.0317811324445518,4.976616410473009,0.003700871725860785,0.0023456340226198076,0.00271906864311218,0.003541099702842868,-585.4630250823611,3685.4845789782894,-53.611175678946736,694.9165254892683,3470.2806056530644,-420.43620143341815,Vision,NoMovement,1
0.056,0.01041172257791971,0.011300715546495995,63.82412906657212,67.0953312831982,1.0319107154967606,4.9843372888661985,0.0036614413633408527,0.0023627667695065606,0.002691178831646653,0.003530572121740248,-585.46749451583,3685.499498884291,-53.608289424479864,694.8372588603496,3470.1658311937363,-420.4011366580321,Vision,NoMovement,1
0.057,0.010410390362293331,0.011282636453095542,63.82412906657212,67.0953312831982,1.0320398303810918,4.992069918328032,0.0036280891775461776,0.0023815033457641093,0.0026637194047210697,0.0035148374383150373,-585.4719639492988,3685.514418790293,-53.605403170013,694.7579922314309,3470.0510567344086,-420.3660718826461,Vision,NoMovement,1
0.058,0.010409022975909793,0.011262841081473638,63.82412906657212,67.0953312831982,1.0321684724248976,4.999814192022722,0.003600790758846343,0.0024016319423499914,0.0026369315770684615,0.003493977866562461,-585.4764333827677,3685.529338696295,-53.60251691554613,694.678725602512,3469.9362822750804,-420.3310071072601,Vision,NoMovement,1
0.059000000000000004,0.010407626042803785,0.011241535639893694,63.82412906657212,67.0953312831982,1.0322966369559814,5.007570002698532,0.0035794766513407524,0.0024229237165628186,0.002611066619390845,0.003468149430511347,-585.4809028162365,3685.5442586022964,-53.59963066107926,694.5994589735933,3469.8215078157523,-420.29594233187413,Vision,NoMovement,1
0.06,0.01040620579369498,0.011218915078078756,63.82412906657212,67.0953312831982,1.032424319302845,5.0153372426147245,0.003564036633469839,0.0024451339978390422,0.0025863844015204295,0.0034375785424356825,-585.4853722497053,3685.5591785082984,-53.596744406612395,694.5201923446746,3469.706733356424,-420.2608775564881,Vision,NoMovement,1
0.061,0.010404770071953283,0.011195163369498301,63.82412906657212,67.0953312831982,1.0325515147948268,5.023115803613192,0.0035543246934710325,0.002468003542573895,0.0025631518320167164,0.0034025571490965685,-585.4898416831742,3685.5740984143004,-53.59385815214553,694.4409257157558,3469.5919588970964,-420.2258127811021,Vision,NoMovement,1
0.062,0.010403327806963961,0.011170453590310665,63.82412906657212,67.0953312831982,1.0326782187623382,5.030905577079753,0.0035501649237669668,0.002491260020486471,0.002541641136910285,0.0033634367253030264,-585.4949139851667,3685.591786759524,-53.59032770456417,694.3616590868371,3469.4771844377683,-420.1907480057161,Vision,NoMovement,1
0.063,0.010401888023275206,0.011144948822756151,63.82412906657212,67.0953312831982,1.032804426536554,5.038706453981115,0.0035513584423947056,0.0025146198710298984,0.0025221279018461536,0.0033206213789250334,-585.5013889482435,3685.6159162802423,-53.5852984482426,694.2823924579183,3469.36240997844,-420.1556832303301,Vision,NoMovement,1
0.064,0.010400458514312733,0.011118802019615378,63.82412906657212,67.0953312831982,1.032930133450112,5.046518324825851,0.0035576912958927096,0.002537790604396199,0.0025048888045553727,0.0032745603065143353,-585.5078639113203,3685.6400458009607,-53.580269191921026,694.2031258289995,3469.2476355191125,-420.12061845494406,Vision,NoMovement,1
0.065,0.01039904551887455,0.011092156349207741,63.82412906657212,67.0953312831982,1.0330553348373375,5.054341079688417,0.0035689431640362353,0.0025604735640165494,0.0024901989787727433,0.0032257398323781495,-585.5143388743973,3685.664175321679,-53.575239935599456,694.1238592000808,3469.1328610597843,-420.0855536795581,Vision,NoMovement,1
0.066,0.010397653678933664,0.011065145922598347,63.82412906657212,67.0953312831982,1.0331800260333865,5.062174608238776,0.003584896596833956,0.0025823671288510122,0.002478328984423995,0.003174675273443156,-585.5208138374741,3685.688304842397,-53.570210679277885,694.0445925711621,3469.018086600456,-420.0504889041721,Vision,NoMovement,1
0.067,0.010396286097988351,0.011037895917652132,63.82412906657212,67.0953312831982,1.033304202375594,5.07001879966933,0.003605346454653978,0.0026031703013772215,0.0024695413972546185,0.0031219028608802835,-585.5272888005509,3685.7124343631153,-53.565181422956314,693.9759023979894,3468.9195828537795,-420.01854933614095,Vision,NoMovement,1
0.068,0.010394944607189647,0.01101052298181777,63.82412906657212,67.0953312831982,1.0334278592026123,5.077873542794778,0.0036301091520177715,0.0026225865870636387,0.0024640870498443272,0.0030679719011267137,-585.5337637636278,3685.7365638838337,-53.560152166634744,693.9144616648439,3468.832231572389,-419.98875188488654,Vision,NoMovement,1
0.069,0.010393630952702623,0.010983135562075003,63.82412906657212,67.0953312831982,1.0335509918553156,5.085738725978085,0.0036590312120915996,0.002640328040980613,0.002462200959783367,0.0030134373059975583,-585.5402387267046,3685.760693404552,-53.55512291031317,693.8530209316984,3468.7448802909985,-419.9589544336321,Vision,NoMovement,1
0.07,0.01039234732144197,0.010955834296411083,63.82412906657212,67.0953312831982,1.0336735956764884,5.093614237168245,0.003691996559481258,0.0026561193557987526,0.0024640979984647017,0.0029588525756867345,-585.5467136897815,3685.7848229252704,-53.5500936539916,693.791580198553,3468.6575290096084,-419.92915698237766,Vision,NoMovement,1
0.07100000000000001,0.01039109512853258,0.010928712408113028,63.82412906657212,67.0953312831982,1.033795666011066,5.101499963895892,0.0037289319889944553,0.0026697018997536358,0.0024699684054485583,0.0029047632968165205,-585.5531886528584,3685.8089524459883,-53.54506439767003,693.7301394654074,3468.570177728218,-419.8993595311232,Vision,NoMovement,1
0.07200000000000001,0.010389875553174454,0.0109018559065719,63.82412906657212,67.0953312831982,1.0339171982062687,5.1093957932694565,0.003769810376901658,0.002680837651772542,0.002479973313998157,0.002851701194470493,-585.5596636159352,3685.8330819667067,-53.54003514134846,693.668698732262,3468.4828264468274,-419.8695620798688,Vision,NoMovement,1
0.073,0.010388690416804233,0.010875343118904913,63.82412906657212,67.0953312831982,1.0340381876118325,5.117301612005408,0.0038146513987462934,0.0026893129936757087,0.0024942404851640496,0.002800178752502007,-585.5661385790121,3685.857211487425,-53.53500588502689,693.6072579991165,3468.395475165437,-419.8397646286143,Vision,NoMovement,1
0.074,0.010387540769328912,0.010849244479859165,63.82412906657212,67.0953312831982,1.034158629579721,5.125217306382615,0.003863519688814426,0.002694942300151012,0.002512860433734021,0.002750684399806739,-585.5726135420889,3685.8813410081434,-53.52997662870532,693.545817265971,3468.308123884047,-419.8099671773599,Vision,NoMovement,1
0.075,0.010386426510270344,0.010823622882720553,63.82412906657212,67.0953312831982,1.0342785194648938,5.133142762307547,0.003916520477549438,0.002697571239287138,0.002535883089251879,0.002703678256949764,-585.5790885051657,3685.9054705288613,-53.52494737238375,693.4843765328255,3468.2207726026563,-419.78016972610544,Vision,NoMovement,1
0.076,0.010385347242801874,0.010798534075373503,63.82412906657212,67.0953312831982,1.0343978526250086,5.141077865240235,0.003973792804287812,0.002697079685338779,0.0025633150929421375,0.00265958844785328,-585.5855634682426,3685.9296000495797,-53.51991811606218,693.4229357996801,3468.133421321266,-419.75037227485103,Vision,NoMovement,1
0.077,0.01038430208006209,0.010774027057688852,63.82412906657212,67.0953312831982,1.034516624420658,5.149022500260783,0.004035500487127211,0.002693384160692094,0.0025951177949537075,0.0026188079753890134,-585.5920384313195,3685.953729570298,-53.51488885974061,693.3614950665345,3468.0460700398758,-419.7205748235966,Vision,NoMovement,1
0.078,0.010383289012012607,0.010750144472108864,63.82412906657212,67.0953312831982,1.0346348302155988,5.156976552064574,0.00410182115835195,0.0026864397594541616,0.002631205973382622,0.0025816921381447604,-585.5985133943963,3685.9778590910164,-53.50985960341904,693.3000543333891,3467.9587187584852,-419.69077737234215,Vision,NoMovement,1
0.079,0.010382305315777149,0.010726922985422879,63.82412906657212,67.0953312831982,1.0347524653764697,5.164939904930106,0.004172933818462018,0.002676241548668094,0.00267144725714165,0.0025485564245750847,-585.6045284966367,3686.0008691192793,-53.50093527791136,693.2386136002436,3467.8713674770947,-419.66097992108774,Vision,NoMovement,1
0.08,0.010381348592594871,0.010704393660876643,63.82412906657212,67.0953312831982,1.0348695252735474,5.172912442750164,0.004249005472004728,0.0026628254735553184,0.0027156622094272618,0.002519674785321632,-585.6104608066593,3686.0236775968647,-53.49130969369396,693.1771728670981,3467.784016195704,-419.6311824698333,Vision,NoMovement,1
0.081,0.010380416265341339,0.01068258232000128,63.82412906657212,67.0953312831982,1.03498600528045,5.180894049027606,0.004330177447234715,0.002646268793453715,0.0027636250129855827,0.0024952781726291415,-585.6163931166818,3686.0464860744496,-53.481684109476554,693.1157321339526,3467.696664914314,-419.60138501857887,Vision,NoMovement,1
0.082,0.010379505842421147,0.01066150989366916,63.82412906657212,67.0953312831982,1.0351019007743767,5.188884606878157,0.004416551989276815,0.0026266900504126525,0.002815064687556429,0.002475553256671524,-585.6223254267043,3686.069294552035,-53.47205852525915,693.0542914008072,3467.6093136329237,-419.5715875673244,Vision,NoMovement,1
0.083,0.010378615582034074,0.010641192761974368,63.82412906657212,67.0953312831982,1.0352172071362327,5.196883999026725,0.004508179672408574,0.0026042485482269894,0.0028696667685441228,0.0024606412777701705,-585.6282577367268,3686.09210302962,-53.46243294104175,692.9928506676616,3467.521962351533,-419.54179011607,Vision,NoMovement,1
0.084,0.010377743082672147,0.010621643082607345,63.82412906657212,67.0953312831982,1.0353319197508548,5.204892107838109,0.004605048106090341,0.0025791433093934925,0.002927075395089943,0.0024506370423381134,-585.6341900467494,3686.1149115072053,-53.45280735682435,692.9552503017924,3467.4623912359334,-419.5312052169501,Vision,NoMovement,1
0.085,0.010376884789593222,0.010602869107470391,63.82412906657212,67.0953312831982,1.0354460340067404,5.212908815277638,0.004707072286289241,0.0025516114768905657,0.0029868957904578297,0.002445588096946963,-585.6401223567719,3686.1377199847902,-53.44318177260695,692.9178506872331,3467.4030540472954,-419.52078209994403,Vision,NoMovement,1
0.08600000000000001,0.01037603590875517,0.010584875487341694,63.82412906657212,67.0953312831982,1.035559545296781,5.220934002942566,0.0048140867649267075,0.0025219261335239136,0.0030486971659354862,0.002445494119407861,-585.6460546667944,3686.1605284623756,-53.433556188389545,692.8804510726738,3467.343716858657,-419.51035898293793,Vision,NoMovement,1
0.08700000000000001,0.010375190452357035,0.010567663564460065,63.82412906657212,67.0953312831982,1.03567244901798,5.228967552057771,0.00492583959581633,0.002490393533493557,0.0031120161264660325,0.002450306560710662,-585.6519869768169,3686.183336939961,-53.42393060417214,692.8430514581146,3467.284379670019,-419.4999358659319,Vision,NoMovement,1
0.088,0.010374341496214568,0.0105512316529553,63.82412906657212,67.0953312831982,1.0357847405716827,5.237009343472153,0.005041987836483598,0.0024573497740500915,0.0031763606887964587,0.0024599285600812727,-585.6579192868395,3686.206145417546,-53.41430501995474,692.8056518435553,3467.2250424813806,-419.4895127489258,Vision,NoMovement,1
0.089,0.010373482354816046,0.010535575307104778,63.82412906657212,67.0953312831982,1.0358964153637926,5.245059257689326,0.005162094304759621,0.002423156960766364,0.003241215018512757,0.002474215143181882,-585.663851596862,3686.2289538951313,-53.404679435737336,692.7682522289961,3467.1657052927426,-419.4790896319197,Vision,NoMovement,1
0.09,0.010372607116731934,0.010520687577439328,63.82412906657212,67.0953312831982,1.0360074688045173,5.253117174821742,0.005285625354534423,0.0023881989193771077,0.0033060449469102795,0.002492973714249648,-585.6697839068845,3686.2517623727163,-53.39505385151993,692.7308526144368,3467.106368104104,-419.46866651491365,Vision,NoMovement,1
0.091,0.010371709532959399,0.010506559254769341,63.82412906657212,67.0953312831982,1.0361178963090758,5.261182974656698,0.005411949616139139,0.0023528764912792302,0.0033703042547002576,0.002515964878852848,-585.6757162169071,3686.2745708503016,-53.38542826730253,692.6934529998775,3467.047030915466,-419.45824339790755,Vision,NoMovement,1
0.092,0.010370783958888734,0.010493179102237358,63.82412906657212,67.0953312831982,1.0362276932974313,5.269256536581863,0.005540337845970745,0.002317602442104755,0.003433441610165923,0.002542903669519589,-585.6816485269296,3686.2973793278866,-53.375802683085126,692.6560533853184,3466.9876937268277,-419.44782028090145,Vision,NoMovement,1
0.093,0.010369825754151851,0.010480534075540181,63.82412906657212,67.0953312831982,1.0363368551945145,5.2773377396592815,0.005669964164648439,0.0022827960132577193,0.003494907957399811,0.0025734612647657033,-585.6875808369521,3686.320187805472,-53.36617709886772,692.6186537707591,3466.9283565381897,-419.43739716389535,Vision,NoMovement,1
0.094,0.010368831325012342,0.010468609531495747,63.82412906657212,67.0953312831982,1.0364453774303484,5.2854264625860905,0.005799908967501384,0.002248877155093857,0.003554164075501282,0.002607267270863493,-585.6935131469746,3686.3429962830573,-53.35655151465032,692.5812541561999,3466.8690193495513,-419.4269740468893,Vision,NoMovement,1
0.095,0.010367797625449697,0.010457389425157023,63.82412906657212,67.0953312831982,1.03655325544026,5.29352258373267,0.005929163694406257,0.002216260501782314,0.0036106880118134204,0.0026439125942696535,-585.6984744258845,3686.36652800367,-53.34629903638042,692.5438545416406,3466.8096821609133,-419.4165509298832,Vision,NoMovement,1
0.096,0.010366721547737798,0.010446856495700397,63.82412906657212,67.0953312831982,1.0366604846646326,5.301625981102988,0.006056637522238217,0.002185349187463658,0.003663982118889963,0.0026829528958898655,-585.7019438037726,3686.3911709214394,-53.33508339239401,692.5064549270813,3466.750344972275,-419.4061278128771,Vision,NoMovement,1
0.097,0.010365600593469033,0.0104369924413388,63.82412906657212,67.0953312831982,1.0367670605495953,5.309736532359786,0.006181165984388695,0.0021565286482734002,0.003713579482604344,0.002723912614492991,-585.7054131816606,3686.4158138392086,-53.3238677484076,692.4690553125221,3466.691007783637,-419.3957046958711,Vision,NoMovement,1
0.098,0.0103644320569065,0.010427778083527496,63.82412906657212,67.0953312831982,1.0368729785467639,5.317854114848407,0.006301521560446051,0.002130160591541902,0.003759049580995612,0.002766289570486961,-585.7088825595487,3686.440456756978,-53.31265210442119,692.4316556979628,3466.6316705949985,-419.385281578865,Vision,NoMovement,1
0.099,0.010363212956878011,0.010419193520747595,63.82412906657212,67.0953312831982,1.0369782341134601,5.32597860555727,0.00641642639689318,0.0021065773265128186,0.0038000030594680114,0.0028095601899037724,-585.7123519374368,3686.4650996747478,-53.30143646043477,692.3942560834035,3466.5723334063605,-419.3748584618589,Vision,NoMovement,1
0.1,0.010361941342802685,0.010411218272166267,63.82412906657212,67.0953312831982,1.0370828227129185,5.334109881149722,0.0065245674065553365,0.002086076633100538,0.0038360955561907734,0.002853185390838774,-585.7158213153249,3686.4897425925174,-53.29022081644836,692.3613936885484,3466.516013394764,-419.3695342496928,Vision,NoMovement,1
0.101,0.010360615623531364,0.01040383141148206,63.82412906657212,67.0953312831982,1.0371867398140495,5.342247817959972,0.006624613965898059,0.002068917294281892,0.0038670305559669656,0.0028966171359317457,-585.7192906932129,3686.5143855102865,-53.27900517246195,692.3356285791917,3466.464412962174,-419.3721859315186,Vision,NoMovement,1
0.10200000000000001,0.010359234287968682,0.010397011691276391,63.82412906657212,67.0953312831982,1.0372899808921068,5.350392291996272,0.006715238266421205,0.002055315353097627,0.0038925612829221364,0.0029393055956433174,-585.722760071101,3686.539028428056,-53.26778952847554,692.3098634698349,3466.412812529584,-419.37483761334437,Vision,NoMovement,1
0.10300000000000001,0.01035779709525499,0.010390737658194113,63.82412906657212,67.0953312831982,1.0373925414284382,5.3585431789439175,0.006795138131376398,0.0020454411020557096,0.003912491664427898,0.0029807068159230067,-585.7262294489891,3686.5636713458257,-53.25657388448913,692.2840983604782,3466.3612120969938,-419.37748929517016,Vision,NoMovement,1
0.10400000000000001,0.01035630430000635,0.01038498775928719,63.82412906657212,67.0953312831982,1.0374944169106974,5.366700354161885,0.006863061859556834,0.002039416780839454,0.003926676433871305,0.0030202907613620057,-585.7296988268772,3686.588314263595,-53.24535824050271,692.2583332511214,3466.309611664404,-419.38014097699596,Vision,NoMovement,1
0.105,0.010354757421636558,0.010379740439852889,63.82412906657212,67.0953312831982,1.0375956028329663,5.37486369271381,0.006917834417206438,0.002037314950481686,0.003935020486281035,0.003057549603154922,-585.7331682047653,3686.6129571813644,-53.2341425965163,692.2325681417645,3466.258011231814,-419.38279265882176,Vision,NoMovement,1
0.106,0.01035315923616671,0.010374974233103991,63.82412906657212,67.0953312831982,1.0376960946959535,5.383033069322041,0.006958384080852222,0.0020391575246277846,0.0039374776308009896,0.003092006114475996,-585.7366375826533,3686.637600099134,-53.22292695252989,692.2068030324078,3466.206410799224,-419.38544434064755,Vision,NoMovement,1
0.107,0.01035151368379057,0.010370667842004924,63.82412906657212,67.0953312831982,1.037795888006771,5.391208358434169,0.006983768474830993,0.0020449154660572492,0.003934048881926744,0.0031232220112358254,-585.7401069605414,3686.6622430169036,-53.21171130854348,692.181037923051,3466.154810366634,-419.3880960224734,Vision,NoMovement,1
0.108,0.010349824636972992,0.010366800213610495,63.82412906657212,67.0953312831982,1.0378949782795757,5.399389434148066,0.00699319891976106,0.0020545091887945012,0.00392478040117023,0.0031508060345703725,-585.7435763384295,3686.686885934673,-53.20049566455707,692.1552728136943,3466.103209934044,-419.3907477042992,Vision,NoMovement,1
0.109,0.01034809627816512,0.010363350606237002,63.82412906657212,67.0953312831982,1.037993361035333,5.407576170280258,0.006986062135552942,0.0020678097280469707,0.003909761156067591,0.0031744215411252537,-585.7470457163176,3686.7115288524424,-53.18928002057065,692.1295077043375,3466.051609501454,-419.393399386125,Vision,NoMovement,1
0.11,0.010346334096505126,0.01036029864979396,63.82412906657212,67.0953312831982,1.0380910318020227,5.415768440361044,0.006961938559704331,0.0020846407351226837,0.003889120327861547,0.003193793356553128,-585.7505150942056,3686.736171770212,-53.17806437658424,692.1037425949806,3466.0000090688645,-419.3960510679508,Vision,NoMovement,1
0.111,0.01034454396025055,0.010357624399600345,63.82412906657212,67.0953312831982,1.0381879861148335,5.423966117602168,0.006920616727527989,0.0021047813128509856,0.003863024503040476,0.003208713667356703,-585.7539844720937,3686.7608146879816,-53.16684873259783,692.0779774856239,3465.9484086362745,-419.3987027497766,Vision,NoMovement,1
0.112,0.010342732976213303,0.010355308384002771,63.82412906657212,67.0953312831982,1.0382842195159483,5.432169074928961,0.006862103242088378,0.0021279696392378427,0.003831674730162971,0.003219046762629931,-585.7567520141164,3686.7934278317316,-53.15860863161657,692.0522123762671,3465.8968082036845,-419.4013544316024,Vision,NoMovement,1
0.113,0.010340908852547372,0.01035333164610456,63.82412906657212,67.0953312831982,1.0383797275551638,5.440377184976368,0.0067866278538520316,0.0021539072571900276,0.003795303582188878,0.0032247324724769977,-585.7594756194535,3686.826539931618,-53.150554807090224,692.0264472669103,3465.8452077710945,-419.4040061134282,Vision,NoMovement,1
0.114,0.01033907885330681,0.010351675779911326,63.82412906657212,67.0953312831982,1.0384745057896643,5.448590320092053,0.006694643186198214,0.0021822638554972523,0.0037541723952097266,0.0032257881700890863,-585.7621992247907,3686.859652031504,-53.142500982563874,692.0006821575536,3465.7936073385044,-419.406657795254,Vision,NoMovement,1
0.115,0.010337249602490274,0.010350322961186934,63.82412906657212,67.0953312831982,1.0385685497841488,5.456808352333183,0.006586818805700552,0.0022126823454718253,0.003708568836922283,0.0032223092132417303,-585.764922830128,3686.89276413139,-53.134447158037524,691.9749170481967,3465.7420069059144,-419.4093094770798,Vision,NoMovement,1
0.116,0.010335427070929035,0.010349255973307074,63.82412906657212,67.0953312831982,1.0386618551114108,5.465031153497715,0.006464029684745354,0.0022447840505472336,0.0036588048986310505,0.0032144677137721047,-585.767646435465,3686.925876231276,-53.12639333351117,691.94915193884,3465.690406473325,-419.41196115890557,Vision,NoMovement,1
0.117,0.01033361659764647,0.01034845822838861,63.82412906657212,67.0953312831982,1.0387544173513303,5.473258595084807,0.006327339526908833,0.0022781738665209493,0.0036052153355079124,0.0032025095475203052,-585.7703700408023,3686.9589883311623,-53.11833950898482,691.922940689235,3465.6406263929407,-419.410345154203,Vision,NoMovement,1
0.11800000000000001,0.010331822921469287,0.010347913783962007,63.82412906657212,67.0953312831982,1.038846232092286,5.481490548327076,0.006177979731467977,0.0023124453033154316,0.003548156520876816,0.0031867495559293707,-585.7730936461394,3686.9921004310486,-53.11028568445847,691.8966096343607,3465.591335144908,-419.40758311675353,Vision,NoMovement,1
0.11900000000000001,0.010330050232165934,0.010347607355446037,63.82412906657212,67.0953312831982,1.0389372949305278,5.489726884186469,0.006017324908967043,0.0023471853527509945,0.0034880056288861595,0.003167564953009033,-585.7758172514766,3687.025212530935,-53.10223185993212,691.8702785794865,3465.542043896875,-419.40482107930404,Vision,NoMovement,1
0.12,0.010328302455933244,0.010347524324673374,63.82412906657212,67.0953312831982,1.0390276014704565,5.497967473351124,0.005846865843339411,0.0023819791388511517,0.0034251599976136498,0.0031453870437985515,-585.7785408568138,3687.058324630821,-53.09417803540577,691.8439475246121,3465.4927526488423,-419.40205904185456,Vision,NoMovement,1
0.121,0.010326583799549585,0.01034765074470434,63.82412906657212,67.0953312831982,1.0391171473248035,5.5062121862664855,0.005668180779143174,0.0024164143043708558,0.0033600364671394828,0.0031206914789940676,-585.781264462151,3687.0914367307073,-53.08612421087941,691.8176164697378,3465.443461400809,-419.399297004405,Vision,NoMovement,1
0.122,0.010324898261773461,0.010347973341157349,63.82412906657212,67.0953312831982,1.039205928114438,5.5144608930894545,0.005482905931675853,0.0024500851061998717,0.003293070460296882,0.0030939873908625935,-585.7839880674882,3687.1245488305935,-53.07807038635306,691.7912854148635,3465.3941701527765,-419.3965349669555,Vision,NoMovement,1
0.123,0.010323249401911403,0.010348479510273895,63.82412906657212,67.0953312831982,1.0392939394689418,5.52271346375515,0.0052927061488847165,0.002482596239203219,0.0032247145836604967,0.0030658058347653705,-585.7867116728253,3687.15766093048,-53.07001656182671,691.7649543599891,3465.3448789047434,-419.39377292950604,Vision,NoMovement,1
0.124,0.010321640342931461,0.010349157313923319,63.82412906657212,67.0953312831982,1.039381177026403,5.530969767901886,0.005099246649895279,0.002513566456193149,0.003155436577540977,0.003036687976514845,-585.7894352781625,3687.1907730303656,-53.06196273730036,691.7386233051149,3465.2955876567107,-419.39101089205656,Vision,NoMovement,1
0.125,0.010320073792638404,0.010349995471745262,63.82412906657212,67.0953312831982,1.0394676364335997,5.539229674940046,0.0049041666782062895,0.002542632080945976,0.0030857165105448326,0.003007173423962768,-585.7921588834997,3687.223885130252,-53.053908912774006,691.7122922502406,3465.246296408678,-419.38824885460707,Vision,NoMovement,1
0.126,0.010318552067934195,0.010350983350616154,63.82412906657212,67.0953312831982,1.039553313346046,5.547493054047146,0.004709055771527708,0.0025694505153217736,0.0030160431987067827,0.00297778903453593,-585.7948824888368,3687.256997230138,-53.045855088247656,691.6859611953662,3465.197005160645,-419.3854868171575,Vision,NoMovement,1
0.127,0.010317077119096046,0.010352110951613197,63.82412906657212,67.0953312831982,1.0396382034285172,5.555759774135578,0.004515433178331681,0.00259370382650934,0.0029469099068319274,0.002949038448433531,-585.7976060941741,3687.2901093300243,-53.037801263721306,691.6596301404919,3465.1477139126123,-419.38272477970804,Vision,NoMovement,1
0.128,0.010315650553461841,0.010353368894645106,63.82412906657212,67.0953312831982,1.0397223023541444,5.564029703884794,0.004324730779871997,0.002615102458598732,0.0028788094589375195,0.002921392514488939,-585.8019154087282,3687.327109176004,-53.03194252071904,691.6332990856175,3465.098422664579,-419.37996274225856,Vision,NoMovement,1
0.129,0.01031427365840892,0.010354748400902218,63.82412906657212,67.0953312831982,1.0398056058056957,5.572302711731007,0.004138279693786353,0.0026333890463330146,0.002812228925092206,0.00289528071242586,-585.8078889963747,3687.368189386242,-53.028387614433385,691.6069680307432,3465.0491314165465,-419.37720070480907,Vision,NoMovement,1
0.13,0.010312947423583404,0.010356241273274381,63.82412906657212,67.0953312831982,1.0398881094750125,5.580578665898527,0.003957300599247502,0.0026483422341275834,0.0027476440413531484,0.0028710836436017825,-585.8138625840212,3687.4092695964805,-53.024832708147734,691.580636975869,3464.9998401685134,-419.3744386673596,Vision,NoMovement,1
0.131,0.010311672562356164,0.010357839874872501,63.82412906657212,67.0953312831982,1.0399698090632636,5.588857434360238,0.0037828976693070203,0.0026597803630167855,0.002685513477592261,0.0028491266563695668,-585.8198361716677,3687.450349806719,-53.02127780186208,691.5543059209946,3464.9505489204807,-419.3716766299101,Vision,NoMovement,1
0.132,0.01031044953249112,0.010359537105781679,63.82412906657212,67.0953312831982,1.0400507002811117,5.59713888487006,0.003616055868110832,0.002667564888700881,0.0026262730248836886,0.00282967466688303,-585.8258097593142,3687.491430016957,-53.01772289557642,691.5279748661203,3464.9012576724476,-419.36891459246056,Vision,NoMovement,1
0.133,0.010309278556012762,0.010361326378165303,63.82412906657212,67.0953312831982,1.0401307788485443,5.605422884959087,0.003457641234853437,0.0026716034177584544,0.0025703297671212746,0.0028129282175667126,-585.8317833469606,3687.5325102271954,-53.01416798929076,691.5052942035074,3464.8669786636992,-419.3658608282689,Vision,NoMovement,1
0.134,0.010308159638267004,0.010363201589830827,63.82412906657212,67.0953312831982,1.040210040495393,5.6137093019390445,0.0033084036628671454,0.0026718522638976604,0.0025180563239815042,0.002799020778849262,-585.8377569346071,3687.5735904374337,-53.010613083005104,691.4985216711889,3464.8981218456192,-419.3615357412461,Vision,NoMovement,1
0.135,0.010307092586170586,0.010365157096358931,63.82412906657212,67.0953312831982,1.0402884809611528,5.621998002905524,0.003168981621973057,0.0026683184239673866,0.0024697852823784474,0.002788017262132648,-585.8437305222536,3687.6146706476716,-53.00705817671945,691.4917491388703,3464.9292650275397,-419.35721065422325,Vision,NoMovement,1
0.136,0.01030607702565065,0.010367187681893446,63.82412906657212,67.0953312831982,1.0403660959951508,5.63028885473508,0.0030399082504641035,0.0026610608668747584,0.0024258039450453586,0.0027799136927307982,-585.8497041099001,3687.65575085791,-53.0035032704338,691.4849766065519,3464.9604082094597,-419.3528855672004,Vision,NoMovement,1
0.137,0.0103051124182757,0.010369288528677573,63.82412906657212,67.0953312831982,1.0404428813565942,5.638581724116311,0.0029216182647152263,0.002650191020353499,0.0023863495245396416,0.0027746379939904663,-585.8556776975466,3687.696831068148,-52.99994836414814,691.4782040742333,3464.99155139138,-419.3485604801776,Vision,NoMovement,1
0.138,0.010304198077084829,0.010371455185419378,63.82412906657212,67.0953312831982,1.0405188328150365,5.646876477504293,0.002814455173664886,0.00263587232031091,0.0023516049199694628,0.0027720518444794007,-585.8616512851931,3687.7379112783865,-52.99639345786248,691.4714315419147,3465.0226945733007,-419.34423539315475,Vision,NoMovement,1
0.139,0.010303333181623185,0.010373683534561567,63.82412906657212,67.0953312831982,1.0405939461495783,5.655172981187259,0.0027186783488834204,0.002618318660162038,0.0023216952263761946,0.0027719535805422676,-585.8676248728395,3687.778991488625,-52.992838551576824,691.4646590095963,3465.0538377552207,-419.3399103061319,Vision,NoMovement,1
0.14,0.010302516792194264,0.010375969758524253,63.82412906657212,67.0953312831982,1.0406682171500117,5.663471101211825,0.002634469579100279,0.002597791576316598,0.002296685125552572,0.0027740821313791382,-585.873598460486,3687.820071698863,-52.98928364529117,691.4578864772777,3465.084980937141,-419.335585219109,Vision,NoMovement,1
0.14100000000000001,0.010301747863341707,0.010378310304985506,63.82412906657212,67.0953312831982,1.0407416416163229,5.671770703452045,0.0025619388545027747,0.0025745960666289855,0.0022765772756919273,0.0027781219937903097,-585.8795720481326,3687.8611519091014,-52.98572873900551,691.4511139449592,3465.116124119061,-419.3312601320862,Vision,NoMovement,1
0.14200000000000002,0.01030102525657619,0.010380701851259683,63.82412906657212,67.0953312831982,1.0408142153589213,5.680071653604402,0.0025011292286103424,0.0025490750451227693,0.0022613117817360125,0.0027837092698814996,-585.8855456357791,3687.9022321193397,-52.98217383271986,691.4443414126407,3465.1472673009816,-419.32693504506335,Vision,NoMovement,1
0.14300000000000002,0.010300347752361856,0.01038314126782806,63.82412906657212,67.0953312831982,1.0408859341987893,5.688373817155757,0.0024520207105824515,0.002521602549086775,0.0022507667989792365,0.002790438787129684,-585.8915192234256,3687.9433123295776,-52.9786189264342,691.4375688803221,3465.178410482902,-419.3226099580405,Vision,NoMovement,1
0.14400000000000002,0.010299714061381549,0.010385625581074236,63.82412906657212,67.0953312831982,1.0409567939673394,5.69667705941585,0.0024145332311797836,0.0024925759011934397,0.002244760299016789,0.0027978722879293976,-585.8976962289144,3687.984671198382,-52.975138101586225,691.4307963480036,3465.209553664822,-419.3182848710177,Vision,NoMovement,1
0.145,0.010299122835099627,0.01038815193527314,63.82412906657212,67.0953312831982,1.0410267905068755,5.704981245513525,0.0023885288052441288,0.0024624070939230813,0.002243052996198649,0.00280554762612724,-585.9095251359638,3688.033772508884,-52.973715606472844,691.4240238156851,3465.2406968467426,-419.31395978399485,Vision,NoMovement,1
0.146,0.010298572675641028,0.010390717553879712,63.82412906657212,67.0953312831982,1.0410959196704355,5.713286240400001,0.0023738130670530456,0.0024315137206392524,0.0022453523968180996,0.0028129888691760677,-585.9213540430133,3688.082873819386,-52.972293111359456,691.4172512833666,3465.2718400286626,-419.309634696972,Vision,NoMovement,1
0.147,0.010298062145009996,0.010393319700162787,63.82412906657212,67.0953312831982,1.0411641773219469,5.721591908846109,0.0023701363630591822,0.0024003098145240574,0.0022513179022932077,0.0028197171940764054,-585.9331829500627,3688.1319751298875,-52.970870616246074,691.410478751048,3465.302983210583,-419.3053096099492,Vision,NoMovement,1
0.148,0.01029758977366784,0.010395955637226154,63.82412906657212,67.0953312831982,1.041231559336271,5.729898115473541,0.0023771945546263436,0.002369196953169747,0.0022605668667513416,0.002825262468496469,-585.9450118571121,3688.1810764403895,-52.969448121132686,691.4037062187296,3465.3341263925035,-419.30098452292634,Vision,NoMovement,1
0.149,0.01029715406849338,0.010398622587461204,63.82412906657212,67.0953312831982,1.0412980615996146,5.738204724715585,0.0023946296245578643,0.0023385559387052875,0.002272681469298977,0.0028291753853680046,-585.9568407641617,3688.2301777508915,-52.968025626019305,691.396933686411,3465.3652695744236,-419.2966594359035,Vision,NoMovement,1
0.15,0.010296753520149504,0.010401317691471967,63.82412906657212,67.0953312831982,1.0413636800088364,5.74651160084963,0.0024220301273891,0.0023087393010704014,0.002287216218914425,0.002831039944002611,-585.9686696712112,3688.279279061393,-52.966603130905916,691.4194064376808,3465.5022408364716,-419.30414919991296,Vision,NoMovement,1
0.151,0.010296386609876713,0.010404037966517917,63.82412906657212,67.0953312831982,1.0414284104724507,5.754818607993159,0.0024589315129015274,0.002280064820519818,0.0023037058841601163,0.002830485956109792,-585.9804985782606,3688.328380371895,-52.965180635792535,691.4626284579706,3465.7142961816603,-419.3200214958188,Vision,NoMovement,1
0.152,0.010296051815740576,0.01040678026451828,63.82412906657212,67.0953312831982,1.0414922489101937,5.763125610101048,0.002504816391425907,0.0022528102360190945,0.002321673643912863,0.002827201140141963,-585.99232748531,3688.377481682397,-52.96375814067915,691.5058504782603,3465.926351526849,-419.3358937917247,Vision,NoMovement,1
0.153,0.010295747618353676,0.010409541229664483,63.82412906657212,67.0953312831982,1.0415551912532315,5.771432470996488,0.0025591148732561258,0.0022272092697300434,0.002340639284528047,0.0028209422861359876,-586.0041563923596,3688.4265829928986,-52.96233564556576,691.54907249855,3466.1384068720376,-419.35176608763055,Vision,NoMovement,1
0.154,0.010295472506097456,0.010412317255693209,63.82412906657212,67.0953312831982,1.041617233444291,5.779739054325852,0.0026212051506647118,0.002203449042859433,0.002360127308396382,0.002811544949494334,-586.0159852994091,3688.4756843034006,-52.96091315045238,691.5922945188398,3466.3504622172263,-419.3676383835364,Vision,NoMovement,1
0.155,0.010295224979867361,0.010415104442885067,63.82412906657212,67.0953312831982,1.0416783714375422,5.788045223624993,0.0026904144794891887,0.0021816688787308224,0.0023796748553481174,0.002798931184112651,-586.0278142064585,3688.5247856139026,-52.95949065533899,691.6355165391295,3466.5625175624155,-419.3835106794423,Vision,NoMovement,1
0.156,0.01029500355736418,0.010417898554925005,63.82412906657212,67.0953312831982,1.0417386011990009,5.796350842244992,0.0027660206732457015,0.002161960406120501,0.0023988393617152253,0.0027831149509919754,-586.039643113508,3688.5738869244046,-52.95806816022561,691.6787385594193,3466.774572907604,-419.39938297534815,Vision,NoMovement,1
0.157,0.010294806776955764,0.010420694976053524,63.82412906657212,67.0953312831982,1.0417979187063977,5.804655773421114,0.00284725418541686,0.002144368811534808,0.0024172058953771777,0.002764204987703109,-586.0457493491293,3688.597494377198,-52.95658839672133,691.721960579709,3466.986628252793,-419.415255271254,Vision,NoMovement,1
0.158,0.010294633201131968,0.010423488671002549,63.82412906657212,67.0953312831982,1.041856319949313,5.812959880267717,0.002933300873841562,0.00212889504737914,0.0024343941032130153,0.002742405039030189,-586.0493425532406,3688.609906557201,-52.95508348460026,691.7651825999988,3467.1986835979815,-419.4311275671599,Vision,NoMovement,1
0.159,0.010294481419574968,0.010426274161625036,63.82412906657212,67.0953312831982,1.041913800929222,5.821263025746505,0.0030233056026465126,0.0021154987843754382,0.002450064688956201,0.002718011424614792,-586.0529357573521,3688.622318737204,-52.95357857247918,691.8084046202886,3467.41073894317,-419.44699986306574,Vision,NoMovement,1
0.16,0.010294350051868361,0.010429045584624392,63.82412906657212,67.0953312831982,1.0419703576598465,5.829565072698702,0.0031163768911975256,0.0021041018982110916,0.0024639252980851426,0.002691408004277089,-586.0565289614634,3688.634730917207,-52.9520736603581,691.8516266405783,3467.6227942883593,-419.4628721589716,Vision,NoMovement,1
0.161,0.010294237749866196,0.010431797094639421,63.82412906657212,67.0953312831982,1.0420259861665726,5.837865883835189,0.0032115928087886212,0.0020945922978755672,0.0024757356345951253,0.002663058715865269,-586.0601221655749,3688.6471430972097,-52.95056874823703,691.894848660868,3467.834849633548,-419.47874445487747,Vision,NoMovement,1
0.162,0.010294143199744149,0.010434523034269802,63.82412906657212,67.0953312831982,1.0420806824873068,5.846165321767532,0.003308008250739109,0.002086827923667715,0.002485311608708991,0.0026334979643249296,-586.0637153696862,3688.659555277213,-52.949063836115954,691.9380706811578,3468.0469049787366,-419.49461675078334,Vision,NoMovement,1
0.163,0.010294065123752926,0.010437218050954652,63.82412906657212,67.0953312831982,1.042134442672112,5.854463248969037,0.003404663634485385,0.0020806407656167834,0.002492528344490416,0.002603319201065228,-586.0673085737976,3688.6719674572155,-52.94755892399488,691.9812927014475,3468.2589603239253,-419.5104890466892,Vision,NoMovement,1
0.164,0.010294002281695344,0.010439876996417616,63.82412906657212,67.0953312831982,1.042187262783388,5.862759527807178,0.0035005949951596,0.0020758407844011827,0.0024973219468798174,0.0025731620579338144,-586.070901777909,3688.6843796372186,-52.946054011873805,692.0245147217373,3468.471015669114,-419.52636134259507,Vision,NoMovement,1
0.165,0.01029395347214631,0.010442495084620378,63.82412906657212,67.0953312831982,1.0422391388959875,5.871054020539913,0.003594845425748315,0.0020722196686869055,0.002499689980998827,0.0025436984207794296,-586.0744949820203,3688.6967918172218,-52.94454909975273,692.067736742027,3468.683071014303,-419.54223363850093,Vision,NoMovement,1
0.166,0.010293917533435672,0.010445068035197748,63.82412906657212,67.0953312831982,1.0422900670971211,5.8793465893192876,0.003686477797341143,0.002069554422187273,0.0024996906225115962,0.0025156178419102086,-586.0780881861317,3688.7092039972244,-52.943044187631656,692.1109587623167,3468.8951263594918,-419.5581059344068,Vision,NoMovement,1
0.167,0.010293893344411399,0.010447591961203548,63.82412906657212,67.0953312831982,1.0423400434867,5.887637096194761,0.003774588677442795,0.002067610815326467,0.002497440425661932,0.002489612680603682,-586.081681390243,3688.7216161772276,-52.94153927551058,692.1938473491382,3469.2610678233405,-419.5955552744427,Vision,NoMovement,1
0.168,0.010293879825003207,0.010450063404573325,63.82412906657212,67.0953312831982,1.0423890641772293,5.89592540311071,0.0038583233112152457,0.0020661467480427103,0.002493110676192741,0.002466363315051784,-586.0852745943545,3688.7340283572303,-52.9400343633895,692.2774096453506,3469.629622937231,-419.6333710857549,Vision,NoMovement,1
0.169,0.01029387593660201,0.01045247906654731,63.82412906657212,67.0953312831982,1.0424371252939273,5.904211371937019,0.003936891450453711,0.0020649155634458755,0.002486922363890303,0.0024465237024534517,-586.0888677984658,3688.7464405372334,-52.93852945126843,692.3609719415632,3469.998178051122,-419.67118689706706,Vision,NoMovement,1
0.17,0.010293880682273559,0.010454836072555226,63.82412906657212,67.0953312831982,1.042484222974766,5.912494864424549,0.004009583712327651,0.0020636693382754916,0.0024791398956832667,0.002430707505744496,-586.0924610025772,3688.758852717236,-52.93702453914735,692.4445342377757,3470.366733165013,-419.7090027083792,Vision,NoMovement,1
0.171,0.010293893106821436,0.010457132196235033,63.82412906657212,67.0953312831982,1.0425303533707626,5.920775742270767,0.004075788038626434,0.002062162155084287,0.0024700637388892516,0.0024194749788776365,-586.0960542066886,3688.7712648972392,-52.935519627026274,692.5280965339882,3470.735288278904,-419.7468185196914,Vision,NoMovement,1
0.17200000000000001,0.010293912296715798,0.010459365681793276,63.82412906657212,67.0953312831982,1.0425755126455156,5.929053867046319,0.004135005703862529,0.002060153340024647,0.002460022220675852,0.002413320817392552,-586.0996474108,3688.7836770772424,-52.9340147149052,692.6116588302007,3471.103843392795,-419.78463433100353,Vision,NoMovement,1
0.17300000000000001,0.010293937379902156,0.010461534902980095,63.82412906657212,67.0953312831982,1.0426196969759036,5.937329100263533,0.004186866218813185,0.0020574106444456006,0.0024493627179971457,0.002412663215640611,-586.1032406149113,3688.796089257245,-52.932509802784125,692.6952211264132,3471.472398506686,-419.8224501423157,Vision,NoMovement,1
0.17400000000000002,0.010293967525504285,0.010463637875010616,63.82412906657212,67.0953312831982,1.042662902551797,5.9456013033712845,0.004231140413357402,0.0020537133588072885,0.002438442476170317,0.0024178343949799864,-586.1068338190228,3688.808501437248,-52.931004890663054,692.7787834226257,3471.8409536205772,-419.86026595362785,Vision,NoMovement,1
0.17500000000000002,0.0102940019434357,0.010465672747384866,63.82412906657212,67.0953312831982,1.0427051255762074,5.95387033772365,0.004267750996955561,0.0020488553537889604,0.002427619315971142,0.002429072849964796,-586.1104270231341,3688.820913617251,-52.929499978541976,692.8623457188381,3472.2095087344683,-419.89808176494,Vision,NoMovement,1
0.176,0.010294039883931941,0.01046763807097126,63.82412906657212,67.0953312831982,1.0427463622653852,5.962136064612149,0.004296779967979633,0.0020426480326143485,0.002417242522946261,0.002446517505937526,-586.1140202272454,3688.833325797254,-52.9279950664209,692.9459080150507,3472.5780638483593,-419.9358975762522,Vision,NoMovement,1
0.177,0.010294080637015934,0.010469532396788404,63.82412906657212,67.0953312831982,1.042786608848754,5.970398345261827,0.00431847237360508,0.0020349231565079174,0.0024076442225500158,0.0024702039088613315,-586.1176134313569,3688.8457379772567,-52.92649015429983,693.0294703112631,3472.9466189622503,-419.9737133875644,Vision,NoMovement,1
0.178,0.010294123531908653,0.010471353498743181,63.82412906657212,67.0953312831982,1.0428258615691828,5.978657040828887,0.004333236067653561,0.0020255354851959344,0.002399131508900128,0.0025000624980956207,-586.1212066354682,3688.85815015726,-52.92498524217875,693.1130326074757,3473.3151740761414,-420.01152919887653,Vision,NoMovement,1
0.179,0.01029416793639587,0.010473098762406794,63.82412906657212,67.0953312831982,1.0428641166829113,5.986912012431315,0.004341637227010802,0.0020143651648597345,0.0023919795304156023,0.002535918958119862,-586.1247998395796,3688.870562337263,-52.92348033005767,693.1965949036882,3473.6837291900324,-420.0493450101887,Vision,NoMovement,1
0.18,0.010294213256160908,0.01047476622899078,63.82412906657212,67.0953312831982,1.0429013704596508,5.995163121110472,0.004344391480498756,0.0020013197972922154,0.0023864256743357584,0.0025774966022842033,-586.128393043691,3688.8829745172657,-52.9219754179366,693.2801571999007,3474.0522843039234,-420.08716082150085,Vision,NoMovement,1
0.181,0.010294258934094658,0.01047635448076426,63.82412906657212,67.0953312831982,1.0429376191826731,6.00341022786324,0.004342350650628417,0.001986336132724402,0.002382664954688976,0.0026244206993834393,-586.1319862478024,3688.895386697269,-52.92047050581552,693.3637194961132,3474.4208394178145,-420.124976632813,Vision,NoMovement,1
0.182,0.010294304449590121,0.010477862595653559,63.82412906657212,67.0953312831982,1.0429728591487586,6.0116531936381215,0.004336485355226696,0.001969381340314675,0.0023808466927941322,0.0026762246018572243,-586.1355794519137,3688.9077988772715,-52.91896559369445,693.4472817923257,3474.7893945317055,-420.16279244412516,Vision,NoMovement,1
0.183,0.010294349317832326,0.01047929008937967,63.82412906657212,67.0953312831982,1.0430070866684389,6.019891879332925,0.004327863999139096,0.001950453827170727,0.002381072565013316,0.0027323574846007063,-586.1391726560252,3688.9202110572746,-52.917460681573374,693.528029444908,3475.1589837833976,-420.1998896100304,Vision,NoMovement,1
0.184,0.010294393089090232,0.010480637004268318,63.82412906657212,67.0953312831982,1.0430402980659323,6.0281261458252375,0.004317628892772062,0.001929583604404922,0.0023833960616157146,0.002792193471436332,-586.1427658601365,3688.9326232372773,-52.915955769452296,693.6042164063377,3475.5302486941573,-420.2358223231025,Vision,NoMovement,1
0.185,0.01029443534801815,0.010481903464659744,63.82412906657212,67.0953312831982,1.0430724896792374,6.036355853933884,0.0043069703050843166,0.0019068322296542108,0.0023878233454469673,0.0028550419258792457,-586.1463590642479,3688.9450354172805,-52.914450857331225,693.6804033677673,3475.901513604917,-420.2717550361746,Vision,NoMovement,1
0.186,0.01029447571297523,0.01048308968181491,63.82412906657212,67.0953312831982,1.0431036578602126,6.044580864445389,0.004297099221881474,0.0018822923793877073,0.0023943154229939157,0.0029201587169307235,-586.1464694897087,3688.949969544919,-52.910787518830475,693.756590329197,3476.272778515677,-420.3076877492468,Vision,NoMovement,1
0.187,0.010294513835367544,0.01048419636485759,63.82412906657212,67.0953312831982,1.0431337989745366,6.05280103814304,0.004289219498418394,0.0018560871133942525,0.0024027914600364964,0.002986758314038832,-586.1462007043368,3688.9540894495626,-52.906889167213194,693.8327772906267,3476.644043426437,-420.3436204623189,Vision,NoMovement,1
0.188,0.0102945493990199,0.010485224700740568,63.82412906657212,67.0953312831982,1.043162909401919,6.0610162357417545,0.004284500006966871,0.0018283688839520814,0.0024131330136484054,0.003054026593200465,-586.145931918965,3688.9582093542062,-52.90299081559591,693.9089642520564,3477.0153083371965,-420.379553175391,Vision,NoMovement,1
0.189,0.010294582119582597,0.010486176179595921,63.82412906657212,67.0953312831982,1.0431909855360517,6.06922631795584,0.004284047295480524,0.0017993183125098876,0.002425188926315946,0.003121134232984563,-586.1456631335931,3688.9623292588494,-52.89909246397863,693.985151213486,3477.386573247956,-420.41548588846314,Vision,NoMovement,1
0.19,0.010294611743977904,0.0104870528159951,63.82412906657212,67.0953312831982,1.0432180237846904,6.077431145493801,0.004288879210218544,0.0017691427159209567,0.0024387806285396914,0.003187250542685681,-586.1453943482212,3688.966449163493,-52.89519411236135,694.0613381749157,3477.757838158716,-420.45141860153524,Vision,NoMovement,1
0.191,0.010294638049890639,0.010487856978460794,63.82412906657212,67.0953312831982,1.043244020569711,6.085630579027511,0.004299899922839828,0.0017380743389251985,0.002453707611071123,0.0032515575274210677,-586.1451255628493,3688.9705690681367,-52.89129576074407,694.1375251363454,3478.129103069476,-420.48735131460734,Vision,NoMovement,1
0.192,0.010294660845307217,0.010488590969780245,63.82412906657212,67.0953312831982,1.0432689723271795,6.0938244792237715,0.004317876830109755,0.0017063682517627953,0.0024697528519679645,0.0033132639614039004,-586.1448567774775,3688.9746889727803,-52.8873974091268,694.213712097775,3478.5003679802358,-420.5232840276795,Vision,NoMovement,1
0.193,0.010294679968106119,0.010489257078456517,63.82412906657212,67.0953312831982,1.043292875507325,6.10201270673496,0.004343419805630792,0.0016742998956542948,0.002486688016617189,0.0033716192079126747,-586.1445879921056,3688.9788088774235,-52.88349905750952,694.2898990592047,3478.8716328909954,-420.5592167407516,Vision,NoMovement,1
0.194,0.010294695285703046,0.01048985768758755,63.82412906657212,67.0953312831982,1.0433157265747166,6.110195122229152,0.004376963237052189,0.0016421622855974677,0.002504278282977663,0.00342592649215045,-586.1443192067337,3688.982928782067,-52.87960070589224,694.3660860206344,3479.242897801755,-420.5951494538237,Vision,NoMovement,1
0.195,0.010294706694753065,0.010490395022429067,63.82412906657212,67.0953312831982,1.0433375220082288,6.118371586352329,0.004418751188117213,0.0016102628954729667,0.002522286670031218,0.0034755552992842154,-586.1440504213618,3688.9870486867108,-52.87570235427496,694.4422729820641,3479.614162712515,-420.63108216689585,Vision,NoMovement,1
0.196,0.010294714120912459,0.010490871086434605,63.82412906657212,67.0953312831982,1.0433582583011118,6.126541959760128,0.004468825926324313,0.0015789202461945057,0.0025404777755318256,0.003519952553570265,-586.14378163599,3688.9911685913544,-52.871804002657676,694.5184599434937,3479.9854276232745,-420.66701487996795,Vision,NoMovement,1
0.197,0.010294717518660963,0.0104912877804614,63.82412906657212,67.0953312831982,1.0433779319610563,6.134706103114334,0.0045270199945331374,0.0015484602077514822,0.002558620872520748,0.0035586522424510968,-586.1435128506181,3688.9952884959976,-52.867905651040395,694.5946469049234,3480.3566925340347,-420.70294759304005,Vision,NoMovement,1
0.198,0.01029471687118592,0.010491646746736668,63.82412906657212,67.0953312831982,1.043396539510176,6.142863877086479,0.004592952004544329,0.001519212026280957,0.0025764923748456884,0.003591283189273152,-586.1432440652462,3688.999408400641,-52.864007299423115,694.6708338663531,3480.7279574447944,-420.7388803061122,Vision,NoMovement,1
0.199,0.010294712190329904,0.010491949571068925,63.82412906657212,67.0953312831982,1.0434140774851552,6.1510151423611035,0.0046660263876005595,0.0014915041035483286,0.0025938777457282943,0.00361757473258978,-586.1429752798743,3689.003528305285,-52.86010894780584,694.7470208277826,3481.099222355554,-420.7748130191843,Vision,NoMovement,1
0.2,0.010294703516600067,0.010492198103761702,63.82412906657212,67.0953312831982,1.0434305424372265,6.159159759633643,0.0047454374111252536,0.0014656595766114934,0.002610572974397048,0.0036373601325320184,-586.1427064945025,3689.0076482099284,-52.85621059618856,694.7935971746998,3481.3852266214403,-420.7971595131167,Vision,NoMovement,1
0.201,0.010294690919241763,0.010492394549014001,63.82412906657212,67.0953312831982,1.0434459309322333,6.167297589639928,0.004830177814548025,0.0014419917550359703,0.0026263857719356263,0.003650577612102402,-586.1424377091306,3689.0117681145716,-52.85231224457128,694.8318198241656,3481.6471772956156,-420.8156730854407,Vision,NoMovement,1
0.202,0.010294674496372988,0.010492541201820142,63.82412906657212,67.0953312831982,1.0434602395506745,6.175428493113365,0.004919052370536338,0.0014207994865611362,0.0026411366372252505,0.0036572690707527555,-586.1421689237587,3689.0158880192153,-52.848413892954,694.8700424736313,3481.9091279697914,-420.83418665776475,Vision,NoMovement,1
0.203,0.010294654375180514,0.010492640340669174,63.82412906657212,67.0953312831982,1.043473464887755,6.1835523308483165,0.005010696531378177,0.0014023625557105048,0.0026546599238950275,0.0036575766553587786,-586.1419001383869,3689.020007923859,-52.84451554133672,694.9082651230972,3482.171078643967,-420.8527002300888,Vision,NoMovement,1
0.20400000000000001,0.01029463071217582,0.010492694242083872,63.82412906657212,67.0953312831982,1.0434856035533906,6.191668963629176,0.005103600108177379,0.0013869372656854144,0.0026668050003107228,0.003651737483492171,-586.1416313530149,3689.0241278285025,-52.84061718971944,694.9464877725629,3482.4330293181424,-420.87121380241285,Vision,NoMovement,1
0.20500000000000002,0.010294603693507928,0.010492705592806585,63.82412906657212,67.0953312831982,1.043496652172311,6.1997782522971,0.00519613570918417,0.0013747523802143512,0.0026774375444860387,0.003640076857865339,-586.141362567643,3689.0282477331457,-52.836718838102165,694.9847104220287,3482.694979992318,-420.8897273747369,Vision,NoMovement,1
0.20600000000000002,0.01029457353533203,0.010492677348107667,63.82412906657212,67.0953312831982,1.0435066073840578,6.207880057744727,0.0052865914533461525,0.00136600559360049,0.0026864409670623716,0.0036230003023980267,-586.1410937822711,3689.0323676377893,-52.832820486484884,695.0229330714944,3482.956930666494,-420.9082409470609,Vision,NoMovement,1
0.20700000000000002,0.010294540484229734,0.010492612550611067,63.82412906657212,67.0953312831982,1.0435154658430335,6.215974240886012,0.005373207278024915,0.0013608606644588829,0.0026937179296729254,0.003600984719327725,-586.1408249968993,3689.036487542433,-52.828922134867604,695.0611557209602,3483.218881340669,-420.92675451938493,Vision,NoMovement,1
0.20800000000000002,0.010294504817678496,0.010492514194210328,63.82412906657212,67.0953312831982,1.0435232242185448,6.224060662687571,0.005454213947945388,0.0013594453136909236,0.002699191920610208,0.003574568923741832,-586.1405562115274,3689.0406074470766,-52.82502378325032,695.0993783704259,3483.480832014845,-420.94526809170895,Vision,NoMovement,1
0.209,0.010294466844566166,0.010492385283211022,63.82412906657212,67.0953312831982,1.0435298791948195,6.232139184164876,0.005527873655380189,0.0013618499563476387,0.002702808846900566,0.003544343759795701,-586.1402874261555,3689.0447273517198,-52.82112543163304,695.1376010198917,3483.7427826890207,-420.96378166403304,Vision,NoMovement,1
0.21,0.010294426905746022,0.010492229042823443,63.82412906657212,67.0953312831982,1.0435354274710809,6.240209666380238,0.00559252091856716,0.0013681273040838675,0.0027045385905663188,0.0035109419500491904,-586.1400186407836,3689.0488472563634,-52.81722708001576,695.1758236693576,3484.004733363196,-420.98229523635706,Vision,NoMovement,1
0.211,0.01029438537462734,0.0104920490847521,63.82412906657212,67.0953312831982,1.0435398657615553,6.248271970472207,0.005646602388701946,0.0013782928305790523,0.002704376460171984,0.0034750277864649304,-586.1397498554118,3689.052967161007,-52.81332872839848,695.2140463188233,3484.2666840373718,-421.0008088086811,Vision,NoMovement,1
0.212,0.010294342657797422,0.010491849837943922,63.82412906657212,67.0953312831982,1.043543190795516,6.256325957618616,0.005688714207076293,0.0013923260364582168,0.002702344451557436,0.0034372867369052026,-586.1394810700399,3689.05708706565,-52.80943037678121,695.2522689682891,3484.5286347115475,-421.0193223810051,Vision,NoMovement,1
0.213,0.010294299195667385,0.010491635699868317,63.82412906657212,67.0953312831982,1.043545399317321,6.264371489067736,0.0057176356947840285,0.0014101723935055158,0.002698492213104496,0.003398415012939205,-586.139212284668,3689.061206970294,-52.80553202516393,695.2904916177548,3484.790585385723,-421.03783595332914,Vision,NoMovement,1
0.214,0.010294255463136996,0.010491410824219205,63.82412906657212,67.0953312831982,1.0435464880864311,6.272408426134493,0.005732358365393841,0.0014317458042859142,0.0026928975967838486,0.0033591091384745334,-586.1389434992961,3689.0653268749375,-52.80163367354665,695.3287142672206,3485.0525360598986,-421.0563495256532,Vision,NoMovement,1
0.215,0.01029421197027058,0.010491179346704243,63.82412906657212,67.0953312831982,1.0435464538774595,6.280436630198496,0.005732109458599477,0.001456931391582605,0.0026856666828102504,0.003320055573530948,-586.1386747139243,3689.069446779581,-52.797735321929366,695.3669369166863,3485.3144867340743,-421.07486309797724,Vision,NoMovement,1
0.216,0.010294169262977465,0.01049094560167234,63.82412906657212,67.0953312831982,1.0435452934801965,6.2884559627332,0.0057163693498640585,0.0014855884234073102,0.0026769331985791772,0.003281920477099087,-586.1384059285524,3689.0735666842243,-52.793836970312086,695.4009947623242,3485.562620923539,-421.09161124587234,Vision,NoMovement,1
0.217,0.010294127923688308,0.010490713983219763,63.82412906657212,67.0953312831982,1.043543003699638,6.296466285268861,0.0056848823406212105,0.001517553178031039,0.002666857294365117,0.003245339731418753,-586.1381371431805,3689.077686588868,-52.789938618694805,695.4158575824147,3485.7470767771297,-421.1002227879594,Vision,NoMovement,1
0.218,0.01029408857201927,0.01049048915091265,63.82412906657212,67.0953312831982,1.0435395813560167,6.304467459418394,0.005637660572954923,0.0015526415686956637,0.002655623671403401,0.0032109093865117315,-586.1378683578087,3689.0818064935115,-52.78604026707753,695.4307204025051,3485.93153263072,-421.10883433004653,Vision,NoMovement,1
0.219,0.010294051865414449,0.010490275894021678,63.82412906657212,67.0953312831982,1.0435350232848268,6.312459346904882,0.00557498118132729,0.0015906513957114493,0.0026434390889484155,0.00317917670633973,-586.1375995724368,3689.085926398155,-52.78214191546025,695.4455832225956,3486.1159884843105,-421.1174458721336,Vision,NoMovement,1
0.22,0.010294018499757683,0.010490078987333019,63.82412906657212,67.0953312831982,1.043529326336868,6.320441809499272,0.005497377195396842,0.0016313641689415254,0.0026305293169078298,0.003150631997054308,-586.1373307870649,3689.0900463027983,-52.77824356384297,695.460446042686,3486.300444337901,-421.12605741422067,Vision,NoMovement,1
0.221,0.01029398920994271,0.010489902958315263,63.82412906657212,67.0953312831982,1.0435224873782494,6.328414709085736,0.00540562300630467,0.0016745465187810238,0.002617135646456345,0.00312570138146399,-586.1309616346149,3689.095270361169,-52.76324846006446,695.4753088627765,3486.4849001914913,-421.13466895630773,Vision,NoMovement,1
0.222,0.010293964770391392,0.010489751860265685,63.82412906657212,67.0953312831982,1.043514503290429,6.336377907656355,0.005300715361436207,0.00171995126674064,0.002603511111818203,0.003104740662439873,-586.1241949256425,3689.100566376441,-52.74753018895151,695.490171682867,3486.6693560450817,-421.1432804983948,Vision,NoMovement,1
0.223,0.010293945995507911,0.010489629344567096,63.82412906657212,67.0953312831982,1.043505370970244,6.344331267281686,0.00518385089157031,0.0017673182593884805,0.002589916595979912,0.003088030385975056,-586.1174282166702,3689.1058623917124,-52.73181191783855,695.5050345029574,3486.853811898672,-421.15189204048187,Vision,NoMovement,1
0.224,0.01029393374005773,0.010489538623070015,63.82412906657212,67.0953312831982,1.043495087329894,6.352274650141089,0.00505640115246195,0.0018163750803433906,0.0025766169827020724,0.0030757721797260297,-586.1106615076978,3689.1111584069845,-52.7160936467256,695.5198973230479,3487.0382677522625,-421.16050358256894,Vision,NoMovement,1
0.225,0.010293928899458004,0.010489482485760463,63.82412906657212,67.0953312831982,1.0434836492970385,6.360207918513966,0.004919886089617427,0.0018668377511183206,0.0025638774783854706,0.003068086414076316,-586.1038947987255,3689.1164544222565,-52.700375375612644,695.5347601431383,3487.222723605853,-421.169115124656,Vision,NoMovement,1
0.226,0.010293932409965996,0.010489463252461218,63.82412906657212,67.0953312831982,1.0434710538147733,6.368130934808413,0.004775946697577492,0.001918411524513291,0.002551960172463861,0.0030650112207467437,-586.0971280897531,3689.1217504375286,-52.684657104499685,695.5496229632288,3487.407179459444,-421.17772666674307,Vision,NoMovement,1
0.227,0.010293945248752313,0.010489483207331519,63.82412906657212,67.0953312831982,1.0434572978416354,6.376043561525119,0.004626317475676298,0.001970791860211081,0.0025411208532341244,0.0030665029129029694,-586.0903613807808,3689.1270464528006,-52.66893883338673,695.5644857833192,3487.591635313034,-421.18633820883014,Vision,NoMovement,1
0.228,0.01029396843384357,0.010489544461147027,63.82412906657212,67.0953312831982,1.0434423783516553,6.38394566128786,0.004472799095755005,0.0020236656590585118,0.0025316060591485394,0.0030724378614605356,-586.0835946718086,3689.1323424680727,-52.65322056227378,695.5793486034096,3487.7760911666246,-421.1949497509172,Vision,NoMovement,1
0.229,0.01029400302391957,0.010489649063974009,63.82412906657212,67.0953312831982,1.0434262923343656,6.391837096840135,0.004317231538530995,0.0020767128247154124,0.002523650326828429,0.0030826158669408437,-586.0768279628362,3689.1376384833447,-52.63750229116083,695.5942114235,3487.960547020215,-421.20356129300427,Vision,NoMovement,1
0.23,0.010294050117949307,0.010489798970973003,63.82412906657212,67.0953312831982,1.0434090367948068,6.39971773104863,0.004161467865715285,0.0021296082224145168,0.0025174735875269157,0.003096765013509455,-586.0700612538639,3689.142934498617,-52.62178402004787,695.6090742435905,3488.1450028738054,-421.2121728350914,Vision,NoMovement,1
0.231,0.010294110854648805,0.010489995846578849,63.82412906657212,67.0953312831982,1.0433906087536031,6.407587426906311,0.00400734879243799,0.002182024102924585,0.002513278652633211,0.0031145479200804078,-586.0632945448915,3689.148230513889,-52.60606574893492,695.623937063681,3488.329458727396,-421.22078437717846,Vision,NoMovement,1
0.232,0.01029418641174437,0.0104902407641472,63.82412906657212,67.0953312831982,1.0433710052468905,6.415446047530615,0.003856678279233892,0.0022336330403395542,0.0025112487105195874,0.00313556923600285,-586.0565278359192,3689.153526529161,-52.590347477821965,695.6387998837714,3488.5139145809862,-421.2293959192655,Vision,NoMovement,1
0.233,0.010294278005022778,0.010490534293321273,63.82412906657212,67.0953312831982,1.0433502233263932,6.423293456191336,0.0037112004141648604,0.0022841113948377963,0.002511544746746667,0.003159384171278726,-586.0497611269468,3689.158822544433,-52.574629206709005,695.6555112341159,3488.6976771240593,-421.237312153292,Vision,NoMovement,1
0.234,0.010294386887150477,0.010490876575958005,63.82412906657212,67.0953312831982,1.0433282600594402,6.431129516270125,0.003572577836088839,0.0023331432731756225,0.0025143028227598975,0.0031855077980233863,-586.0429944179745,3689.164118559705,-52.55891093559605,695.6735798625965,3488.8809306058365,-421.2447178593321,Vision,NoMovement,1
0.23500000000000001,0.010294514346243056,0.010491267742438727,63.82412906657212,67.0953312831982,1.0433051125288892,6.438954091320536,0.0034423718817860913,0.00238042491370801,0.0025196312088154992,0.003213424820023854,-586.0367012954997,3689.1687001212485,-52.54525067644945,695.6916484910771,3489.0641840876137,-421.25212356537224,Vision,NoMovement,1
0.23600000000000002,0.010294661704164602,0.010491708252813155,63.82412906657212,67.0953312831982,1.0432807778333117,6.446767045000722,0.0033220245625864707,0.002425669362770808,0.002527607440330352,0.0032425994953368905,-586.0308078918908,3689.1726786659515,-52.53332743094904,695.7097171195577,3489.2474375693905,-421.25952927141236,Vision,NoMovement,1
0.23700000000000002,0.010294830314538012,0.01049219846599532,63.82412906657212,67.0953312831982,1.0432552530868915,6.454568241137158,0.003212842428862141,0.00246861124584102,0.002538275425818944,0.003272485426956499,-586.024914488282,3689.176657210654,-52.521404185448645,695.7277857480383,3489.4306910511677,-421.2669349774525,Vision,NoMovement,1
0.23800000000000002,0.01029502156044474,0.010492738693478464,63.82412906657212,67.0953312831982,1.043228535419412,6.462357543719287,0.0031159823985262803,0.0025090113899242155,0.002551642764785302,0.0033025349942971717,-586.019021084673,3689.1806357553564,-52.50948093994824,695.7458543765189,3489.613944532945,-421.2743406834926,Vision,NoMovement,1
0.23900000000000002,0.010295236851793288,0.010493329660163904,63.82412906657212,67.0953312831982,1.0432006219763295,6.4701348168709405,0.003032439672497878,0.0025466610480057742,0.0025676784344540885,0.0033322082676333566,-586.0131276810641,3689.184614300059,-52.497557694447835,695.7639230049994,3489.7971980147217,-421.2817463895327,Vision,NoMovement,1
0.24,0.010295477622335103,0.010493972234639472,63.82412906657212,67.0953312831982,1.0431715099187644,6.477899924880212,0.0029630379062001336,0.0025813854978964817,0.0025863109798856267,0.003360981300423633,-586.0072342774553,3689.1885928447614,-52.48563444894743,695.78199163348,3489.980451496499,-421.28915209557283,Vision,NoMovement,1
0.241,0.010295745326305152,0.010494667280357983,63.82412906657212,67.0953312831982,1.043141196423486,6.485652732195752,0.002908421810742226,0.002613046811794817,0.002607427299709184,0.003388353719718814,-586.0013408738464,3689.192571389464,-52.473711203447024,695.8000602619605,3490.163704978276,-421.29655780161295,Vision,NoMovement,1
0.242,0.010296041434665898,0.010495415737670549,63.82412906657212,67.0953312831982,1.0431096786830227,6.4933931034250625,0.002869052307900706,0.0026415456140581,0.0026308720718049476,0.003413855550036579,-585.9954474702374,3689.1965499341663,-52.46178795794662,695.8181288904411,3490.346958460053,-421.30396350765307,Vision,NoMovement,1
0.243,0.010296367430931156,0.010496218146839348,63.82412906657212,67.0953312831982,1.0430769539055134,6.501120903362137,0.0028452042858612197,0.0026668216828111243,0.002656447830269487,0.0034370532290389014,-585.9895540666286,3689.200528478869,-52.449864712446214,695.8361975189217,3490.53021194183,-421.3113692136932,Vision,NoMovement,1
0.244,0.010296724806547463,0.010497074421427237,63.82412906657212,67.0953312831982,1.0430430193148241,6.508835996952507,0.0028369669294771483,0.00268885332407575,0.0026839157068528946,0.0034575547958041798,-585.9836606630197,3689.2045070235713,-52.43794146694581,695.8542661474023,3490.7134654236074,-421.31877491973324,Vision,NoMovement,1
0.245,0.010297115055809094,0.010497984542633253,63.82412906657212,67.0953312831982,1.043007872150547,6.516538249322817,0.0028442465322546786,0.002707655550699325,0.0027129968806737055,0.00347501423150155,-585.9777672594107,3689.2084855682738,-52.4260182214454,695.8723347758828,3490.8967189053847,-421.32618062577336,Vision,NoMovement,1
0.246,0.01029753967028464,0.010498948559347515,63.82412906657212,67.0953312831982,1.0429715096678416,6.524227525777145,0.0028667716353564165,0.002723277199475044,0.0027433748009438276,0.003489134906970802,-585.9718738558018,3689.2124641129762,-52.414094975945005,695.8904034043634,3491.0799723871614,-421.3335863318135,Vision,NoMovement,1
0.247,0.010298000132730703,0.01049996641998574,63.82412906657212,67.0953312831982,1.042933929137853,6.531903691795337,0.0029041002716032366,0.0027357971954136092,0.002774698234038005,0.003499672072951737,-585.965980452193,3689.2164426576787,-52.4021717304446,695.908472032844,3491.2632258689387,-421.3409920378536,Vision,NoMovement,1
0.248,0.010298497910470963,0.010501038286460948,63.82412906657212,67.0953312831982,1.0428951278472285,6.539566613060328,0.002955629023748953,0.0027453202234318827,0.0028065851434941344,0.003506434333598382,-585.9600870485841,3689.220421202381,-52.390248484944195,695.9265406613246,3491.446479350716,-421.3483977438937,Vision,NoMovement,1
0.249,0.010299034448215078,0.010502164775916131,63.82412906657212,67.0953312831982,1.0428551030983995,6.547216155423156,0.0030206035416422174,0.0027519721022920135,0.002838627366131427,0.0035092840761417454,-585.9541936449751,3689.2243997470837,-52.37832523944379,695.9446092898052,3491.6297328324927,-421.35580344993383,Vision,NoMovement,1
0.25,0.010299611160297529,0.01050334651539189,63.82412906657212,67.0953312831982,1.0428138522095192,6.554852184927678,0.003098130143688606,0.002755895171024628,0.0028703960238487805,0.0035081368951752298,-585.9483002413663,3689.228378291786,-52.366401993943384,695.9660992763188,3491.814256455383,-421.35760871538787,Vision,NoMovement,1
0.251,0.010300229422311511,0.01050458434076379,63.82412906657212,67.0953312831982,1.0427713725144356,6.562474567836052,0.003187188181146869,0.002757243972779356,0.0029014476112356885,0.003502960139340981,-585.9424068377574,3689.2323568364886,-52.35447874844298,695.9876771735069,3491.9988127141332,-421.35927007935487,Vision,NoMovement,1
0.252,0.01030089056211749,0.010505879587334802,63.82412906657212,67.0953312831982,1.0427276613628278,6.570083170570207,0.003286642965636732,0.002756181457878735,0.002931330714229122,0.0034937707771528145,-585.9365134341485,3689.236335381191,-52.342555502942574,696.009255070695,3492.1833689728837,-421.3609314433218,Vision,NoMovement,1
0.253,0.010301595850203677,0.010507233682105337,63.82412906657212,67.0953312831982,1.0426827161199916,6.577677859773659,0.003395259196855635,0.002752875841292258,0.002959593322495543,0.003480632785494353,-585.9306558028943,3689.2402844895532,-52.33077631355147,696.030832967883,3492.3679252316338,-421.36259280728876,Vision,NoMovement,1
0.254,0.010302346489378764,0.010508647466529483,63.82412906657212,67.0953312831982,1.042636534166986,6.585258502306125,0.003511714913188348,0.002747498153262551,0.002985790671465659,0.0034636542200835022,-585.9258640046975,3689.2433565456463,-52.32328925882598,696.0524108650711,3492.5524814903843,-421.36425417125577,Vision,NoMovement,1
0.255,0.010303143603776916,0.010510121276920635,63.82412906657212,67.0953312831982,1.0425891129005962,6.592824965215903,0.0036346160109420045,0.0027402204312425484,0.0030094934888240036,0.003442984065880992,-585.9210722065008,3689.24642860174,-52.31580220410049,696.0739887622592,3492.7370377491343,-421.3659155352227,Vision,NoMovement,1
0.256,0.01030398822715559,0.010511655508869221,63.82412906657212,67.0953312831982,1.042540449733359,6.600377115768389,0.003762511343727433,0.0027312144418307595,0.0030302964447657234,0.003418808906166231,-585.9162804083039,3689.2495006578333,-52.308315149375005,696.0955666594472,3492.9215940078843,-421.36757689918966,Vision,NoMovement,1
0.257,0.010304881290470006,0.01051325041408684,63.82412906657212,67.0953312831982,1.0424905420933395,6.607914821437992,0.0038939083581989624,0.0027206508068100036,0.003047826558209285,0.0033913494051697277,-585.9114886101072,3689.2525727139264,-52.300828094649525,696.1171445566353,3493.106150266635,-421.3692382631566,Vision,NoMovement,1
0.258,0.010305823608706759,0.010514905715198152,63.82412906657212,67.0953312831982,1.0424393874246864,6.615437949934776,0.004027289174375913,0.002708698420812578,0.0030617513234979183,0.0033608565877175345,-585.9066968119105,3689.25564477002,-52.29334103992404,696.1387224538233,3493.290706525385,-421.3708996271236,Vision,NoMovement,1
0.259,0.010306815866963286,0.01051662035917972,63.82412906657212,67.0953312831982,1.0423869831869657,6.622946369170614,0.004161127025822479,0.0026955240592477087,0.003071786381926506,0.003327607927387616,-585.9019050137136,3689.258716826113,-52.28585398519855,696.1603003510114,3493.4752627841353,-421.37256099109055,Vision,NoMovement,1
0.26,0.01030785860575983,0.010518393328847055,63.82412906657212,67.0953312831982,1.042333326855534,6.630439947287849,0.004293902999836162,0.0026812920786776127,0.0030777026273137607,0.003291903293462835,-585.8971132155169,3689.2617888822065,-52.27836693047307,696.1818782481995,3493.6598190428854,-421.3742223550575,Vision,NoMovement,1
0.261,0.010308952205573312,0.0105202232425585,63.82412906657212,67.0953312831982,1.0422784159214482,6.637918552656066,0.004424123060117314,0.0026661641155098946,0.00307933265944147,0.0032540608192378937,-585.8923214173202,3689.2648609382995,-52.27087987574758,696.2034561453876,3493.844375301636,-421.3758837190245,Vision,NoMovement,1
0.262,0.010310096870585253,0.010522107943912519,63.82412906657212,67.0953312831982,1.042222247891419,6.64538205387492,0.004550335333884177,0.0026502987007536918,0.0030765764715187756,0.003214412722822576,-585.8875296191234,3689.267932994393,-52.263392821022094,696.2250340425757,3494.028931560386,-421.37754508299145,Vision,NoMovement,1
0.263,0.0103112926116371,0.01052404515605614,63.82412906657212,67.0953312831982,1.0421648202879805,6.652830319772611,0.004671147629263838,0.002633850724480154,0.0030694061922564523,0.003173301063360828,-585.8827378209266,3689.2710050504866,-52.255905766296614,696.2466119397637,3494.2134878191364,-421.3792064469584,Vision,NoMovement,1
0.264,0.010312539228390424,0.010526032702086626,63.82412906657212,67.0953312831982,1.042106130649205,6.660263219432096,0.004785245104614259,0.0026169707064936545,0.0030578696321040696,0.0031310733849670373,-585.8779460227299,3689.2740771065796,-52.24841871157113,696.2681898369518,3494.3980440778864,-421.38086781092534,Vision,NoMovement,1
0.265,0.010313836290691287,0.01052806845954914,63.82412906657212,67.0953312831982,1.0420461765288822,6.667680622157315,0.004891407908883463,0.0025998038632428465,0.0030420923463438335,0.0030880782101460743,-585.8731542245331,3689.277149162673,-52.24093165684564,696.2897677341399,3494.582600336637,-421.38252917489234,Vision,NoMovement,1
0.266,0.010315183119143076,0.010530150008269037,63.82412906657212,67.0953312831982,1.0419849554964655,6.67508239749716,0.00498852846381131,0.002582488994868419,0.0030222779540651393,0.0030446603987674715,-585.8683624263364,3689.280221218766,-52.23344460212015,696.3061440808036,3494.754954879906,-421.3807163781818,Vision,NoMovement,1
0.267,0.010316578764892902,0.010532274622532619,63.82412906657212,67.0953312831982,1.0419224651370569,6.682468415269363,0.005075627893036588,0.0025651572360257478,0.002998706543091245,0.0030011564835167085,-585.8635706281397,3689.2832932748597,-52.22595754739467,696.3137872230436,3494.9068232094755,-421.373070598545,Vision,NoMovement,1
0.268,0.010318021988643662,0.010534438656560495,63.82412906657212,67.0953312831982,1.0418587030513549,6.689838545499966,0.005151870976710973,0.002547930708927742,0.002971731119521369,0.002957890191821017,-585.8587788299428,3689.2863653309532,-52.218470492669184,696.3214303652835,3495.058691539045,-421.36542481890825,Vision,NoMovement,1
0.269,0.010319511238905541,0.010536637404276855,63.82412906657212,67.0953312831982,1.0417936668558432,6.697192658510242,0.005216578943707554,0.00253092109405765,0.0029417721872239625,0.0029151684184286456,-585.8539870317461,3689.2894373870463,-52.210983437943696,696.3290735075234,3495.210559868614,-421.35777903927146,Vision,NoMovement,1
0.27,0.010321044629507755,0.010538865811589391,63.82412906657212,67.0953312831982,1.0417273541824639,6.7045306248526035,0.005269239428933883,0.0025142281142628686,0.0029093106413519768,0.0028732778972534556,-585.8498197208346,3689.29121230586,-52.20666604468589,696.3367166497634,3495.3624281981834,-421.3501332596347,Vision,NoMovement,1
0.271,0.010322619916392245,0.010541118600609564,63.82412906657212,67.0953312831982,1.041659762678819,6.7118523153447995,0.0053095130498724144,0.002497937937363632,0.0028748792182202686,0.0028324827283518483,-585.846105925079,3689.292045217639,-52.20465052297663,696.3443597920033,3495.5142965277523,-421.34248747999794,Vision,NoMovement,1
0.272,0.010324234473722292,0.010543390202333337,63.82412906657212,67.0953312831982,1.0415908900081008,6.719157601066755,0.005337236299170908,0.002482121550287615,0.0028390527885092318,0.002793022792423608,-585.8423921293233,3689.292878129418,-52.20263500126737,696.3520029342433,3495.6661648573217,-421.33484170036115,Vision,NoMovement,1
0.273,0.010325885269337729,0.010545674337341151,63.82412906657212,67.0953312831982,1.0415207338490309,6.726446353363277,0.005352420710716086,0.0024668332296493116,0.0028024378233855534,0.002755112965785995,-585.8386783335677,3689.293711041197,-52.200619479558114,696.3596460764832,3495.8180331868907,-421.3271959207244,Vision,NoMovement,1
0.274,0.010327568839599503,0.010547963153467387,63.82412906657212,67.0953312831982,1.0414492918960674,6.733718443842609,0.00535524842947365,0.0024521092899365705,0.002765661397018417,0.0027189429687665746,-585.8349645378121,3689.2945439529767,-52.19860395784885,696.3672892187232,3495.96990151646,-421.31955014108763,Vision,NoMovement,1
0.275,0.010329281263671086,0.01055024731477509,63.82412906657212,67.0953312831982,1.0413765618590407,6.740973744401834,0.00534606438257092,0.0024379672968464004,0.0027293600936523794,0.0026846776487047396,-585.8312507420566,3689.295376864756,-52.19658843613959,696.374932360963,3496.121769846029,-421.31190436145084,Vision,NoMovement,1
0.276,0.010331018137289812,0.010552515926894926,63.82412906657212,67.0953312831982,1.0413025414633768,6.7482121271944235,0.005325365283292421,0.0024244058862059412,0.0026941691609532396,0.002652457512055226,-585.8275369463009,3689.296209776535,-52.19457291443034,696.3825755032029,3496.2736381755985,-421.3042585818141,Vision,NoMovement,1
0.277,0.010332774546089761,0.010554755775720027,63.82412906657212,67.0953312831982,1.0412272284500201,6.755433464657698,0.005293785765195803,0.002411405251816482,0.0026607121989650115,0.0026223993591209934,-585.8238231505453,3689.297042688314,-52.19255739272108,696.3902186454429,3496.4255065051675,-421.2966128021773,Vision,NoMovement,1
0.278,0.010334545038545426,0.010556951255343032,63.82412906657212,67.0953312831982,1.0411506205754115,6.762637629509273,0.005252082046976665,0.002398928289902381,0.0026295916014999867,0.002594596919562458,-585.8201093547897,3689.2978756000934,-52.19054187101182,696.3978617876828,3496.577374834737,-421.28896702254053,Vision,NoMovement,1
0.279,0.010336323598611483,0.010559084808065868,63.82412906657212,67.0953312831982,1.041072715611423,6.769824494745662,0.0052011136421636385,0.002386922324453923,0.0026013798719389317,0.0025691214200207354,-585.816395559034,3689.2987085118725,-52.18852634930256,696.4055049299228,3496.729243164306,-421.2813212429038,Vision,NoMovement,1
0.28,0.010338103618145363,0.01056113812894641,63.82412906657212,67.0953312831982,1.040993511345581,6.776993933667282,0.005141823715416546,0.0023753212856675696,0.002576611835017836,0.0025460220419803704,-585.8126817632784,3689.2995414236516,-52.1865108275933,696.4131480721627,3496.8811114938753,-421.273675463267,Vision,NoMovement,1
0.281,0.010339877869205347,0.010563092388125129,63.82412906657212,67.0953312831982,1.0409130055806648,6.784145819846028,0.005075218724303986,0.0023640481794388758,0.002555777684161648,0.0025253262565305854,-585.8089679675228,3689.3003743354307,-52.18449530588404,696.4207912144027,3497.0329798234447,-421.2660296836302,Vision,NoMovement,1
0.28200000000000003,0.010341638476327257,0.010564928062114478,63.82412906657212,67.0953312831982,1.0408311961349486,6.791280027148372,0.0050023479775437,0.002353017685261119,0.002539316757930785,0.0025070400599490213,-585.8052541717672,3689.30120724721,-52.18247978417479,696.4284343566426,3497.1848481530137,-421.2583839039935,Vision,NoMovement,1
0.28300000000000003,0.01034337688889323,0.01056662479935053,63.82412906657212,67.0953312831982,1.0407480808421115,6.798396429758388,0.004924283703412756,0.002342138750751571,0.002527611935913984,0.002491148182348162,-585.8015403760115,3689.3020401589893,-52.18046426246553,696.4224693959666,3497.3233534063033,-421.2509400783241,Vision,NoMovement,1
0.28400000000000003,0.010345083853714437,0.010568161689617222,63.82412906657212,67.0953312831982,1.040663657551164,6.80549490212391,0.004842102171075812,0.002331317095511851,0.002520984574090073,0.0024776143814768635,-585.7978265802559,3689.3028730707683,-52.178448740756274,696.4124765267327,3497.457903277301,-421.24355602969484,Vision,NoMovement,1
0.28500000000000003,0.010346749387962064,0.010569517148057388,63.82412906657212,67.0953312831982,1.04057792412669,6.812575319013667,0.0047568663234316385,0.002320457581545241,0.0025196899501057435,0.002466381943718517,-585.7941127845003,3689.3037059825474,-52.17643321904701,696.4024836574988,3497.592453148298,-421.2361719810655,Vision,NoMovement,1
0.28600000000000003,0.010348362752589595,0.01057066886921581,63.82412906657212,67.0953312831982,1.040490878448408,6.8196375555119335,0.004669610249662428,0.0023094664501267606,0.0025239132446829645,0.0024573744928636124,-585.7902670882877,3689.3043126568537,-52.17454902207576,696.3924907882648,3497.7270030192954,-421.22878793243626,Vision,NoMovement,1
0.28700000000000003,0.010349912426403596,0.010571593682991848,63.82412906657212,67.0953312831982,1.0404025184114352,6.826681486993125,0.004581325674146881,0.0022982534601595616,0.002533766127825844,0.0024504971660092158,-585.7855075254173,3689.3033518545317,-52.17357470291818,696.3824979190309,3497.861552890293,-421.22140388380694,Vision,NoMovement,1
0.28800000000000003,0.010351386080949165,0.010572267036353724,63.82412906657212,67.0953312831982,1.040312841926192,6.833706989147985,0.004492950492964771,0.002286733979574512,0.0025492840416659487,0.0024456381732111208,-585.7807479625469,3689.3023910522093,-52.1726003837606,696.372505049797,3497.99610276129,-421.2140198351777,Vision,NoMovement,1
0.289,0.010352770556390157,0.01057266316215369,63.82412906657212,67.0953312831982,1.0402218469183746,6.840713937976246,0.004405359280836843,0.002274831077854162,0.0025704242790139335,0.002442670722133648,-585.7759883996765,3689.3014302498873,-52.171626064603025,696.362512180563,3498.1306526322874,-421.2066357865484,Vision,NoMovement,1
0.29,0.010354051838576284,0.010572755477919544,63.82412906657212,67.0953312831982,1.0401295313288732,6.847702209810807,0.004319355624737976,0.0022624776496413105,0.0025970649571465756,0.0024414552640589574,-585.7712288368061,3689.3004694475653,-52.17065174544545,696.3525193113292,3498.2652025032844,-421.1992517379191,Vision,NoMovement,1
0.291,0.010355215037502669,0.010572516582296094,63.82412906657212,67.0953312831982,1.0400358931140326,6.8546716812866455,0.0042356661280846695,0.0022496185751112396,0.002629004976717617,0.0024418420040407166,-585.7664692739357,3689.2995086452433,-52.16967742628787,696.3425264420953,3498.399752374282,-421.19186768928984,Vision,NoMovement,1
0.292,0.010356244367379691,0.010571918320823324,63.82412906657212,67.0953312831982,1.0399409302451765,6.86162222936711,0.004154935965706291,0.002236212895076403,0.002665965027740466,0.0024436736120341768,-585.7617097110654,3689.2985478429214,-52.1687031071303,696.3325335728613,3498.534302245279,-421.1844836406605,Vision,NoMovement,1
0.293,0.010357123128545483,0.010570931769080211,63.82412906657212,67.0953312831982,1.0398446407088933,6.868553731340855,0.004077725927640188,0.002222235947203226,0.002707589659876665,0.0024467880693071864,-585.7569501481951,3689.297587040599,-52.16772878797272,696.3225407036274,3498.6688521162764,-421.17709959203125,Vision,NoMovement,1
0.294,0.0103578336914676,0.010569526847802026,63.82412906657212,67.0953312831982,1.039747022506924,6.875466064824294,0.00400451091128371,0.0022076813797646255,0.0027534503976003296,0.002451021584320701,-585.7521905853247,3689.296626238277,-52.16675446881514,696.3125478343934,3498.803401987274,-421.169715543402,Vision,NoMovement,1
0.295,0.010358357483093097,0.010567671833885359,63.82412906657212,67.0953312831982,1.0396480736560783,6.882359107760321,0.003935679786854456,0.0021925629492516767,0.0028030498700972336,0.002456211515142084,-585.7474310224543,3689.295665435955,-52.165780149657564,696.3025549651595,3498.937951858271,-421.1623314947727,Vision,NoMovement,1
0.296,0.010358674975823162,0.010565333413100541,63.82412906657212,67.0953312831982,1.0395477921885101,6.889232738441995,0.0038715364819607977,0.0021769160214708755,0.00285582694058996,0.0024621992354946992,-585.7426714595839,3689.294704633633,-52.164805830499986,696.2925620959256,3499.0725017292684,-421.1549474461434,Vision,NoMovement,1
0.297,0.010358765679401001,0.010562476492089724,63.82412906657212,67.0953312831982,1.0394461761512077,6.8960868354816,0.0038123020633743817,0.0021607987117077546,0.0029111628414934714,0.0024688328714866582,-585.7379118967135,3689.293743831311,-52.16383151134241,696.2825692266916,3499.2070516002655,-421.1475633975141,Vision,NoMovement,1
0.298,0.010358608136016722,0.010559064990983155,63.82412906657212,67.0953312831982,1.039343223606299,6.902921277832756,0.0037581176026732117,0.002144292599689393,0.0029683883369535447,0.002475969822766469,-585.7331523338431,3689.2927830289887,-52.16285719218483,696.2725763574578,3499.341601471263,-421.1401793488848,Vision,NoMovement,1
0.299,0.010358179918950324,0.010555062384924305,63.82412906657212,67.0953312831982,1.039238932630939,6.909735944811643,0.0037090477126306737,0.0021275029465411405,0.003026791929232572,0.002483478986030186,-585.7283927709727,3689.2918222266667,-52.16188287302726,696.2622454528733,3499.47979929232,-421.1346265776574,Vision,NoMovement,1
0.3,0.010357457635085807,0.010550431263380006,63.82412906657212,67.0953312831982,1.039133301317276,6.9165307160421845,0.003665084790640307,0.002110558348615509,0.00308562909892721,0.002491242637810087,-585.7236332081023,3689.2908614243447,-52.16090855386968,696.2502634243616,3499.6358154203126,-421.1380186281226,Vision,NoMovement,1
0.301,0.01035641693164573,0.010545133498611366,63.82412906657212,67.0953312831982,1.0390263277723588,6.923305471534961,0.003626154108487518,0.0020936097971638577,0.0031441325220909924,0.002499158000956393,-585.7192515581554,3689.2895949054055,-52.15940533087016,696.2382813958498,3499.7918315483057,-421.1414106785878,Vision,NoMovement,1
0.302,0.010355032507512664,0.010539130318734026,63.82412906657212,67.0953312831982,1.0389180101184317,6.930060091628718,0.003592119893707396,0.0020768291673347013,0.0032015231377004157,0.002507138582938248,-585.7150099666125,3689.2882150847536,-52.157706090684265,696.226299367338,3499.9478476762984,-421.14480272905297,Vision,NoMovement,1
0.303,0.010353278129514419,0.010532382475596513,63.82412906657212,67.0953312831982,1.0388083464923874,6.936794457021504,0.003562792480881796,0.0020604072147877776,0.0032570218782452527,0.0025151154038901584,-585.7107683750696,3689.2868352641017,-52.15600685049837,696.2143173388262,3500.103863804291,-421.1481947795182,Vision,NoMovement,1
0.304,0.010351126654069499,0.010524850584681323,63.82412906657212,67.0953312831982,1.0386973350460933,6.943508448767663,0.003537936532813554,0.002044551188991817,0.0033098618280729287,0.0025230382195172533,-585.7065267835267,3689.28545544345,-52.154307610312486,696.2023353103144,3500.2598799322836,-421.1515868299834,Vision,NoMovement,1
0.305,0.01034855005460058,0.010516495187237596,63.82412906657212,67.0953312831982,1.038584973946264,6.950201948280156,0.0035172802655410234,0.0020294821644722227,0.0033593005592040984,0.002530876806438576,-585.7022851919837,3689.284075622798,-52.15260837012659,696.1903532818027,3500.4158960602763,-421.1549788804486,Vision,NoMovement,1
0.306,0.010345519455139025,0.010507276610551215,63.82412906657212,67.0953312831982,1.038471261374363,6.956874837329357,0.003500525546839591,0.002015432158475613,0.0034046323968277767,0.0025386223279875515,-585.6980436004408,3689.2826958021456,-52.1509091299407,696.1783712532908,3500.571912188269,-421.15837093091375,Vision,NoMovement,1
0.307,0.010342005170557294,0.010497154501478036,63.82412906657212,67.0953312831982,1.0383561955269176,6.96352699806576,0.0034873586488634854,0.0020026410697195646,0.0034452003711145,0.0025462887387196426,-585.6938020088978,3689.2813159814937,-52.14920988975481,696.1663892247791,3500.7279283162616,-421.16176298137896,Vision,NoMovement,1
0.308,0.010337976753879246,0.010486088028541323,63.82412906657212,67.0953312831982,1.0382397746149357,6.9701583129905496,0.003477461320788136,0.0019913534571452036,0.00348040760971744,0.0025539141185990815,-585.6895604173549,3689.2799361608418,-52.147510649568915,696.1544071962672,3500.883944444254,-421.16515503184417,Vision,NoMovement,1
0.309,0.010333403051130764,0.010474036637629093,63.82412906657212,67.0953312831982,1.0381219968642539,6.9767686649804315,0.003470521736098708,0.0019818151803804936,0.003509727929149578,0.002561561766212047,-585.685318825812,3689.27855634019,-52.14581140938302,696.1424251677555,3501.039960572247,-421.1685470823094,Vision,NoMovement,1
0.31,0.010328252264204982,0.01046096037144563,63.82412906657212,67.0953312831982,1.0380028605154095,6.983357937284245,0.003466244805728273,0.001974269925759041,0.003532715405612818,0.0025693208406968315,-585.6810772342691,3689.277176519538,-52.14411216919713,696.1304431392438,3501.1959767002395,-421.1719391327746,Vision,NoMovement,1
0.311,0.010322492022227877,0.01044681981274591,63.82412906657212,67.0953312831982,1.0378823638236008,6.989926013521784,0.0034643613687541115,0.0019689556303810287,0.003549012756367772,0.0025773063398064847,-585.6768356427261,3689.275796698886,-52.142412929011236,696.1184611107319,3501.351992828232,-421.17533118323973,Vision,NoMovement,1
0.312,0.010316089461918896,0.010431576060895831,63.82412906657212,67.0953312831982,1.0377605050585834,6.996472777706066,0.003464635874142281,0.001966100795616265,0.0035583584204362936,0.0025856582414676473,-585.6725940511832,3689.274416878234,-52.14071368882534,696.1064790822202,3501.508008956225,-421.17872323370494,Vision,NoMovement,1
0.313,0.010309011317451598,0.010415191360066398,63.82412906657212,67.0953312831982,1.0376372825050042,7.002998114213976,0.003466872309043223,0.0019659206631840835,0.0035605922618068444,0.002594539707459825,-585.6683524596402,3689.2730370575823,-52.13901444863945,696.0944970537083,3501.6640250842174,-421.18211528417015,Vision,NoMovement,1
0.314,0.010301224020326346,0.01039762904680923,63.82412906657212,67.0953312831982,1.0375126944617794,7.009501907807299,0.0034709182546513043,0.0019686132196605525,0.0035556598119710846,0.0026041343284305134,-585.6641108680973,3689.2716572369304,-52.13731520845356,696.0825150251966,3501.82004121221,-421.18550733463536,Vision,NoMovement,1
0.315,0.010292693809772263,0.010378853019217711,63.82412906657212,67.0953312831982,1.037386739242459,7.0159840436525025,0.00347666702313978,0.0019743550054700425,0.003543614934532982,0.0026146424587305313,-585.6598692765544,3689.2702774162785,-52.135615968267665,696.0705329966848,3501.9760573402027,-421.1888993851005,Vision,NoMovement,1
0.316,0.010283386854202404,0.010358827331264796,63.82412906657212,67.0953312831982,1.0372594151750125,7.022444407269055,0.003484057854122738,0.0019832967334461613,0.003524620767091598,0.0026262767372132495,-585.6556276850115,3689.2688975956266,-52.13391672808177,696.0645144740298,3502.126644898054,-421.1951567304756,Vision,NoMovement,1
0.317,0.010273269384247712,0.010337516486705903,63.82412906657212,67.0953312831982,1.037130720602182,7.028882884603878,0.0034930741669250776,0.0019955587652409333,0.0034989487935635963,0.0026392569188260382,-585.6513860934685,3689.2675177749747,-52.13221748789588,696.0630266104223,3502.2731082039945,-421.2035909286314,Vision,NoMovement,1
0.318,0.0102623078378961,0.010314886423110979,63.82412906657212,67.0953312831982,1.0370006538808312,7.035299361975978,0.0035037399197677807,0.0020112265479387973,0.003466975925845483,0.0026538041668312247,-585.6471445019256,3689.2661379543224,-52.130518247709986,696.0615387468148,3502.419571509935,-421.2120251267871,Vision,NoMovement,1
0.319,0.010250469018263321,0.010290905483851826,63.82412906657212,67.0953312831982,1.0368692133823354,7.041693726105853,0.0035161142320477862,0.0020303461693501525,0.0034291795122884765,0.0026701349925969333,-585.6429057909636,3689.2649727755415,-52.128773817959456,696.0600508832072,3502.566034815875,-421.2204593249429,Vision,NoMovement,1
0.32,0.01023772026451806,0.010265544684703656,63.82412906657212,67.0953312831982,1.0367363974924377,7.04806586411216,0.003530284556434929,0.002052920227393532,0.0033861302380376844,0.0026884550637940323,-585.6386773059007,3689.264569563229,-52.1268689678175,696.0585630195997,3502.7124981218153,-421.22889352309863,Vision,NoMovement,1
0.321,0.01022402963647785,0.010238777840497764,63.82412906657212,67.0953312831982,1.0366022046112173,7.054415663510592,0.0035463587941056106,0.0020789042078396317,0.0033384829371312587,0.00270895311122335,-585.6344488208377,3689.264166350916,-52.124964117675546,696.057075155992,3502.8589614277557,-421.2373277212544,Vision,NoMovement,1
0.322,0.010209366113384896,0.010210581735110845,63.82412906657212,67.0953312831982,1.0364666331530432,7.0607430122352195,0.003564456789851732,0.0021082035370456643,0.0032869654126961995,0.0027317951406848643,-585.6302203357748,3689.2637631386037,-52.12305926753359,696.0555872923845,3503.005424733696,-421.24576191941014,Vision,NoMovement,1
0.323,0.010193699807358517,0.010180936691617834,63.82412906657212,67.0953312831982,1.0363296815464604,7.067047798610606,0.003584701619365449,0.0021406714513840627,0.0032323654726232756,0.0027571191089436854,-585.6259918507119,3689.263359926291,-52.121154417391644,696.054099428777,3503.1518880396366,-421.25419611756587,Vision,NoMovement,1
0.324,0.010177002192007949,0.010149827241852047,63.82412906657212,67.0953312831982,1.0361913482345648,7.073329911375273,0.0036072110181591096,0.0021761078170480556,0.003175516520553873,0.0027850301684654703,-585.6217633656489,3689.262956713978,-52.11924956724969,696.0526115651694,3503.2983513455765,-421.26263031572165,Vision,NoMovement,1
0.325,0.0101592463466694,0.010117242981951354,63.82412906657212,67.0953312831982,1.036051631674307,7.079589239678818,0.0036320892385686954,0.0022142590287443737,0.003117282159249781,0.0028155965391546962,-585.6175348805859,3689.2625535016655,-52.117344717107734,696.0511237015619,3503.444814651517,-421.2710645138774,Vision,NoMovement,1
0.326,0.01014040721671247,0.010083179102713757,63.82412906657212,67.0953312831982,1.0359105303369027,7.0858256730839395,0.003659419573064089,0.0022548190883092856,0.003058540316037608,0.00284884604536922,-585.613306395523,3689.2621502893526,-52.11543986696578,696.0496358379543,3503.5912779574574,-421.27949871203316,Vision,NoMovement,1
0.327,0.010120461890334767,0.01004763647915364,63.82412906657212,67.0953312831982,1.0357680427075975,7.092039101565371,0.0036892577352582705,0.002297431913610305,0.003000167383055147,0.002884763365494487,-585.6090779104601,3689.2617470770397,-52.113535016823825,696.0481479743468,3503.7377412633978,-421.2879329101889,Vision,NoMovement,1
0.328,0.010099389892233508,0.010010621617361668,63.82412906657212,67.0953312831982,1.0356241672860556,7.098229415530633,0.003721626220799055,0.0023416948673486504,0.002943022801601635,0.0029232880641933906,-585.6048494253971,3689.261343864727,-52.11163016668188,696.0466601107393,3503.8842045693377,-421.29636710834467,Vision,NoMovement,1
0.329,0.01007717349451162,0.009972147479153549,63.82412906657212,67.0953312831982,1.0354789025856395,7.104396505792383,0.0037565096929265164,0.0023871634482592057,0.002887934437333094,0.0029643134920732746,-585.6006209403341,3689.2609406524143,-52.10972531653992,696.0451722471316,3504.030667875278,-421.3048013065004,Vision,NoMovement,1
0.33,0.010053798045135502,0.009932234689759895,63.82412906657212,67.0953312831982,1.0353322471338446,7.110540263588245,0.003793851393731127,0.002433357056859172,0.0028356850055733006,0.003007686639829419,-585.5963924552713,3689.2605374401014,-52.10782046639797,696.0436843835241,3504.1771311812186,-421.3132355046562,Vision,NoMovement,1
0.331,0.010029252314220818,0.00989091218905068,63.82412906657212,67.0953312831982,1.0351841994721436,7.116660580599098,0.0038335506037354985,0.002479765729294865,0.0027869997420309927,0.003053209021914458,-585.5921639702083,3689.260134227789,-52.10591561625601,696.0421965199165,3504.323594487159,-421.3216697028119,Vision,NoMovement,1
0.332,0.010003528858373571,0.009848217669246375,63.82412906657212,67.0953312831982,1.0350347581559385,7.122757348900715,0.003875461229404904,0.0025258577086943387,0.0027425354899865513,0.003100638634840192,-585.5879354851453,3689.259731015476,-52.104010766114065,696.040708656309,3504.4700577930994,-421.3301039009677,Vision,NoMovement,1
0.333,0.009976624403259818,0.009804197864625027,63.82412906657212,67.0953312831982,1.0348839217544392,7.128830461033455,0.00391939162992321,0.0025710876925894334,0.002702871381391304,0.0031496929835814176,-585.5837070000823,3689.259327803163,-52.10210591597211,696.0392207927014,3504.6165210990393,-421.3385380991234,Vision,NoMovement,1
0.334,0.009948540244520103,0.00975890928012954,63.82412906657212,67.0953312831982,1.0347316888510738,7.134879809950241,0.003965105760716634,0.0026149055596003208,0.0026685012918744415,0.0032000530969994562,-585.5794785150194,3689.2589245908507,-52.100201065830156,696.0377329290939,3504.7629844049798,-421.3469722972792,Vision,NoMovement,1
0.335,0.009919282667077492,0.009712419328828149,63.82412906657212,67.0953312831982,1.0345780580427282,7.140905289044112,0.0040123256287753805,0.0026567653508870947,0.0026398282002334725,0.003251368386981814,-585.5752500299565,3689.258521378538,-52.0982962156882,696.0381187383886,3504.8864677392717,-421.34878064579624,Vision,NoMovement,1
0.336,0.009888863382819423,0.009664806893622617,63.82412906657212,67.0953312831982,1.0344230279402067,7.1469067921454,0.004060734964279158,0.0026961342775579373,0.002617160496248522,0.003303262146397126,-585.5722859101406,3689.2599891251803,-52.0970905843143,696.0387328425861,3505.007151112915,-421.3497816774663,Vision,NoMovement,1
0.337,0.00985729998655186,0.00961616270089532,63.82412906657212,67.0953312831982,1.0342665971680574,7.152884213523611,0.0041099839535667145,0.0027325015610075837,0.0026007101788683594,0.0033553374471373422,-585.5697067180381,3689.2620264730153,-52.096097825511954,696.0393469467837,3505.1278344865577,-421.3507827091364,Vision,NoMovement,1
0.338,0.00982461643004517,0.009566590021916122,63.82412906657212,67.0953312831982,1.0341087643644447,7.158837447886391,0.004159694869718594,0.002765386974317521,0.002590592806288218,0.0034071831891814976,-585.5671275259356,3689.2640638208504,-52.095105066709614,696.0399610509812,3505.2485178602005,-421.35178374080647,Vision,NoMovement,1
0.339,0.009790843513893355,0.009516205334603083,63.82412906657212,67.0953312831982,1.0339495281815796,7.164766390399238,0.004209468494003844,0.002794349012255646,0.0025868290158845846,0.003458380056079725,-585.564548333833,3689.2661011686855,-52.094112307907274,696.0405751551789,3505.369201233844,-421.3527847724766,Vision,NoMovement,1
0.34,0.009756019396813694,0.009465139246533836,63.82412906657212,67.0953312831982,1.0337888872849277,7.170670936659474,0.00425889131854962,0.0028189926419513517,0.002589347426273217,0.003508506141312373,-585.5619691417306,3689.2681385165206,-52.09311954910493,696.0411892593764,3505.4898846074866,-421.35378580414664,Vision,NoMovement,1
0.341,0.00972019012190514,0.00941353673476423,63.82412906657212,67.0953312831982,1.0336268403536917,7.176550982718055,0.004307543589064074,0.0028389765596836987,0.0025979887547939737,0.0035571420415459105,-585.5593899496281,3689.2701758643557,-52.092126790302586,696.041803363574,3505.6105679811294,-421.3547868358167,Vision,NoMovement,1
0.342,0.00968341015926948,0.009361558141178113,63.82412906657212,67.0953312831982,1.0334633860806413,7.18240642507637,0.004355008237610261,0.0028540198186737466,0.0026125110216436904,0.0036038752826709564,-585.5568107575256,3689.2722132121903,-52.091134031500246,696.0424174677715,3505.7312513547727,-421.3557878674868,Vision,NoMovement,1
0.343,0.009645742964275063,0.009309380462811271,63.82412906657212,67.0953312831982,1.033298523172064,7.188237160685238,0.004400880669772141,0.0028639076286895624,0.0026325957556483314,0.003648304047213381,-585.554231565423,3689.2742505600254,-52.0901412726979,696.0430315719691,3505.8519347284155,-421.35678889915687,Vision,NoMovement,1
0.34400000000000003,0.009607261550614983,0.009257198346054334,63.82412906657212,67.0953312831982,1.0331322503476341,7.194043086964106,0.004444779252096062,0.0028684960929361,0.002657855150713632,0.00369004026519509,-585.5516523733205,3689.2762879078605,-52.08914851389556,696.0436456761666,3505.9726181020583,-421.357789930827,Vision,NoMovement,1
0.34500000000000003,0.00956804907716704,0.009205224978448634,63.82412906657212,67.0953312831982,1.032964566340864,7.19982410177519,0.004486356213427342,0.002867715653972994,0.00268784012893974,0.0037287121900844555,-585.5490731812181,3689.2783252556956,-52.08815575509322,696.0442597803642,3506.0933014757015,-421.35879096249704,Vision,NoMovement,1
0.34600000000000003,0.009528199447517326,0.0091536928755871,63.82412906657212,67.0953312831982,1.0327954698982753,7.205580103442017,0.004525308520740498,0.002861573068776729,0.0027220492405663987,0.0037639666160947274,-585.5464939891156,3689.2803626035306,-52.08716299629087,696.0448738845619,3506.2139848493443,-421.35979199416715,Vision,NoMovement,1
0.34700000000000003,0.009487817920848992,0.00910285435607771,63.82412906657212,67.0953312831982,1.0326249597799062,7.211310990766169,0.0045613881159728975,0.002850151816486827,0.002759938276289112,0.003795470912289759,-585.543914797013,3689.2823999513657,-52.08617023748853,696.0454879887594,3506.334668222987,-421.3607930258372,Vision,NoMovement,1
0.34800000000000003,0.009447021732732005,0.009052981749696152,63.82412906657212,67.0953312831982,1.0324530347591228,7.2170166629823935,0.004594410754373918,0.0028336109455188727,0.0028009304051995064,0.0038229150508673855,-585.5413356049105,3689.284437299201,-52.08517747868619,696.046102092957,3506.4553515966304,-421.36179405750727,Vision,NoMovement,1
0.34900000000000003,0.00940594072417127,0.009004368647896898,63.82412906657212,67.0953312831982,1.0322796936224836,7.2226970198232685,0.004624262643815382,0.0028121824625340227,0.002844426608635731,0.0038460137802467384,-585.5387564128081,3689.286474647036,-52.084184719883844,696.0467161971545,3506.576034970273,-421.3627950891774,Vision,NoMovement,1
0.35000000000000003,0.009364717977083693,0.008957331350171474,63.82412906657212,67.0953312831982,1.032104935170212,7.22835196147073,0.004650904219502966,0.002786167425284397,0.002889816164327269,0.003864509044244051,-585.5361772207056,3689.2885119948705,-52.0831919610815,696.0473303013521,3506.696718343916,-421.36379612084744,Vision,NoMovement,1
0.35100000000000003,0.00932351045418046,0.008912209856701298,63.82412906657212,67.0953312831982,1.0319287582153325,7.233981388581645,0.004674370679389183,0.002755930910753574,0.0029364869546116526,0.003878172706781539,-585.533598028603,3689.2905493427056,-52.08219920227916,696.0428341532986,3506.797179145693,-421.36061337001615,Vision,NoMovement,1
