Time,Amplitude_Envelope_P1,Amplitude_Envelope_P2,Filtered_ECG_P1,Filtered_ECG_P2,Filtered_Respiration_P1,Filtered_Respiration_P2,Filtered_EMG_Bicep_P1,Filtered_EMG_Tricep_P1,Filtered_EMG_Bicep_P2,Filtered_EMG_Tricep_P2,right_index_x_P1,right_index_y_P1,right_index_z_P1,right_index_x_P2,right_index_y_P2,right_index_z_P2,ConditionVision,ConditionMovement,Trial
0.0,0.0065974771804088,0.0054685085774435,65.0994575045208,61.57003591585429,-0.2159510081970933,19.04833648509392,0.00367779971741,0.0018427163462091,0.0020150169091103,0.0022787878258961,-554.7924758059742,3638.607683626946,-68.56317638303469,654.6595580063084,3519.896726507549,-412.8909660535833,Vision,NoMovement,4
0.001,0.0065974792413159645,0.005629461042490039,65.0994575045208,61.57003591585429,-0.21482184521744663,19.054655242351046,0.00370248703236429,0.001853062362885258,0.0021393874632734907,0.0023127700032844435,-554.9578569617025,3639.1016127781227,-68.56561263036012,654.750391160947,3520.0496087895426,-412.96825087752796,Vision,NoMovement,4
0.002,0.006597481334400125,0.005789198256733161,65.0994575045208,61.57003591585429,-0.21368939415506352,19.06099481031537,0.003726040076360958,0.0018647230926235165,0.002262284741287581,0.002345478785628571,-555.1232381174309,3639.5955419292995,-68.56804887768554,654.8412243155856,3520.2024910715368,-413.04553570147266,Vision,NoMovement,4
0.003,0.006597483454012874,0.005947202132240608,65.0994575045208,61.57003591585429,-0.21255366380489815,19.06735513701141,0.0037480108376924223,0.0018776607055072166,0.0023826487744259077,0.0023768643349749157,-555.2886192731593,3640.0894710804764,-68.57048512501098,654.9320574702241,3520.3553733535305,-413.1228205254173,Vision,NoMovement,4
0.004,0.0065974855938712145,0.0061030184832835755,65.0994575045208,61.57003591585429,-0.21141466304673834,19.07373616981246,0.003767943161755006,0.0018918177132564574,0.002499427914082172,0.002406914866892931,-555.4540004288876,3640.5834002316533,-68.57292137233641,655.0228906248626,3520.508255635524,-413.20010534936193,Vision,NoMovement,4
0.005,0.006597487747025067,0.006256240997587874,65.0994575045208,61.57003591585429,-0.21027240084400373,19.08013785546385,0.0037853811256012755,0.0019071167078028965,0.0026115952965973794,0.0024356555704950406,-555.619381584616,3641.0773293828297,-68.57535761966184,655.1137237795011,3520.661137917518,-413.2773901733066,Vision,NoMovement,4
0.006,0.006597489905823462,0.006406507175304857,65.0994575045208,61.57003591585429,-0.20912688624356554,19.08656014004816,0.003799878478269938,0.0019234604046536735,0.0027181652166273556,0.0024631460029948538,-555.7847627403444,3641.5712585340066,-68.57779386698726,655.2045569341398,3520.814020199512,-413.35467499725127,Vision,NoMovement,4
0.007,0.006597492061881254,0.00655349593401482,65.0994575045208,61.57003591585429,-0.20797812837452512,19.093002969008488,0.0038110091301878806,0.0019407319782766806,0.0028182090371344894,0.0024894761028223344,-555.9501438960727,3642.0651876851834,-68.5802301143127,655.2953900887783,3520.9669024815057,-413.4319598211959,Vision,NoMovement,4
0.008,0.006597494206045206,0.006696925974412187,65.0994575045208,61.57003591585429,-0.2068261364522017,19.09946628714274,0.003818378620278822,0.0019587956520499793,0.0029108702815728946,0.002514761046051966,-556.1155250518011,3642.5591168363603,-68.58266636163813,655.3862232434168,3521.1197847634994,-413.50924464514054,Vision,NoMovement,4
0.009000000000000001,0.006597496328360902,0.006836553171207829,65.0994575045208,61.57003591585429,-0.20567091977168164,19.10595003859784,0.0038216363869182732,0.0019774974972196395,0.0029953785910615473,0.0025391352235238315,-556.2809062075294,3643.053045987537,-68.58510260896355,655.4611958533363,3521.240498257016,-413.5548532330512,Vision,NoMovement,4
0.01,0.006597498418039047,0.006972167986320788,65.0994575045208,61.57003591585429,-0.2045124877118018,19.11245416689346,0.003820488535275862,0.0019966664273585472,0.0030710622531719997,0.002562745644348476,-556.4462873632577,3643.546975138714,-68.58753885628899,655.5293440259363,3521.3473702410192,-413.5868322457385,Vision,NoMovement,4
0.011,0.006597500463422159,0.007103593323861809,65.0994575045208,61.57003591585429,-0.20335084973390866,19.11897861488679,0.00381471066905206,0.002016115438400181,0.0031373590179137726,0.002585745090831197,-556.6116685189861,3644.040904289891,-68.58997510361442,655.5974921985364,3521.454242225023,-413.6188112584258,Vision,NoMovement,4
0.012,0.0065975024519526835,0.007230682958427006,65.0994575045208,61.57003591585429,-0.202186015380612,19.125523324796294,0.003804160285284954,0.00203564320178852,0.0031938249350580376,0.0026082853617392923,-556.7770496747145,3644.534833441068,-68.59241135093986,655.6656403711364,3521.5611142090265,-413.6507902711131,Vision,NoMovement,4
0.013000000000000001,0.0065975043701404805,0.00735331984585495,65.0994575045208,61.57003591585429,-0.20101799427980332,19.132088238195983,0.003788788244856111,0.0020550361449580092,0.0032401409851220138,0.0026305109210531044,-556.8795342167258,3644.8302192493315,-68.59552999761965,655.7337885437365,3521.66798619303,-413.68276928380044,Vision,NoMovement,4
0.014,0.006597506203532535,0.0074714138744453665,65.0994575045208,61.57003591585429,-0.19984679613811274,19.13867329601563,0.0037686489024486214,0.0020740711424202143,0.0032761173492197176,0.00265255321036688,-556.9496348876446,3645.0233801261857,-68.59899999441863,655.8019367163365,3521.774858177034,-413.71474829648776,Vision,NoMovement,4
0.015,0.006597507936682253,0.007584899775249899,65.0994575045208,61.57003591585429,-0.19867243074492855,19.145278438535055,0.0037439085407940643,0.002092518894529041,0.003301695253463162,0.0026745257990165214,-557.0197355585635,3645.2165410030398,-68.60246999121762,655.8700848889366,3521.8817301610375,-413.74672730917507,Vision,NoMovement,4
0.016,0.0065975095531219646,0.007693735486335719,65.0994575045208,61.57003591585429,-0.1974949079711303,19.15190360540829,0.0037148517500321257,0.0021101480027320004,0.003316946410440278,0.0026965204570889093,-557.0898362294823,3645.409701879894,-68.6059399880166,655.9382330615366,3521.988602145041,-413.7787063218624,Vision,NoMovement,4
0.017,0.006597511035334822,0.007797900533477772,65.0994575045208,61.57003591585429,-0.19631423776886991,19.158548735627942,0.0036818853343423314,0.0021267296716158384,0.003322070143701845,0.002718604150151594,-557.1599369004011,3645.602862756748,-68.60940998481558,656.0063812341367,3522.0954741290448,-413.8106853345497,Vision,NoMovement,4
0.018000000000000002,0.006597512364730803,0.007897394311354201,65.0994575045208,61.57003591585429,-0.19513043017029652,19.16521376754942,0.0036455392753785157,0.0021420428922269436,0.003317388328789298,0.002740816878824266,-557.2300375713199,3645.796023633602,-68.61287998161457,656.0745294067367,3522.202346113048,-413.842664347237,Vision,NoMovement,4
0.019,0.006597513521622608,0.007992233660470693,65.0994575045208,61.57003591585429,-0.19394349529160948,19.17189863888525,0.0036064643065108924,0.0021558798974113686,0.0033033383308853264,0.0027631702308122145,-557.3001382422389,3645.9891845104557,-68.61634997841355,656.1426775793368,3522.3092180970516,-413.87464335992433,Vision,NoMovement,4
0.02,0.006597514485205862,0.008082451217622397,65.0994575045208,61.57003591585429,-0.1927534433264085,19.17860328669941,0.0035654257954420305,0.0021680516381891372,0.0032804641614750936,0.0027856464931424922,-557.3702389131577,3646.18234538731,-68.61981997521252,656.2108257519368,3522.4160900810552,-413.90662237261165,Vision,NoMovement,4
0.021,0.006597515233540418,0.008168094396481354,65.0994575045208,61.57003591585429,-0.19156028454975027,19.185327647431887,0.00352329388557085,0.0021783930122119643,0.0032494060882656104,0.0028081981882116434,-557.4403395840765,3646.375506264164,-68.6232899720115,656.2789739245369,3522.522962065059,-413.93860138529897,Vision,NoMovement,4
0.022,0.0065975157435360495,0.00824922382579962,65.0994575045208,61.57003591585429,-0.1903640293157816,19.19207165686269,0.003481030124315186,0.0021867675789410774,0.0032108889152794953,0.0028307479367948997,-557.5104402549953,3646.568667141018,-68.62675996881049,656.3471220971369,3522.6298340490625,-413.9705803979863,Vision,NoMovement,4
0.023,0.006597515990940257,0.008325912421326567,65.0994575045208,61.57003591585429,-0.18916468806181513,19.19883525013653,0.0034396710196659647,0.00219307151578172,0.0031657091371529826,0.0028531886054626214,-557.5805409259142,3646.761828017872,-68.63022996560947,656.415270269737,3522.736706033066,-414.0025594106736,Vision,NoMovement,4
0.024,0.006597515950330767,0.00839824453266943,65.0994575045208,61.57003591585429,-0.18796227130160895,19.205618361757146,0.0034003090792352436,0.0021972366066679997,0.0031147212000979716,0.002875383760499751,-557.650641596833,3646.9549888947263,-68.63369996240846,656.483418442337,3522.84357801707,-414.0345384233609,Vision,NoMovement,4
0.025,0.0065975155951116275,0.00846631473743901,65.0994575045208,61.57003591585429,-0.18675678962945652,19.212420925587747,0.0033640719353551897,0.002199232111019733,0.003058823165620323,0.002897168518962068,-557.7207422677518,3647.1481497715804,-68.63716995920744,656.551566614937,3522.9504500010735,-414.06651743604823,Vision,NoMovement,4
0.026000000000000002,0.006597514897514013,0.008530225914192729,65.0994575045208,61.57003591585429,-0.18554825371886205,19.219242874845406,0.0033321001703673176,0.0021990654347315147,0.0029989421406589976,0.0029183509349767567,-557.7908429386707,3647.341310648434,-68.64063995600642,656.6197147875371,3523.0573219850767,-414.09849644873555,Vision,NoMovement,4
0.027,0.006597513828601617,0.008590088542929156,65.0994575045208,61.57003591585429,-0.18433667432229528,19.22608414212605,0.0033055244392702333,0.002196781602155395,0.002936019870408265,0.0029387140685863647,-557.8609436095895,3647.534471525288,-68.64410995280541,656.689315589108,3523.166512289697,-414.13062403714974,Vision,NoMovement,4
0.028,0.006597512358281661,0.008646019330323563,65.0994575045208,61.57003591585429,-0.18312206227093622,19.232944659368055,0.0032854424505682754,0.0021924615960092295,0.0028709988678623814,0.0029580188569766886,-557.9310442805083,3647.7276324021423,-68.64757994960439,656.8226445781207,3523.377409481459,-414.1692697812385,Vision,NoMovement,4
0.029,0.006597510455321879,0.00869814029919267,65.0994575045208,61.57003591585429,-0.18190442847334976,19.23982435787741,0.0032728963303468293,0.00218621968470429,0.0028048093782159617,0.0029760078595235245,-558.0011449514271,3647.9207932789964,-68.65104994640338,656.9559735671336,3523.5883066732204,-414.2079155253272,Vision,NoMovement,4
0.03,0.006597508087373032,0.008746577871632782,65.0994575045208,61.57003591585429,-0.18068378391959847,19.246723168315985,0.00326885085719696,0.0021781998882646142,0.0027383573871922065,0.002992409888005102,-558.071245622346,3648.1139541558505,-68.65451994320236,657.0893025561464,3523.7992038649822,-414.24656126941596,Vision,NoMovement,4
0.031,0.006597505220999393,0.008791461205455276,65.0994575045208,61.57003591585429,-0.1794601396744029,19.253641020726814,0.0032741729982762925,0.0021685717395083957,0.0026725138103332055,0.003006945469194822,-558.1413462932649,3648.3071150327046,-68.65798994000134,657.2226315451592,3524.010101056744,-414.28520701350476,Vision,NoMovement,4
0.032,0.006597501821714754,0.008832921497009682,65.0994575045208,61.57003591585429,-0.17823350688127146,19.260577844497433,0.0032896131000575888,0.002157525488236798,0.0026081049612849713,0.003019333018411592,-558.2114469641837,3648.5002759095582,-68.66145993680031,657.355960534172,3524.220998248506,-414.3238527575935,Vision,NoMovement,4
0.033,0.006597497854028215,0.00887109152049036,65.0994575045208,61.57003591585429,-0.17700389676005554,19.267533568385396,0.0033157880162117816,0.0021452668942411202,0.0025459043604578228,0.0030292955386240945,-558.2815476351025,3648.6934367864123,-68.6649299335993,657.4892895231849,3524.431895440268,-414.36249850168224,Vision,NoMovement,4
0.034,0.0065974932814963924,0.008906105081186116,65.0994575045208,61.57003591585429,-0.17577132061108466,19.27450812051265,0.0033531664105107013,0.002132011766693846,0.002486625894600688,0.003036567619132166,-558.3516483060214,3648.8865976632665,-68.66839993039828,657.6226185121976,3524.64279263203,-414.40114424577104,Vision,NoMovement,4
0.035,0.006597488066785905,0.008938096888202556,65.0994575045208,61.57003591585429,-0.1745357898082604,19.281501428366138,0.003402056446204592,0.0021179804181328562,0.002430918271728683,0.003040902514995941,-558.4201287301968,3649.0749205392467,-68.67184041002218,657.7559475012105,3524.8536898237912,-414.4397899898598,Vision,NoMovement,4
0.036000000000000004,0.006597482171744576,0.008967202168415834,65.0994575045208,61.57003591585429,-0.17329731580321978,19.288513418792327,0.0034625960365848073,0.002103392203517497,0.002379360672863523,0.003042079138453885,-558.4464489503916,3649.1373545007523,-68.67451282754223,657.8892764902232,3525.064587015553,-414.4784357339485,Vision,NoMovement,4
0.037,0.0065974755574826315,0.008993555712145726,65.0994575045208,61.57003591585429,-0.17205591012395022,19.29554401802299,0.0035347457698908236,0.00208846031065799,0.0023324595034327064,0.0030399088460225394,-558.4727691705866,3649.199788462258,-68.67718524506228,658.0226054792361,3525.275484207315,-414.51708147803726,Vision,NoMovement,4
0.038,0.006597468184465089,0.009017291395856027,65.0994575045208,61.57003591585429,-0.17081158437450247,19.302593151638064,0.003618284538893917,0.0020733869573802484,0.002290646178889261,0.0030342419148621093,-558.4990893907815,3649.2622224237634,-68.67985766258234,658.1559344682489,3525.486381399077,-414.55572722212605,Vision,NoMovement,4
0.039,0.006597460012614556,0.009038541686418414,65.0994575045208,61.57003591585429,-0.16956435023362196,19.309660744591692,0.003712807834137337,0.0020583591235199595,0.002254275896127519,0.0030249735694862353,-558.5254096109763,3649.324656385269,-68.68253008010238,658.2892634572617,3525.697278590839,-414.5943729662148,Vision,NoMovement,4
0.04,0.006597451001426131,0.00905743700009239,65.0994575045208,61.57003591585429,-0.16831421945891253,19.316746721206563,0.0038177286360935223,0.0020435449069977248,0.002223627326248055,0.003012049387165378,-558.5517298311712,3649.3870903467746,-68.68520249762243,658.4225924462745,3525.9081757826007,-414.63301871030353,Vision,NoMovement,4
0.041,0.006597441110095486,0.009074105470197305,65.0994575045208,61.57003591585429,-0.1670612038798342,19.32385100516854,0.00393228089421397,0.0020290905637461555,0.0021989031231560104,0.002995469907646713,-558.5780500513661,3649.44952430828,-68.68787491514249,658.5559214352874,3526.1190729743626,-414.6716644543923,Vision,NoMovement,4
0.042,0.006597430297658869,0.009088673212534404,65.0994575045208,61.57003591585429,-0.16580531540190552,19.330973519552717,0.004055525689758507,0.0020151182855997467,0.0021802311183844016,0.0029752942904178164,-558.604370271561,3649.5119582697857,-68.69054733266253,658.6865682805927,3526.3302778953343,-414.7064104891051,Vision,NoMovement,4
0.043000000000000003,0.0065974185231475945,0.009101263905912963,65.0994575045208,61.57003591585429,-0.16454656600527537,19.33811418678603,0.00418636029430519,0.0020017247738676885,0.002167666097159614,0.002951642877508714,-558.6306904917559,3649.5743922312913,-68.69321975018258,658.8144878114216,3526.5417957280747,-414.73719113829213,Vision,NoMovement,4
0.044,0.006597405745756635,0.009111997986876608,65.0994575045208,61.57003591585429,-0.1632849677433351,19.345272928673626,0.004323530373681262,0.001988980659888576,0.0021611921156967284,0.0029246985238212536,-558.6570107119508,3649.636826192797,-68.69589216770264,658.9424073422506,3526.7533135608146,-414.76797178747915,Vision,NoMovement,4
0.045,0.006597391925028114,0.009120992698873688,65.0994575045208,61.57003591585429,-0.1620205327469055,19.352449666393365,0.004465645529447834,0.0019769308019578313,0.002160725381096044,0.0028947065670006716,-558.6833309321456,3649.6992601543025,-68.69856458522268,659.0703268730795,3526.964831393555,-414.7987524366662,Vision,NoMovement,4
0.046,0.006597377021050599,0.009128362237338053,65.0994575045208,61.57003591585429,-0.16075327321715696,19.35964432049657,0.004611198247437926,0.001965595459314274,0.0021661177309067648,0.002861973338372715,-558.7096511523406,3649.761694115808,-68.70123700274273,659.1982464039083,3527.176349226295,-414.8295330858532,Vision,NoMovement,4
0.047,0.006597360994674989,0.009134217242842538,65.0994575045208,61.57003591585429,-0.1594832014298429,19.366856810902764,0.004758586160409884,0.0019549723129350816,0.0021771607218713383,0.002826863162384578,-558.7359713725355,3649.8241280773136,-68.70390942026279,659.3261659347373,3527.387867059035,-414.8603137350402,Vision,NoMovement,4
0.048,0.006597343807746306,0.009138664610738447,65.0994575045208,61.57003591585429,-0.1582103297338579,19.374087056926125,0.004906137354523564,0.0019450392640693176,0.0021935902935266713,0.002789793836670789,-558.7622915927303,3649.886562038819,-68.70658183778284,659.4540854655662,3527.599384891775,-414.89109438422724,Vision,NoMovement,4
0.049,0.006597325423353685,0.009141807653395794,65.0994575045208,61.57003591585429,-0.15693467055091573,19.38133497723774,0.005052138244820608,0.0019357578978253518,0.0022150919343183954,0.0027512306258407116,-558.7886118129252,3649.9489960003248,-68.70925425530288,659.5820049963951,3527.8109027245155,-414.92187503341427,Vision,NoMovement,4
0.05,0.0065973058060989605,0.009143745744568459,65.0994575045208,61.57003591585429,-0.1556562363741388,19.38860048989247,0.005194863352559075,0.0019270774638661399,0.0022413062512735816,0.002711678848333262,-558.81493203312,3650.0114299618303,-68.71192667282294,659.7099245272241,3528.0224205572554,-414.9526556826013,Vision,NoMovement,4
0.051000000000000004,0.006597284922382261,0.009144574360948862,65.0994575045208,61.57003591585429,-0.15437503977227243,19.39588351232337,0.005332606179096853,0.001918939208933801,0.0022718348271018097,0.002671675197995405,-558.841252253315,3650.073863923336,-68.71459909034299,659.837844058053,3528.2339383899957,-414.9834363317883,Vision,NoMovement,4
0.052000000000000005,0.0065972627407087855,0.009144385265113198,65.0994575045208,61.57003591585429,-0.15309109338251486,19.403183961336392,0.005463710323213844,0.001911280883999242,0.0023062462473570386,0.0026317780069438175,-558.8675724735099,3650.1362978848415,-68.71727150786303,659.9657635888818,3528.445456222736,-415.0142169809754,Vision,NoMovement,4
0.053,0.0065972392320137,0.00914326641348735,65.0994575045208,61.57003591585429,-0.15180440991478625,19.410501753137265,0.0055866000149682165,0.0019040412279878632,0.0023440821959902496,0.002592556710577941,-558.8938926937047,3650.198731846347,-68.71994392538308,660.0936831197107,3528.656974055476,-415.0449976301624,Vision,NoMovement,4
0.054,0.006597214370008416,0.009141301549550746,65.0994575045208,61.57003591585429,-0.1505150021502436,19.417836803293383,0.005699809322508142,0.0018971642113197848,0.0023848635403955964,0.0025545808137142707,-558.9202129138996,3650.2611658078526,-68.72261634290314,660.2216026505397,3528.8684918882163,-415.07577827934944,Vision,NoMovement,4
0.055,0.0065971881315464815,0.00913857033650161,65.0994575045208,61.57003591585429,-0.1492228829398504,19.425189026761085,0.0058020093673767,0.0018906028353864479,0.0024280963449966474,0.0025184086804461475,-558.9465331340945,3650.323599769358,-68.72528876042318,660.3495221813686,3529.0800097209562,-415.10655892853646,Vision,NoMovement,4
0.056,0.006597160497011762,0.009135148589265158,65.0994575045208,61.57003591585429,-0.14792806520861385,19.432558337880167,0.00589203292373191,0.001884322333095154,0.0024732777507959647,0.002484576481971348,-558.9728533542894,3650.386033730864,-68.72796117794323,660.4774417121974,3529.2915275536966,-415.1373395777235,Vision,NoMovement,4
0.057,0.006597131450726923,0.009131108432927955,65.0994575045208,61.57003591585429,-0.14663056194834145,19.439944650374883,0.005968895761611648,0.0018783026731091514,0.0025199016441380495,0.002453587618410378,-558.9991735744843,3650.4484676923694,-68.73063359546329,660.6053612430264,3529.5030453864365,-415.1681202269105,Vision,NoMovement,4
0.058,0.006597100981384514,0.009126518332062305,65.0994575045208,61.57003591585429,-0.14533038622193986,19.44734787734875,0.0060318140600467305,0.0018725403083960962,0.0025674640254001687,0.0024259028778311396,-559.0254937946792,3650.510901653875,-68.73330601298333,660.7332807738553,3529.714563219177,-415.1989008760975,Vision,NoMovement,4
0.059000000000000004,0.006597069082499254,0.009121443011573763,65.0994575045208,61.57003591585429,-0.14402755116192023,19.454767931311796,0.006080217252156523,0.0018670491227772458,0.002615467998105802,0.002401931519959844,-559.051814014874,3650.5733356153805,-68.73597843050338,660.8330136670045,3529.8869817764676,-415.2233818214732,Vision,NoMovement,4
0.06,0.006597035752883405,0.009115943771987359,65.0994575045208,61.57003591585429,-0.14272206997004416,19.462204724142136,0.006113755818223695,0.0018618605318545057,0.002663428342267601,0.0023820234039657116,-559.078134235069,3650.635769576886,-68.73865084802344,660.9294099775727,3530.0547719718065,-415.2471170417914,Vision,NoMovement,4
0.061,0.006597000997143664,0.009110078506158891,65.0994575045208,61.57003591585429,-0.1414139559158744,19.46965816711359,0.0061323038085349295,0.001857022707584958,0.002710875714019045,0.0023664622451180064,-559.1044544552639,3650.6982035383917,-68.74132326554349,661.0258062881409,3530.2225621671455,-415.2708522621096,Vision,NoMovement,4
0.062,0.006596964826200627,0.009103901384484194,65.0994575045208,61.57003591585429,-0.1401032223410356,19.477128170883915,0.006135956169740866,0.0018525989355618255,0.002757360593669563,0.002355460095726211,-559.1307746754587,3650.7606374998973,-68.74399568306353,661.1222025987091,3530.3903523624845,-415.29458748242786,Vision,NoMovement,4
0.063,0.006596927257830485,0.009097463027254322,65.0994575045208,61.57003591585429,-0.1387898826518875,19.48461464552225,0.006125021171164423,0.0018486651759317297,0.002802457153049774,0.0023491531817513376,-559.1570948956536,3650.823071461403,-68.74666810058359,661.2185989092774,3530.5581425578234,-415.31832270274606,Vision,NoMovement,4
0.064,0.006596888317228592,0.009090810651509495,65.0994575045208,61.57003591585429,-0.13747395032385837,19.492117500470535,0.006100008344799868,0.0018453069627362576,0.0028457672056003773,0.0023475992548838906,-559.1834151158484,3650.8855054229084,-68.74934051810364,661.3149952198456,3530.7259327531624,-415.3420579230643,Vision,NoMovement,4
0.065,0.0065968480375951455,0.009083988094181419,65.0994575045208,61.57003591585429,-0.13615543889990386,19.49963664457146,0.00606161242307156,0.001842615830968909,0.002886924349041128,0.002350776608264767,-559.2097353360434,3650.947939384414,-68.75201293562368,661.4113915304139,3530.8937229485014,-415.3657931433825,Vision,NoMovement,4
0.066,0.006596806460741767,0.009077035995124076,65.0994575045208,61.57003591585429,-0.134834361989041,19.50717198606306,0.006010693867607885,0.0018406855057345808,0.0029255983219727585,0.002358584847667145,-559.2360555562383,3651.0103733459196,-68.75468535314373,661.5077878409821,3531.0615131438403,-415.3895283637008,Vision,NoMovement,4
0.067,0.0065967636377191755,0.00906999184112608,65.0994575045208,61.57003591585429,-0.13351073327062957,19.514723432579874,0.005948256746488344,0.0018396081137125508,0.0029614995017330586,0.0023708474233955124,-559.2623757764331,3651.072807307425,-68.75735777066379,661.6041841515504,3531.229303339179,-415.413263584019,Vision,NoMovement,4
0.068,0.0065967196294651675,0.009062889889908322,65.0994575045208,61.57003591585429,-0.13218456648697707,19.522290891147914,0.005875424857618154,0.0018394706686703103,0.002994383393690084,0.002387315834020802,-559.288695996628,3651.1352412689307,-68.76003018818383,661.7005804621186,3531.397093534518,-415.43699880433724,Vision,NoMovement,4
0.069,0.006596674507471888,0.00905576165089356,65.0994575045208,61.57003591585429,-0.13085587544770008,19.529874268212517,0.005793417030577278,0.0018403520374673688,0.003024054912088881,0.0024076753347600116,-559.315016216823,3651.1976752304363,-68.76270260570388,661.7969767726868,3531.564883729857,-415.46073402465544,Vision,NoMovement,4
0.07,0.0065966283544713145,0.00904863610093092,65.0994575045208,61.57003591585429,-0.12952467402817922,19.53747346959939,0.0057035224420664095,0.0018423205214152456,0.0030503722156942237,0.002431551936111643,-559.3413364370178,3651.260109191942,-68.76537502322394,661.893373083255,3531.7326739251957,-415.4844692449737,Vision,NoMovement,4
0.07100000000000001,0.0065965812651384275,0.009041539565330011,65.0994575045208,61.57003591585429,-0.12819097616917643,19.545088400543047,0.005607076606013712,0.0018454321039699398,0.003073249837495087,0.002458520454926615,-559.3676566572127,3651.3225431534474,-68.76804744074398,661.9897693938233,3531.9004641205347,-415.5082044652919,Vision,NoMovement,4
0.07200000000000001,0.006596533346810287,0.009034495874434133,65.0994575045208,61.57003591585429,-0.12685479587535023,19.552718965681294,0.005505438520872681,0.0018497293319643488,0.003092660854808729,0.0024881133554399207,-559.3940198152561,3651.384976777056,-68.77073668125226,662.0861657043915,3532.0682543158737,-415.53193968561015,Vision,NoMovement,4
0.073,0.006596484720219513,0.009027526697742297,65.0994575045208,61.57003591585429,-0.1255161472195591,19.56036506905026,0.0053999693321774775,0.0018552407276500496,0.0031086378929921525,0.0025198300903886074,-559.4228119407187,3651.4473912860362,-68.77437758775278,662.1825620149598,3532.2360445112126,-415.55567490592836,Vision,NoMovement,4
0.074,0.006596435520240956,0.009020651530241177,65.0994575045208,61.57003591585429,-0.12417504433538988,19.568026614112522,0.005292012792506086,0.0018619805857983008,0.0031212728047593885,0.002553146646059308,-559.4516040661812,3651.5098057950163,-68.7780184942533,662.278958325528,3532.4038347065516,-415.5794101262466,Vision,NoMovement,4
0.075,0.006596385896648979,0.0090138879763781,65.0994575045208,61.57003591585429,-0.12283150142155078,19.575703503717936,0.0051828777294508415,0.0018699489964235456,0.0031307148928087425,0.0025875250337261627,-559.4803961916436,3651.5722203039963,-68.78165940075384,662.360758037711,3532.5479925583327,-415.60023040394043,Vision,NoMovement,4
0.076,0.006596336014884131,0.009007251855845229,65.0994575045208,61.57003591585429,-0.12148553274027964,19.58339564013237,0.005073822609867787,0.0018791319422231116,0.0031371675755420413,0.002622422545009079,-559.5091883171061,3651.6346348129764,-68.78530030725436,662.4072488376237,3532.634984190738,-415.6139994871928,Vision,NoMovement,4
0.077,0.006596286056826028,0.009000757155067417,65.0994575045208,61.57003591585429,-0.1201371526158456,19.59110292503233,0.004966042139287325,0.001889501347934304,0.003140883473841382,0.002657300653403623,-559.5379804425686,3651.6970493219565,-68.78894121375488,662.4537396375364,3532.7219758231436,-415.62776857044526,Vision,NoMovement,4
0.078,0.006596236221570032,0.008994416228824369,65.0994575045208,61.57003591585429,-0.11878637543886965,19.598825259506366,0.004860655707504139,0.0019010150129520021,0.0031421580178050304,0.002691633470299466,-559.5667725680312,3651.7594638309365,-68.7925821202554,662.5002304374491,3532.808967455549,-415.64153765369764,Vision,NoMovement,4
0.079,0.006596186726205728,0.008988240036143996,65.0994575045208,61.57003591585429,-0.11743321565879145,19.60656254405018,0.004758697435301116,0.0019136164288610247,0.0031413217938056743,0.002724915658319237,-559.5955646934937,3651.8218783399166,-68.79622302675594,662.5467212373618,3532.8959590879545,-415.65530673695,Vision,NoMovement,4
0.08,0.006596137806592708,0.008982238176173862,65.0994575045208,61.57003591585429,-0.11607768778828817,19.614314678595097,0.004661107611724559,0.0019272345368439925,0.0031387319430097034,0.0027566696983714785,-559.6243568189561,3651.884292848896,-68.79986393325646,662.5932120372745,3532.98295072036,-415.6690758202024,Vision,NoMovement,4
0.081,0.006596089718131557,0.008976418582802997,65.0994575045208,61.57003591585429,-0.11471980640168385,19.622081562468626,0.004568725401936673,0.0019417834986657392,0.0031347629765446764,0.0027864524131667213,-559.6531489444186,3651.946707357876,-68.80350483975698,662.6397028371872,3533.0699423527653,-415.68284490345485,Vision,NoMovement,4
0.082,0.006596042736525731,0.008970787747871132,65.0994575045208,61.57003591585429,-0.11335958613453968,19.62986309442343,0.004482282827157663,0.001957162552792563,0.0031297973941180417,0.0028138606664987304,-559.6819410698811,3652.0091218668563,-68.80714574625752,662.6861936370999,3533.156933985171,-415.69661398670723,Vision,NoMovement,4
0.083,0.006595997158529949,0.00896535067562481,65.0994575045208,61.57003591585429,-0.11199704168213875,19.63765917262559,0.004402400119176318,0.0019732560249934106,0.0031242164820325,0.0028385361675571257,-559.7107331953437,3652.0715363758363,-68.81078665275804,662.7326844370126,3533.243925617576,-415.7103830699596,Vision,NoMovement,4
0.084,0.0065959533026817814,0.008960111132885229,65.0994575045208,61.57003591585429,-0.11063218780382707,19.645469694683307,0.004329582593745592,0.001989933561317571,0.0031183916246353425,0.002860169310480494,-559.7395253208061,3652.1339508848164,-68.81442755925856,662.7791752369253,3533.3309172499817,-415.724152153212,Vision,NoMovement,4
0.085,0.0065959115100113425,0.008955071905477402,65.0994575045208,61.57003591585429,-0.10926503931540998,19.653294557607293,0.004264219150497312,0.0020070506459656033,0.0031126764045123563,0.0028785019796641505,-559.7683174462686,3652.1963653937964,-68.8180684657591,662.825666036838,3533.417908882387,-415.73792123646444,Vision,NoMovement,4
0.08600000000000001,0.006595872144723584,0.008950235047008901,65.0994575045208,61.57003591585429,-0.10789561109357584,19.66113365784012,0.004206582429128755,0.0020244494567403454,0.0031073997050051244,0.0028933292731563474,-559.7971095717311,3652.2587799027765,-68.82170937225962,662.8721568367507,3533.5049005147926,-415.75169031971683,Vision,NoMovement,4
0.08700000000000001,0.0065958355948489925,0.008945601619152347,65.0994575045208,61.57003591585429,-0.10652391807315592,19.668986891250942,0.004156830581497566,0.0020419601000839015,0.003102859966484689,0.002904500141177321,-559.8259016971936,3652.3211944117566,-68.82535027876014,662.9186476366634,3533.591892147198,-415.7654594029692,Vision,NoMovement,4
0.088,0.006595802272855797,0.00894117163356626,65.0994575045208,61.57003591585429,-0.10514997525147671,19.676854153137054,0.004115010594928608,0.002059402254416019,0.0030993206846751525,0.002911916991394329,-559.854693822656,3652.3836089207366,-68.82899118526068,662.9651384365761,3533.6788837796034,-415.77922848622165,Vision,NoMovement,4
0.089,0.006595772616219068,0.008936944443651167,65.0994575045208,61.57003591585429,-0.10377379768071243,19.684735338219113,0.004081063092396857,0.0020765872375175074,0.0030970071816166732,0.002915534357992166,-559.8718170209024,3652.4272690206135,-68.83128898090808,663.0116292364887,3533.765875412009,-415.79299756947404,Vision,NoMovement,4
0.09,0.006595747087937934,0.008932918928665741,65.0994575045208,61.57003591585429,-0.10239540047235211,19.692630340670178,0.004054828502196034,0.002093320497781798,0.003096104630302122,0.0029153567605267,-559.8799268145411,3652.4564426921925,-68.83254932029857,663.0581200364014,3533.8528670444143,-415.8067666527264,Vision,NoMovement,4
0.091,0.0065957261769975925,0.008929093223043002,65.0994575045208,61.57003591585429,-0.1010147987955717,19.70053905407585,0.004036054414355765,0.002109404505188083,0.003096757268601014,0.0029114358865724413,-559.8880366081797,3652.485616363771,-68.83380965968905,663.1046108363141,3533.9398586768198,-415.8205357359788,Vision,NoMovement,4
0.092,0.006595710398765434,0.00892546478309218,65.0994575045208,61.57003591585429,-0.0996320078768275,19.708461371463958,0.004024403856026842,0.002124641979923654,0.0030990686919554634,0.002903867220618504,-559.8961464018184,3652.51479003535,-68.83506999907954,663.1511016362268,3534.026850309225,-415.83430481923125,Vision,NoMovement,4
0.093,0.006595700295315371,0.008922030778034674,65.0994575045208,61.57003591585429,-0.09824704299942118,19.716397185299225,0.004019464157615922,0.002138839355036562,0.0031031030663196705,0.002892786225989707,-559.904256195457,3652.543963706929,-68.83633033847002,663.1975924361395,3534.1138419416307,-415.84807390248363,Vision,NoMovement,4
0.094,0.006595696435672762,0.008918788177927595,65.0994575045208,61.57003591585429,-0.09685991950195955,19.72434638747856,0.004020756072803788,0.002151810342734601,0.003108887054409305,0.0028783641844866204,-559.9123659890957,3652.573137378508,-68.83759067786052,663.2334757838278,3534.1851139491673,-415.8600271716614,Vision,NoMovement,4
0.095,0.00659569941597016,0.008915733615978373,65.0994575045208,61.57003591585429,-0.09547065278272737,19.73230886936031,0.004027742869288644,0.0021633794783506746,0.0031164122058944007,0.002860803807736487,-559.9204757827343,3652.602311050087,-68.838851017251,663.2627356692545,3534.246570372351,-415.87084661758513,Vision,NoMovement,4
0.096,0.00659570985950596,0.008912863044867356,65.0994575045208,61.57003591585429,-0.09407925829196602,19.740284521724245,0.004039839206392039,0.0021733855507683865,0.0031256375405390403,0.002840334739837422,-559.928585576373,3652.631484721666,-68.84011135664149,663.2919955546813,3534.3080267955347,-415.88166606350893,Vision,NoMovement,4
0.097,0.006595728416696345,0.008910171813557166,65.0994575045208,61.57003591585429,-0.09268575153634413,19.74827323480154,0.004056419704635622,0.002181684868673418,0.00313649207243208,0.002817209062814991,-559.9366953700116,3652.660658393245,-68.84137169603197,663.3212554401081,3534.369483218719,-415.89248550943273,Vision,NoMovement,4
0.098,0.00659575576491066,0.008907655369565686,65.0994575045208,61.57003591585429,-0.09129014807617465,19.756274898269627,0.0040768271411299566,0.0021881543295837733,0.0031488770869631286,0.0027916969016599097,-559.9448051636504,3652.689832064824,-68.84263203542245,663.3505153255348,3534.4309396419026,-415.90330495535653,Vision,NoMovement,4
0.099,0.006595792608180577,0.008905309564909255,65.0994575045208,61.57003591585429,-0.08989246352979863,19.764289401253844,0.004100380192518104,0.002192694239991818,0.0031626680732189665,0.0027640822125564513,-559.9529149572891,3652.7190057364023,-68.84389237481294,663.3797752109616,3534.4923960650863,-415.9141244012803,Vision,NoMovement,4
0.1,0.006595839676771979,0.00890313007248242,65.0994575045208,61.57003591585429,-0.08849271356582379,19.772316632322912,0.004126380671300103,0.002195230798223579,0.0031777163087498375,0.002734658826798758,-559.9610247509277,3652.7481794079813,-68.84515271420342,663.4090350963885,3534.55385248827,-415.9249438472041,Vision,NoMovement,4
0.101,0.006595897726608954,0.008901112166315575,65.0994575045208,61.57003591585429,-0.0870909139076405,19.78035647951844,0.00415412030117781,0.0021957181303269837,0.0031938501674992487,0.002703726797629759,-559.9691345445664,3652.7773530795603,-68.8464130535939,663.4382949818153,3534.6153089114537,-415.9357632931279,Vision,NoMovement,4
0.10200000000000001,0.006595967538538095,0.008899250592819532,65.0994575045208,61.57003591585429,-0.08568708033175726,19.78840883031467,0.004182887218064986,0.002194139789145498,0.0032108762496247945,0.0026715890505643824,-559.977244338205,3652.8065267511392,-68.84767339298439,663.467554867242,3534.6767653346374,-415.9465827390517,Vision,NoMovement,4
0.10300000000000001,0.006596049917421516,0.008897539746820825,65.0994575045208,61.57003591585429,-0.08428122866734479,19.79647357164882,0.00421197249615225,0.0021905096810355125,0.003228580411502776,0.0026385482871166327,-559.9853541318437,3652.835700422718,-68.84893373237487,663.4968147526688,3534.738221757821,-415.9574021849754,Vision,NoMovement,4
0.10400000000000001,0.006596145691047473,0.008895973921634341,65.0994575045208,61.57003591585429,-0.08287337479467731,19.804550589915774,0.00424067703992883,0.002184872439790085,0.0032467287351979294,0.0026049040730234656,-559.9934639254823,3652.864874094297,-68.85019407176536,663.5260746380956,3534.799678181005,-415.9682216308992,Vision,NoMovement,4
0.105,0.006596255708843216,0.008894547566658806,65.0994575045208,61.57003591585429,-0.08146353464953027,19.812639770963585,0.004268319137243719,0.00217730328811449,0.0032650684598455855,0.0025709500656438504,-560.0001417486067,3652.892328636,-68.85155235126683,663.5553345235223,3534.861134604189,-415.979041076823,Vision,NoMovement,4
0.106,0.006596380840381225,0.008893255628816458,65.0994575045208,61.57003591585429,-0.08005172421536291,19.820741000123164,0.004294242849196141,0.002167907406117045,0.003283328917983483,0.0025369713908509383,-559.9953538538218,3652.9060181888194,-68.85369483244952,663.5845944089491,3534.9225910273726,-415.9898605227468,Vision,NoMovement,4
0.107,0.006596521973661285,0.008892092678544315,65.0994575045208,61.57003591585429,-0.07863795952786007,19.828854162167914,0.004317827258668029,0.0021568187871356865,0.003301222569108412,0.0025032422439601183,-559.9905659590369,3652.9197077416393,-68.8558373136322,663.6138542943759,3534.9840474505563,-416.00067996867057,Vision,NoMovement,4
0.108,0.006596680013158864,0.008891052913295075,65.0994575045208,61.57003591585429,-0.07722225667321643,19.83697914134434,0.004338496456024744,0.0021441985309794743,0.0033184462771033685,0.0024700238367222666,-559.9857780642519,3652.9333972944587,-68.85797979481488,663.6431141798026,3535.04550387374,-416.01149941459437,Vision,NoMovement,4
0.109,0.0065968558776224135,0.008890130680673899,65.0994575045208,61.57003591585429,-0.07580463178657,19.845115821366928,0.00435573001483429,0.0021302325176392432,0.00333468300759945,0.0024375628263378674,-559.980990169467,3652.9470868472786,-68.86012227599755,663.6723740652294,3535.1069602969237,-416.02231886051817,Vision,NoMovement,4
0.11,0.006597050497608173,0.008889320675526068,65.0994575045208,61.57003591585429,-0.07438510105641077,19.85326408542007,0.004369073590017249,0.0021151284229790727,0.0033496041139460275,0.002406090329460821,-559.9762022746821,3652.960776400098,-68.86226475718023,663.7015624320103,3535.1683044576357,-416.0331127557479,Vision,NoMovement,4
0.111,0.006597264812737199,0.008888617712780171,65.0994575045208,61.57003591585429,-0.07296368071671964,19.8614238161536,0.004378149159619095,0.0020991120774568085,0.0033628723407486388,0.002375821559563196,-559.9714143798972,3652.9744659529174,-68.86440723836292,663.7256903125601,3535.2217051976327,-416.0420987457254,Vision,NoMovement,4
0.112,0.00659749976865902,0.008888016785279802,65.0994575045208,61.57003591585429,-0.07154038705152986,19.869594895712815,0.004382664370673017,0.002082423218806392,0.0033741456166851056,0.0023469560575068472,-559.9666264851122,3652.9881555057373,-68.86654971954559,663.7498181931098,3535.2751059376296,-416.051084735703,Vision,NoMovement,4
0.113,0.006597756313709386,0.00888751330748947,65.0994575045208,61.57003591585429,-0.07011523639322896,19.877777205697893,0.004382420481843084,0.0020653107363986572,0.0033830816459966095,0.0023196784360885866,-559.9618385903273,3653.0018450585567,-68.86869220072826,663.7739460736597,3535.328506677627,-416.06007072568053,Vision,NoMovement,4
0.114,0.006598035395246162,0.008887102708430546,65.0994575045208,61.57003591585429,-0.06868824512208356,19.885970627194602,0.0043773185064195416,0.0020480275450572207,0.003389343252378299,0.002294159525579542,-559.9570506955423,3653.0155346113766,-68.87083468191095,663.7980739542095,3535.381907417624,-416.0690567156581,Vision,NoMovement,4
0.115,0.0065983379556482135,0.008886780702261015,65.0994575045208,61.57003591585429,-0.06725942966466383,19.894175040762743,0.004367363284009985,0.0020308252566509596,0.0033926043836892965,0.0022705577743974284,-559.9522628007575,3653.029224164196,-68.87297716309362,663.8222018347592,3535.435308157621,-416.07804270563565,Vision,NoMovement,4
0.116,0.006598664927963344,0.008886543065747666,65.0994575045208,61.57003591585429,-0.06582880649826468,19.902390326466236,0.00435266528117385,0.002013948838086772,0.003392556646474154,0.0022490207205875016,-559.9474749059725,3653.042913717016,-68.8751196442763,663.846329715309,3535.488708897618,-416.0870286956132,Vision,NoMovement,4
0.117,0.00659901723119052,0.008886385345281677,65.0994575045208,61.57003591585429,-0.06439639214299597,19.910616363832485,0.004333439928422947,0.001997631451515648,0.0033889161944335743,0.0022296863322943798,-559.9426870111876,3653.0566032698353,-68.87726212545898,663.8704575958587,3535.5421096376153,-416.0960146855908,Vision,NoMovement,4
0.11800000000000001,0.006599395765181833,0.008886302680906833,65.0994575045208,61.57003591585429,-0.06296220316636607,19.918853031883465,0.004310004302067358,0.0019820896616995222,0.0033814307446990185,0.002212684036394748,-559.9378991164026,3653.070292822655,-68.87940460664166,663.8945854764086,3535.5955103776123,-416.1050006755683,Vision,NoMovement,4
0.11900000000000001,0.006599801405148787,0.008886290116564067,65.0994575045208,61.57003591585429,-0.06152625618153288,19.927100209130675,0.004282771036429454,0.0019675191590153665,0.003369886449743314,0.002198135302241124,-559.9331112216178,3653.0839823754745,-68.88154708782434,663.9187133569584,3535.6489111176093,-416.1139866655459,Vision,NoMovement,4
0.12,0.006600234995760987,0.008886342830658303,65.0994575045208,61.57003591585429,-0.06008856784572253,19.935357773577188,0.004252239540439217,0.001954091094553672,0.00335411431840428,0.0021861536886075544,-559.9283233268328,3653.0976719282944,-68.88368956900702,663.9428412375081,3535.702311857606,-416.1229726555234,Vision,NoMovement,4
0.121,0.006600697344821672,0.008886456012702213,65.0994575045208,61.57003591585429,-0.058649154864658964,19.943625602713407,0.004218984835660652,0.00194194908002428,0.003333995860043347,0.0021768442924612937,-559.9235354320479,3653.111361481114,-68.88583205018969,663.9669691180579,3535.7557125976036,-416.131958645501,Vision,NoMovement,4
0.122,0.006601189216508251,0.008886625036000918,65.0994575045208,61.57003591585429,-0.0572080339846173,19.951903573547362,0.0041836445231485785,0.0019312068909428325,0.003309467633619324,0.002170302577909535,-559.9160476303311,3653.1211665316214,-68.88964677698885,663.9910969986076,3535.8091133376006,-416.14094463547855,Vision,NoMovement,4
0.123,0.00660171132416397,0.008886845238198349,65.0994575045208,61.57003591585429,-0.05576522199702462,19.960191562563967,0.0041469044582470955,0.001921946922039307,0.0032805244374101267,0.0021666126179525637,-559.9071556158207,3653.12895126514,-68.89433123328172,664.0152248791575,3535.8625140775976,-416.14993062545614,Vision,NoMovement,4
0.124,0.006602264322630897,0.008887111769545054,65.0994575045208,61.57003591585429,-0.05432073573673487,19.968489445756365,0.004109483678058168,0.0019142194500237015,0.003247220974949474,0.002165844824429435,-559.8982636013103,3653.1367359986584,-68.89901568957458,664.0393527597073,3535.9159148175945,-416.15891661543367,Vision,NoMovement,4
0.125,0.0066028488001103275,0.008887419796346482,65.0994575045208,61.57003591585429,-0.05287459208153528,19.976797098620718,0.004072119054664849,0.0019080427402836785,0.003209671958807027,0.0021680532575313457,-559.8893715867998,3653.1445207321767,-68.90370014586746,664.063480640257,3535.969315557592,-416.16790260541126,Vision,NoMovement,4
0.126,0.006603465269543115,0.008887764814630947,65.0994575045208,61.57003591585429,-0.051426807950560205,19.985114396152078,0.0040355500923115895,0.0019034039951507,0.0031680507391965594,0.0021732726144921923,-559.8804795722893,3653.1523054656955,-68.90838460216033,664.0876085208068,3536.022716297589,-416.1768885953888,Vision,NoMovement,4
0.127,0.006604114159498918,0.008888142481592861,65.0994575045208,61.57003591585429,-0.04997740030872954,19.993441212874824,0.004000504267363655,0.0019002611078577031,0.0031225866539909917,0.0021815150211725513,-559.871587557779,3653.1600901992138,-68.91306905845319,664.10993115337,3536.071584776568,-416.185310083013,Vision,NoMovement,4
0.128,0.006604795804567163,0.008888548176493842,65.0994575045208,61.57003591585429,-0.048526386158761,20.001777422801794,0.003967683300440729,0.0018985451742115568,0.003073561370181439,0.002192766781678398,-559.8626955432685,3653.167874932732,-68.91775351474605,664.12968018845,3536.1139919739767,-416.19292680483966,Vision,NoMovement,4
0.129,0.006605510435243342,0.00888897714246497,65.0994575045208,61.57003591585429,-0.04707378254579183,20.010122899465866,0.0039377507112272276,0.0018981637131533376,0.003021304498782542,0.002206985257484915,-559.853803528758,3653.175659666251,-68.92243797103892,664.1494292235302,3536.1563991713847,-416.2005435266663,Vision,NoMovement,4
0.13,0.006606258167304709,0.008889424803088677,65.0994575045208,61.57003591585429,-0.04561960655559939,20.01847751591499,0.0039113209143061415,0.0018990045337197482,0.002966188725780923,0.0022240960399240142,-559.8449115142477,3653.183444399769,-68.92712242733178,664.1691782586103,3536.1988063687927,-416.2081602484929,Vision,NoMovement,4
0.131,0.006607038990672211,0.008889886498972648,65.0994575045208,61.57003591585429,-0.04416387531301112,20.026841144714385,0.003888949989478759,0.0019009401486328823,0.002908624643490976,0.0022439905598992094,-559.8360194997372,3653.1912291332874,-68.93180688362465,664.1889272936903,3536.2412135662007,-416.21577697031955,Vision,NoMovement,4
0.132,0.006607852757757024,0.008890357973695605,65.0994575045208,61.57003591585429,-0.04270660598635018,20.0352136579425,0.0038711281348219576,0.0019038325824626582,0.0028490554246235703,0.0022665242614698204,-559.8271274852267,3653.199013866806,-68.93649133991751,664.2086763287704,3536.2836207636087,-416.2233936921462,Vision,NoMovement,4
0.133,0.006608699171291803,0.008890835500193749,65.0994575045208,61.57003591585429,-0.041247815779416,20.043594927221662,0.0038582737226484248,0.001907538370429647,0.0027879514534375903,0.0022915154586579563,-559.8182354707163,3653.2067986003244,-68.94117579621039,664.2284253638504,3536.3260279610167,-416.2310104139728,Vision,NoMovement,4
0.134,0.006609577771648267,0.008891315952352763,65.0994575045208,61.57003591585429,-0.03978752193612173,20.051984823677085,0.0038507288518995074,0.0019119135032684448,0.002725805001010661,0.0023187449926486132,-559.8093434562059,3653.214583333843,-68.94586025250325,664.2481743989305,3536.368435158425,-416.23862713579945,Vision,NoMovement,4
0.135,0.006610487923647562,0.008891796997301296,65.0994575045208,61.57003591585429,-0.03832574173874445,20.06038321796868,0.0038487563069144136,0.0019168180573010845,0.0026631249948784242,0.002347956802550518,-559.8004514416955,3653.2223680673615,-68.95054470879612,664.2679234340106,3536.410842355833,-416.2462438576261,Vision,NoMovement,4
0.136,0.006611428802867858,0.008892276699042466,65.0994575045208,61.57003591585429,-0.036862492507417646,20.068789980285906,0.0038525378423609905,0.0019221202721504346,0.002600431897657405,0.002378859504409099,-559.791559427185,3653.2301528008798,-68.95522916508898,664.2876724690907,3536.453249553241,-416.2538605794527,Vision,NoMovement,4
0.137,0.0066123993814625505,0.008892752821155783,65.0994575045208,61.57003591585429,-0.03539779159853833,20.077204980343847,0.0038621736785126315,0.0019276999051524065,0.002538252673583987,0.002411129038535142,-559.7826674126745,3653.2379375343985,-68.95991362138184,664.3074215041707,3536.4956567506492,-416.26147730127934,Vision,NoMovement,4
0.138,0.006613398413498252,0.008893222660887953,65.0994575045208,61.57003591585429,-0.03393165640921802,20.08562808741393,0.003877683025519268,0.0019334507858835646,0.0024771157972592606,0.0024444124049846456,-559.7745727829529,3653.24657622729,-68.96480626461673,664.3271705392508,3536.5380639480572,-416.269094023106,Vision,NoMovement,4
0.139,0.006614424419832205,0.008893683380179046,65.0994575045208,61.57003591585429,-0.03246410436923183,20.094059170282907,0.003899005412372908,0.0019392825876500368,0.0024175462517878835,0.0024783324769754697,-559.7695765243785,3653.2585331212813,-68.97050785282212,664.3469195743309,3536.5804711454653,-416.27671074493264,Vision,NoMovement,4
0.14,0.006615475672545287,0.008894132255222547,65.0994575045208,61.57003591585429,-0.03099515294567159,20.102498097284865,0.003926002623535596,0.0019451218933552422,0.0023600604688652797,0.0025124938595451046,-559.7645802658042,3653.270490015273,-68.97620944102754,664.3666686094109,3536.6228783428737,-416.28432746675924,Vision,NoMovement,4
0.14100000000000001,0.006616550178956596,0.008894566424024933,65.0994575045208,61.57003591585429,-0.02952481964118625,20.110944736296343,0.003958461157914733,0.001950912647588514,0.0023051611783274657,0.0025464897212332392,-559.7595840072299,3653.2824469092643,-68.98191102923293,664.386417644491,3536.6652855402817,-416.2919441885859,Vision,NoMovement,4
0.14200000000000002,0.006617645665244151,0.008894983044775396,65.0994575045208,61.57003591585429,-0.0280531219934671,20.119398954738674,0.003996095284683487,0.001956616073749722,0.0022533321437394156,0.0025799094622450235,-559.7545877486556,3653.294403803256,-68.98761261743833,664.3954770510787,3536.6840260902945,-416.29635777155886,Vision,NoMovement,4
0.14300000000000002,0.006618759559705368,0.008895379182672705,65.0994575045208,61.57003591585429,-0.026580077573652862,20.12786061957409,0.004038550910240085,0.0019622101255917014,0.0022050327742791065,0.0026123469987685364,-559.7495914900812,3653.3063606972473,-68.99331420564373,664.4031583790451,3536.6997155987456,-416.3003584143461,Vision,NoMovement,4
0.14400000000000002,0.006619888975691212,0.008895751611293204,65.0994575045208,61.57003591585429,-0.02510570399078671,20.13632959733668,0.004085410528038947,0.001967688540923311,0.0021606926372978856,0.0026434093625609845,-559.7445952315069,3653.3183175912386,-68.99901579384913,664.4108397070113,3536.715405107196,-416.30435905713335,Vision,NoMovement,4
0.145,0.006621030694261832,0.008896096830308148,65.0994575045208,61.57003591585429,-0.023630018883735,20.14480575409125,0.004136199484668215,0.001973059554388424,0.0021207059527540025,0.002672725264814442,-559.7395989729325,3653.3302744852303,-69.00471738205452,664.4185210349776,3536.7310946156467,-416.3083596999206,Vision,NoMovement,4
0.146,0.006622181146638217,0.008896411316132828,65.0994575045208,61.57003591585429,-0.022153039925857515,20.153288955465285,0.004190393689664569,0.0019783443026022756,0.002085426199374884,0.0026999532744320137,-559.7346027143583,3653.3422313792216,-69.01041897025992,664.426202362944,3536.7467841240973,-416.3123603427078,Vision,NoMovement,4
0.147,0.006623336396687114,0.008896691670705245,65.0994575045208,61.57003591585429,-0.020674784823192117,20.161779066637685,0.004247428769875966,0.001983574936067814,0.0020551609887339566,0.0027247892996448446,-559.7296064557839,3653.354188273213,-69.01612055846533,664.4338836909102,3536.7624736325483,-416.316360985495,Vision,NoMovement,4
0.148,0.006624492124354208,0.008896934732584332,65.0994575045208,61.57003591585429,-0.019195271312859193,20.170275952369746,0.00430671053967357,0.001988792450731846,0.0020301673730981898,0.0027469731128493126,-559.7246101972096,3653.3661451672046,-69.02182214667073,664.4415650188765,3536.778163140999,-416.3203616282822,Vision,NoMovement,4
0.149,0.006625643615802822,0.008897137675067317,65.0994575045208,61.57003591585429,-0.017714517167521322,20.17877947696408,0.004367626533541235,0.001994044267639306,0.0020106477592906685,0.002766293703133644,-559.7196139386352,3653.378102061196,-69.02752373487613,664.4492463468429,3536.7938526494495,-416.32436227106945,Vision,NoMovement,4
0.15,0.006626785792616621,0.008897298247315047,65.0994575045208,61.57003591585429,-0.016232540187281756,20.1872895042969,0.004429558228812911,0.0019993816161951853,0.001996746584675152,0.002782593289122291,-559.7146176800609,3653.390058955187,-69.03322532308152,664.4569276748091,3536.8095421579005,-416.32836291385667,Vision,NoMovement,4
0.151,0.006627913424954483,0.008897414517829879,65.0994575045208,61.57003591585429,-0.01474935820436635,20.19580589781324,0.004491893470328947,0.0020048568081161913,0.0019885478627149245,0.0027957698786093724,-559.7096214214866,3653.402015849179,-69.03892691128692,664.4646090027754,3536.825231666351,-416.3323635566439,Vision,NoMovement,4
0.152,0.006629022033688177,0.008897484660743015,65.0994575045208,61.57003591585429,-0.013264989081346315,20.20432852052942,0.00455403850727961,0.002010520518219972,0.001986073639135649,0.0028057783130559935,-559.7046251629123,3653.4139727431702,-69.04462849949232,664.4722903307417,3536.8409211748017,-416.3363641994311,Vision,NoMovement,4
0.153,0.006630107858694726,0.008897507119194164,65.0994575045208,61.57003591585429,-0.011779450710614392,20.212857235029304,0.004615428988008714,0.00201641920765846,0.0019892833516108534,0.002812629773325406,-559.6996289043379,3653.425929637162,-69.05033008769772,664.479971658708,3536.8566106832527,-416.3403648422183,Vision,NoMovement,4
0.154,0.0066311676842005516,0.008897480320476147,65.0994575045208,61.57003591585429,-0.01029276101278937,20.221391903495466,0.0046755392852444455,0.0020225928296287833,0.001998074070203502,0.0028163897560789042,-559.6946326457636,3653.4378865311533,-69.05603167590311,664.4876529866743,3536.8723001917033,-416.34436548500554,Vision,NoMovement,4
0.155,0.006632199154935046,0.008897402650528524,65.0994575045208,61.57003591585429,-0.00880493794117876,20.229932387667994,0.004733889660716331,0.0020290729406327365,0.002012281595552766,0.002817174580964312,-559.6942854204216,3653.454092554322,-69.06053700173837,664.4953343146406,3536.887989700154,-416.34836612779276,Vision,NoMovement,4
0.156,0.006633199787309451,0.00889727264234577,65.0994575045208,61.57003591585429,-0.00731599947365549,20.238478548876998,0.00479005098399555,0.0020358812996456458,0.002031682379406185,0.0028151465788349176,-559.6954754352507,3653.4717035861745,-69.0646467738146,664.5030156426069,3536.903679208605,-416.35236677058,Vision,NoMovement,4
0.157,0.006634166635966009,0.00889708894713275,65.0994575045208,61.57003591585429,-0.005825963617353385,20.24703024803758,0.004843646920943574,0.0020430289789644656,0.002055996197773569,0.0028105082287216867,-559.69666545008,3653.4893146180275,-69.06875654589085,664.5106969705732,3536.9193687170555,-416.3563674133672,Vision,NoMovement,4
0.158,0.00663509621466339,0.008896850655836877,65.0994575045208,61.57003591585429,-0.0043348484068337235,20.255587345646283,0.004894353668756949,0.00205051595033417,0.002084889470275104,0.002803495606772434,-559.6978554649091,3653.50692564988,-69.07286631796708,664.5177495957375,3536.9351844565954,-416.36001501360954,Vision,NoMovement,4
0.159,0.006635984488500826,0.008896557267697724,65.0994575045208,61.57003591585429,-0.0028426719024923757,20.264149701812173,0.004941897438397653,0.002058331068114528,0.0021179791109041043,0.002794371535755002,-559.6990454797384,3653.524536681733,-69.07697609004333,664.5232182283371,3536.9513182305163,-416.3627731367183,Vision,NoMovement,4
0.16,0.006636826962740376,0.008896208859905672,65.0994575045208,61.57003591585429,-0.001349452195022278,20.272717176215778,0.004986050002550474,0.0020664523649816637,0.0021548368270601346,0.002783418773566467,-559.7002354945676,3653.5421477135856,-69.08108586211956,664.5286868609367,3536.9674520044373,-416.3655312598271,Vision,NoMovement,4
0.161,0.006637619082280346,0.008895806092870547,65.0994575045208,61.57003591585429,0.0001447926027232619,20.28128962814167,0.005026622746798161,0.0020748476036700123,0.0021949938330100968,0.0027709334840933207,-559.7014255093968,3653.5597587454386,-69.0851956341958,664.5341554935362,3536.9835857783582,-416.3682893829359,Vision,NoMovement,4
0.162,0.006638356695626959,0.008895350153475977,65.0994575045208,61.57003591585429,0.0016400443510766606,20.289866916473763,0.005063459763941487,0.0020834750634430113,0.0022379459680313065,0.0027572191349680792,-559.702615524226,3653.577369777291,-69.08930540627205,664.5396241261358,3536.999719552279,-416.3710475060447,Vision,NoMovement,4
0.163,0.006639035664779192,0.008894842721197943,65.0994575045208,61.57003591585429,0.0031362848864047023,20.29844889969787,0.005096430598160414,0.0020922845513630683,0.0022831591984381473,0.002742580893181772,-559.7038055390552,3653.594980809144,-69.09341517834828,664.5450927587352,3537.0158533262,-416.3738056291535,Vision,NoMovement,4
0.164,0.006639652165191923,0.008894286113784374,65.0994575045208,61.57003591585429,0.004633496015586996,20.307035435898204,0.005125423254387729,0.002101218608337243,0.0023300754563237353,0.0027273205531426746,-559.7049955538844,3653.6125918409966,-69.09752495042453,664.5505613913348,3537.031987100121,-416.37656375226226,Vision,NoMovement,4
0.165,0.006640202747196477,0.008893682985447968,65.0994575045208,61.57003591585429,0.0061316595302151125,20.315626382788622,0.0051503380334163365,0.0021102138492754916,0.002378118758936831,0.002711732025803396,-559.7061855687135,3653.6302028728496,-69.10163472250076,664.5560300239343,3537.048120874042,-416.37932187537103,Vision,NoMovement,4
0.166,0.0066406836107825605,0.00889303633381384,65.0994575045208,61.57003591585429,0.007630757189270317,20.32422159767154,0.005171082637415676,0.002119202356505971,0.0024267015718730306,0.0026960974214523784,-559.7073755835428,3653.647813904702,-69.10574449457701,664.5614986565339,3537.064254647963,-416.3820799984798,Vision,NoMovement,4
0.167,0.006641090773882464,0.00889234956893624,65.0994575045208,61.57003591585429,0.00913077073377905,20.332820937470295,0.005187568844841135,0.00212811304586161,0.002475231411821743,0.002680683745170338,-559.7085655983719,3653.665424936555,-69.10985426665324,664.5669672891333,3537.080388421884,-416.38483812158864,Vision,NoMovement,4
0.168,0.0066414209921949255,0.008891626510581424,65.0994575045208,61.57003591585429,0.010631681880839742,20.34142425871824,0.005199710897356221,0.002136872941152752,0.002523117693706064,0.0026657401851178427,-559.7097556132012,3653.6830359684077,-69.11396403872949,664.5724359217329,3537.0965221958045,-416.3875962446974,Vision,NoMovement,4
0.169,0.006641671996965813,0.00889087027931793,65.0994575045208,61.57003591585429,0.012133472326520975,20.35003141758996,0.0052074255963510795,0.002145408323586817,0.00256977880711767,0.0026514959283237237,-559.7109456280303,3653.7006470002607,-69.11807381080573,664.5779045543325,3537.1126559697254,-416.3903543678062,Vision,NoMovement,4
0.17,0.0066418418647328165,0.008890082926546479,65.0994575045208,61.57003591585429,0.01363612374140116,20.358642269860223,0.005210633971151041,0.0021536457595354034,0.0026146493723041165,0.0026381584175234904,-559.7121356428596,3653.718258032113,-69.12218358288196,664.583373186932,3537.1287897436464,-416.393112490915,Vision,NoMovement,4
0.171,0.00664192871249846,0.008889265699990585,65.0994575045208,61.57003591585429,0.015139617778724839,20.36725667093678,0.005209264261739066,0.00216151304187469,0.0026571876032489145,0.002625911977255102,-559.7147686908836,3653.735100661389,-69.12481652483541,664.5888418195316,3537.1449235175673,-416.39587061402375,Vision,NoMovement,4
0.17200000000000001,0.006641931477981511,0.008888420087054122,65.0994575045208,61.57003591585429,0.016643936069682272,20.37587447585574,0.005203255863959962,0.0021689400925453467,0.002696882691249691,0.0026149167794668813,-559.7207956551224,3653.7501360599117,-69.12397606249112,664.594310452131,3537.1610572914883,-416.3986287371325,Vision,NoMovement,4
0.17300000000000001,0.00664184959993619,0.008887548137788475,65.0994575045208,61.57003591585429,0.018149060225259223,20.384495539284256,0.0051925638327910365,0.0021758598639724075,0.002733262111766811,0.002605308161751347,-559.7268226193612,3653.765171458435,-69.12313560014685,664.5997790847306,3537.1771910654093,-416.40138686024136,Vision,NoMovement,4
0.17400000000000002,0.006641683018219583,0.008886651638731188,65.0994575045208,61.57003591585429,0.01965497183776546,20.39311971551721,0.005177163550529972,0.0021822092532313418,0.002765898739259189,0.0025971963335531725,-559.7328495836,3653.7802068569576,-69.12229513780257,664.6052477173301,3537.19332483933,-416.40414498335014,Vision,NoMovement,4
0.17500000000000002,0.006641432576629896,0.00888573217667197,65.0994575045208,61.57003591585429,0.021161652475331173,20.40174685850843,0.005157055243542967,0.0021879300203600355,0.002794417627688865,0.0025906664978294714,-559.7388765478389,3653.795242255481,-69.1214546754583,664.6116759225221,3537.219993195509,-416.4060028089201,Vision,NoMovement,4
0.176,0.006641099595706657,0.00888479185899896,65.0994575045208,61.57003591585429,0.02266908369610805,20.410376821829804,0.00513226812568835,0.002192969688335642,0.0028185022774480373,0.002585779380066305,-559.7449035120777,3653.8102776540036,-69.12061421311401,664.6185505958302,3537.2515630621447,-416.40744174575826,Vision,NoMovement,4
0.177,0.006640686125792297,0.008883833378592793,65.0994575045208,61.57003591585429,0.024177247030922413,20.419009458704043,0.005102863992603085,0.002197282393042547,0.002837900178668327,0.0025825721081732256,-559.7509304763165,3653.825313052527,-69.11977375076974,664.6254252691384,3537.2831329287806,-416.4088806825964,Vision,NoMovement,4
0.178,0.006640195263945467,0.008882860038617489,65.0994575045208,61.57003591585429,0.025686123997963977,20.427644621999857,0.005068940065157321,0.002200829641977337,0.00285242741986958,0.002581059354791448,-559.7569574405553,3653.8403484510495,-69.11893328842547,664.6322999424466,3537.3147027954165,-416.41031961943463,Vision,NoMovement,4
0.179,0.006639630782622171,0.008881875487311529,65.0994575045208,61.57003591585429,0.027195696096797502,20.436282164228746,0.005030630843321735,0.002203580929529325,0.002861972193808396,0.0025812346580385585,-559.7629844047942,3653.8553838495727,-69.11809282608118,664.6391746157548,3537.3462726620523,-416.4117585562728,Vision,NoMovement,4
0.18,0.006638996274763527,0.008880882818014841,65.0994575045208,61.57003591585429,0.028705944811254956,20.44492193757627,0.004988108750660561,0.0022055141507450523,0.0028664970925649847,0.0025830718749001442,-559.769011369033,3653.8704192480955,-69.11725236373691,664.6460492890631,3537.3778425286887,-416.41319749311094,Vision,NoMovement,4
0.181,0.0066382954755703875,0.00887988434931242,65.0994575045208,61.57003591585429,0.03021685160498151,20.45356379386112,0.004941583455749006,0.002206615756205284,0.0028660401285799213,0.0025865267717547053,-559.7750383332718,3653.8854546466187,-69.11641190139262,664.6529239623712,3537.4094123953246,-416.41463642994916,Vision,NoMovement,4
0.182,0.006637532635031556,0.008878882343358955,65.0994575045208,61.57003591585429,0.03172839792960079,20.462207584568052,0.004891299910658976,0.002206880603839949,0.002860714440132508,0.0025915387946504605,-559.7810652975107,3653.9004900451414,-69.11557143904835,664.6597986356794,3537.4409822619605,-416.4160753667873,Vision,NoMovement,4
0.183,0.006636711845500093,0.008877879828020973,65.0994575045208,61.57003591585429,0.03324056521998124,20.47085316084338,0.004837535291845168,0.002206311496321321,0.0028507066550391476,0.0025980330717076407,-559.7870922617495,3653.9155254436646,-69.11473097670407,664.6666733089876,3537.4725521285964,-416.41751430362547,Vision,NoMovement,4
0.184,0.006635837025072492,0.008876880650875567,65.0994575045208,61.57003591585429,0.03475333489609357,20.47950037349775,0.004780595116231617,0.002204918438119877,0.0028362739103076243,0.0026059226780307913,-559.7931192259883,3653.9305608421873,-69.1138905143598,664.6735479822958,3537.5041219952323,-416.4189532404637,Vision,NoMovement,4
0.185,0.006634912608942002,0.008875888742616845,65.0994575045208,61.57003591585429,0.03626668836452183,20.48814907300303,0.004720808831011764,0.0022027176794171205,0.0028177395528080442,0.0026151111492350235,-559.7991461902271,3653.9455962407105,-69.11305005201552,664.680422655604,3537.535691861868,-416.42039217730184,Vision,NoMovement,4
0.186,0.006633943228380971,0.008874907274198957,65.0994575045208,61.57003591585429,0.03778060701298625,20.49679910952353,0.004658525160516309,0.0021997306203319447,0.0027954875639020636,0.0026254951839459776,-559.805173154466,3653.9606316392333,-69.11220958967124,664.6872973289122,3537.5672617285045,-416.42183111414,Vision,NoMovement,4
0.187,0.006632933119478907,0.008873938650279191,65.0994575045208,61.57003591585429,0.03929507222452133,20.505450332875267,0.004594107471352074,0.0021959826409894863,0.0027699557614983858,0.0026369674481287694,-559.8112001187048,3653.9756670377565,-69.11136912732697,664.6941720022204,3537.5988315951404,-416.4232700509782,Vision,NoMovement,4
0.188,0.00663188598622908,0.008872985215161269,65.0994575045208,61.57003591585429,0.040810065360129426,20.514102592558878,0.00452792941103489,0.0021915019191912598,0.0027416278530573365,0.0026494193895548737,-559.8163524573308,3653.9800881846654,-69.10741073066148,664.7010466755286,3537.6304014617763,-416.42470898781636,Vision,NoMovement,4
0.189,0.006630804993958144,0.008872049904097852,65.0994575045208,61.57003591585429,0.042325567773480004,20.52275573775486,0.004460371063742363,0.002186318297867156,0.002711024458443345,0.002662743979720916,-559.8213445611731,3653.9825647597645,-69.10288111640975,664.7079213488367,3537.661971328412,-416.4261479246545,Vision,NoMovement,4
0.19,0.0066296928224603025,0.008871136476895114,65.0994575045208,61.57003591585429,0.043841560804911736,20.531409617320556,0.004391815851800818,0.0021804622647419777,0.0026786932860600817,0.0026768383173404894,-559.8263366650154,3653.985041334863,-69.09835150215802,664.7147960221449,3537.693541195048,-416.4275868614927,Vision,NoMovement,4
0.191,0.0066285518897353035,0.00887024886157064,65.0994575045208,61.57003591585429,0.045358025784313354,20.540064079821338,0.004322648369656074,0.002173964108228783,0.0026451987161875226,0.0026916060474652197,-559.8313287688577,3653.987517909962,-69.09382188790629,664.7210319383965,3537.724772368859,-416.42871489521957,Vision,NoMovement,4
0.192,0.006627385259874452,0.008869391325395947,65.0994575045208,61.57003591585429,0.04687494402668185,20.548718973489994,0.004253253277704443,0.002166853316669801,0.002611111103252084,0.0027069595655693644,-559.8363208727001,3653.9899944850613,-69.08929227365455,664.7200006386278,3537.752150193571,-416.4263057467767,Vision,NoMovement,4
0.193,0.0066261967795174384,0.00886856849472405,65.0994575045208,61.57003591585429,0.048392296840280895,20.557374146259644,0.004184015283887597,0.00215915828308983,0.002576996130231885,0.0027228219780071473,-559.8413129765423,3653.9924710601604,-69.08476265940283,664.7189693388589,3537.779528018284,-416.42389659833384,Vision,NoMovement,4
0.194,0.006624990685221269,0.008867785516255415,65.0994575045208,61.57003591585429,0.04991006552190129,20.566029445759398,0.004115320103449903,0.002150906363146825,0.002543404528074779,0.002739128772449066,-559.8463050803847,3653.994947635259,-69.08023304515109,664.7179380390901,3537.806905842997,-416.421487449891,Vision,NoMovement,4
0.195,0.006623772252347618,0.008867047714060746,65.0994575045208,61.57003591585429,0.051428231358720204,20.574684719317183,0.004047556132952647,0.002142124315488299,0.0025108624226116995,0.00275582911884411,-559.851297184227,3653.997424210358,-69.07570343089935,664.7169067393212,3537.8342836677098,-416.4190783014481,Vision,NoMovement,4
0.196,0.006622546927958707,0.008866359853626361,65.0994575045208,61.57003591585429,0.05294677562985373,20.583339813956805,0.00398111646199222,0.0021328391289401148,0.002479862517182676,0.002772886682811791,-559.8562892880692,3653.999900785457,-69.07117381664763,664.7158754395524,3537.861661492422,-416.4166691530053,Vision,NoMovement,4
0.197,0.006621319866839182,0.008865726243548776,65.0994575045208,61.57003591585429,0.054465679601923236,20.591994576429165,0.003916400792822607,0.002123079198640411,0.002450856271952832,0.002790279804007319,-559.8612813919116,3654.0023773605562,-69.06664420239589,664.7148441397835,3537.889039317135,-416.4142600045624,Vision,NoMovement,4
0.198,0.006620095852305784,0.00886515153424269,65.0994575045208,61.57003591585429,0.05598492453720582,20.60064885317171,0.00385381681729278,0.002112875756942523,0.0024242472004586246,0.002808000889494573,-559.8662734957538,3654.004853935655,-69.06211458814415,664.7138128400147,3537.916417141848,-416.41185085611954,Vision,NoMovement,4
0.199,0.006618879299333789,0.008864640303848474,65.0994575045208,61.57003591585429,0.05750449168889426,20.609302490341022,0.003793780595559497,0.0021022644182732385,0.002400385361113342,0.0028260549175659227,-559.8712655995962,3654.007330510754,-69.05758497389243,664.7127815402458,3537.9437949665607,-416.40944170767665,Vision,NoMovement,4
0.2,0.006617674270460205,0.008864196468634525,65.0994575045208,61.57003591585429,0.05902436230289197,20.617955333802477,0.0037367155321224254,0.0020912866800813766,0.0023795630758164502,0.00284445704120354,-559.8762577034385,3654.009807085853,-69.0530553596407,664.711750240477,3537.9711727912736,-416.4070325592338,Vision,NoMovement,4
0.201,0.006616484494178476,0.008863823156935962,65.0994575045208,61.57003591585429,0.060544517618352924,20.626607229161365,0.00368304972626908,0.0020799912340809944,0.0023620118614625534,0.002863229394268087,-559.8812498072808,3654.012283660952,-69.04852574538896,664.7107189407081,3537.998550615986,-416.4046234107909,Vision,NoMovement,4
0.202,0.0066153133836184385,0.008863522781059053,65.0994575045208,61.57003591585429,0.062064938869223235,20.635258021722493,0.0036332117569432827,0.002068434962918811,0.00234790052206896,0.002882397295330057,-559.8862419111231,3654.0147602360507,-69.04399613113723,664.7096876409394,3538.025928440699,-416.4022142623481,Vision,NoMovement,4
0.203,0.006614164055062084,0.008863297499774183,65.0994575045208,61.57003591585429,0.06358560727981724,20.64390755652312,0.0035876252241783,0.002056683514641977,0.002337334317816649,0.002901985098587218,-559.8912340149653,3654.01723681115,-69.0394665168855,664.7086563411705,3538.0533062654117,-416.39980511390524,Vision,NoMovement,4
0.20400000000000001,0.00661303934618431,0.008863149962700814,65.0994575045208,61.57003591585429,0.06510650407295594,20.652555678328717,0.003546702504823732,0.0020448113696149676,0.0023303551052350786,0.002922011961808517,-559.8962261188077,3654.019713386249,-69.03493690263376,664.7076250414017,3538.0806840901246,-416.39739596546235,Vision,NoMovement,4
0.20500000000000002,0.006611941833957927,0.008863082624152837,65.0994575045208,61.57003591585429,0.0666276104652263,20.661202231635816,0.003510838188463594,0.002032901358115381,0.0023269423335520933,0.0029424877942354883,-559.90121822265,3654.0221899613475,-69.03040728838204,664.7065937416328,3538.1080619148374,-416.3949868170195,Vision,NoMovement,4
0.20600000000000002,0.006610873852174935,0.008863097259858295,65.0994575045208,61.57003591585429,0.06814890766883863,20.669847060669316,0.0034804025869514853,0.0020210436481861967,0.0023270147949932124,0.0029634096105762378,-559.9062103264923,3654.0246665364466,-69.0258776741303,664.705562441864,3538.13543973955,-416.3925776685766,Vision,NoMovement,4
0.20700000000000002,0.006609837508546148,0.008863194855728836,65.0994575045208,61.57003591585429,0.06967037689315837,20.678490009413505,0.0034557356103993857,0.0020093342840098987,0.0023304330620123764,0.0029847584580940463,-559.9112024303346,3654.0271431115457,-69.02134805987858,664.7045311420951,3538.1628175642627,-416.3901685201338,Vision,NoMovement,4
0.20800000000000002,0.006608834701339469,0.008863375588171369,65.0994575045208,61.57003591585429,0.07119199934029206,20.68713092157185,0.003437141204910452,0.001997873395318712,0.0023370025860660676,0.003006497020622546,-559.9161945341768,3654.0296196866448,-69.01681844562684,664.7034998423263,3538.1901953889756,-416.3877593716909,Vision,NoMovement,4
0.209,0.006607867135527602,0.008863638818736638,65.0994575045208,61.57003591585429,0.07271375621321197,20.6957696405999,0.003424882469808395,0.001986763210057015,0.0023464774559536143,0.0030285679563961275,-559.9211866380192,3654.0320962617434,-69.0122888313751,664.7024685425574,3538.2175732136884,-416.38535022324805,Vision,NoMovement,4
0.21,0.006606936338411732,0.008863983090760303,65.0994575045208,61.57003591585429,0.07423562871101697,20.7044060097007,0.0034191774997688177,0.001976105990963082,0.0023585648129502935,0.003050892996103855,-559.9261787418615,3654.0345728368425,-69.00775921712338,664.6945992445962,3538.2387808356743,-416.38076705917956,Vision,NoMovement,4
0.211,0.006606043674697632,0.008864406125723406,65.0994575045208,61.57003591585429,0.07575759803072059,20.713039871822172,0.0034201959025261827,0.0019660019960775865,0.0023729299126501154,0.0030733728023467767,-559.9311708457038,3654.0370494119416,-69.00322960287164,664.6766386621313,3538.2508826829285,-416.37297555700155,Vision,NoMovement,4
0.212,0.006605190360998521,0.008864904820928467,65.0994575045208,61.57003591585429,0.07727964536778802,20.721671069688053,0.0034280558356009636,0.001956547548584344,0.0023892018192221286,0.0030958875594081347,-559.9361629495461,3654.0395259870406,-68.9986999886199,664.6586780796663,3538.2629845301826,-416.36518405482354,Vision,NoMovement,4
0.213,0.00660437747974475,0.008865475259071373,65.0994575045208,61.57003591585429,0.07880175191765433,20.730299445757886,0.0034428213303155097,0.0019478332921150302,0.00240697970210373,0.0031182982271099457,-559.9411550533885,3654.0420025621393,-68.99417037436818,664.6407174972013,3538.2750863774368,-416.3573925526455,Vision,NoMovement,4
0.214,0.006603605992479339,0.008866112801438555,65.0994575045208,61.57003591585429,0.08032389887132359,20.738924842259834,0.0034644996733208286,0.0019399426966819407,0.0024258396657595776,0.0031404483688154184,-559.9461471572307,3654.0444791372383,-68.98964076011644,664.6227569147363,3538.2871882246905,-416.34960105046747,Vision,NoMovement,4
0.215,0.006602876752524949,0.008866812433767315,65.0994575045208,61.57003591585429,0.08184606742347393,20.747547101186598,0.003493038694714669,0.0019329508668733647,0.002445341986341356,0.0031621664593264394,-559.951139261073,3654.0469557123374,-68.9851111458647,664.6047963322713,3538.2992900719446,-416.34180954828946,Vision,NoMovement,4
0.216,0.006602190517005176,0.008867569496564375,65.0994575045208,61.57003591585429,0.08336823876772072,20.756166064298334,0.0035283239197411724,0.0019269236911789596,0.0024650385702312404,0.0031832685972603024,-559.9561313649153,3654.0494322874365,-68.98058153161298,664.5868357498064,3538.3113919191987,-416.33401804611145,Vision,NoMovement,4
0.217,0.006601547958207997,0.008868380136995294,65.0994575045208,61.57003591585429,0.08489039409846849,20.76478157312009,0.0035701756323960067,0.0019219173524045305,0.0024844803953903835,0.003203561574682434,-559.9611234687576,3654.051908862535,-68.97605191736125,664.5688751673415,3538.323493766453,-416.3262265439334,Vision,NoMovement,4
0.218,0.006600949674278943,0.008869241375161282,65.0994575045208,61.57003591585429,0.08641251461241775,20.773393468972653,0.003618345965178325,0.0019179781872330464,0.002503224668832937,0.0032228462714634204,-559.9661155726,3654.054385437634,-68.97152230310951,664.5509145848765,3538.335595613707,-416.3184350417554,Vision,NoMovement,4
0.219,0.006600396199234586,0.008870151083239262,65.0994575045208,61.57003591585429,0.08793458150417661,20.782001592932794,0.0036725161960596384,0.001915142845566305,0.002520841466233498,0.003240921324732305,-559.9711076764422,3654.0568620127333,-68.96699268885779,664.5329540024115,3538.3476974609607,-416.31064353957737,Vision,NoMovement,4
0.22,0.006599888012284497,0.008871108026009444,65.0994575045208,61.57003591585429,0.08945657597434524,20.790605785865598,0.003732294519003434,0.0019134386775282515,0.0025369197160749674,0.0032575869822913926,-559.9760997802846,3654.0593385878324,-68.96246307460605,664.5149934199466,3538.359799308215,-416.30285203739936,Vision,NoMovement,4
0.221,0.006599425546457188,0.008872111448790737,65.0994575045208,61.57003591585429,0.0909784792247837,20.799205888414576,0.003797214637692544,0.001912884279165136,0.0025510724961588646,0.0032726490027640965,-559.9810918841268,3654.061815162931,-68.95793346035431,664.4970328374816,3538.371901155469,-416.2950605352213,Vision,NoMovement,4
0.222,0.006599009196518215,0.008873160377951382,65.0994575045208,61.57003591585429,0.09250027246038915,20.807801741032375,0.0038667355814110175,0.0019134901524477308,0.0025629416684993644,0.003285922435289363,-559.9860839879691,3654.06429173803,-68.95340384610259,664.4790722550166,3538.384003002723,-416.2872690330433,Vision,NoMovement,4
0.223,0.0065986393261771095,0.008874253978194227,65.0994575045208,61.57003591585429,0.0940219368896273,20.81639318394118,0.00394024312543867,0.0019152594700674527,0.0025722018810399277,0.00329723510873802,-559.9987144566954,3654.0610077679958,-68.93675739403025,664.4611116725516,3538.396104849977,-416.2794775308653,Vision,NoMovement,4
0.224,0.006598316274575708,0.008875391944221395,65.0994575045208,61.57003591585429,0.09554345372602444,20.82498005716544,0.004017053121635748,0.0019181889615973232,0.0025785639510745952,0.0033064306944459044,-560.0123651560136,3654.0569543814095,-68.918492536866,664.4431510900868,3538.408206697231,-416.27168602868727,Vision,NoMovement,4
0.225,0.006598040362051055,0.008876574312595385,65.0994575045208,61.57003591585429,0.09706480418379472,20.83356220052778,0.004096416928872695,0.0019222699322848054,0.0025817776516638613,0.0033133712656159896,-560.0260158553318,3654.052900994823,-68.90022767970174,664.4251905076218,3538.420308544485,-416.2638945265092,Vision,NoMovement,4
0.226,0.006597811895170196,0.00887780178531795,65.0994575045208,61.57003591585429,0.09858596948589761,20.842139453652095,0.004177529006755368,0.0019274893841334628,0.0025816339587966678,0.0033179393304060174,-560.03966655465,3654.0488476082373,-68.88196282253749,664.4072299251568,3538.4324103917393,-416.2561030243312,Vision,NoMovement,4
0.227,0.006597631171028622,0.0088790757175183,65.0994575045208,61.57003591585429,0.10010693085938337,20.850711655961103,0.004259536617433,0.0019338311524431972,0.0025779668619423904,0.0033200393380295756,-560.0533172539683,3654.044794221651,-68.86369796537323,664.3808962787347,3538.4380139263485,-416.2475959645993,Vision,NoMovement,4
0.228,0.006597498480810935,0.00888039739323815,65.0994575045208,61.57003591585429,0.101627669538188,20.859278646706926,0.0043415514907937,0.0019412769264955747,0.002570654857260327,0.003319598659706156,-560.0669679532865,3654.0407408350648,-68.84543310820898,664.3524986597696,3538.442015617363,-416.23891251888125,Vision,NoMovement,4
0.229,0.006597414112606631,0.008881768572611881,65.0994575045208,61.57003591585429,0.10314816675877224,20.867840264931793,0.004422663232480067,0.0019498069992764276,0.002559622206286302,0.003316568061092135,-560.0806186526047,3654.0366874484785,-68.82716825104472,664.3241010408046,3538.446017308377,-416.2302290731631,Vision,NoMovement,4
0.23,0.006597378353476931,0.00888319131149675,65.0994575045208,61.57003591585429,0.10466840376815854,20.876396349500556,0.004501954172612865,0.001959400588422674,0.002544839967963482,0.0033109217185597535,-560.0942693519229,3654.032634061892,-68.80890339388047,664.2957034218396,3538.4500189993914,-416.22154562744504,Vision,NoMovement,4
0.231,0.006597391490769228,0.008884668035388137,65.0994575045208,61.57003591585429,0.10618836181921018,20.8849467390964,0.0045785152374986015,0.0019700355999608212,0.0025263267433908894,0.003302656864765983,-560.1079200512412,3654.028580675306,-68.79063853671622,664.2673058028746,3538.4540206904057,-416.21286218172696,Vision,NoMovement,4
0.232,0.00659745381267357,0.008886201728071563,65.0994575045208,61.57003591585429,0.10770802217239484,20.893491272218487,0.0046514623067727716,0.0019816877815733926,0.002504149041697759,0.003291793159575377,-560.1215707505594,3654.0245272887196,-68.77237367955196,664.2389081839095,3538.45802238142,-416.2041787360088,Vision,NoMovement,4
0.233,0.00659756560801715,0.008887795964801753,65.0994575045208,61.57003591585429,0.10922736609630994,20.902029787212417,0.0047199524492194025,0.001994329314283795,0.002478421179452278,0.0032783718764522914,-560.1352214498776,3654.0204739021333,-68.7541088223877,664.2105105649446,3538.462024072434,-416.19549529029075,Vision,NoMovement,4
0.234,0.00659772716529256,0.00888945472997872,65.0994575045208,61.57003591585429,0.11074637486914718,20.910562122231106,0.004783199474238966,0.0020079269790753826,0.0024493046472501153,0.003262454987615249,-560.1488721491958,3654.0164205155475,-68.73584396522345,664.1821129459795,3538.466025763448,-416.1868118445726,Vision,NoMovement,4
0.23500000000000001,0.006597938770914047,0.00889118189494047,65.0994575045208,61.57003591585429,0.11226502977435064,20.919088115267314,0.004840488378497051,0.0020224400833580873,0.0024170069025558154,0.003244124223325926,-560.1625228485141,3654.012367128961,-68.7175791080592,664.1537153270145,3538.4700274544625,-416.17812839885454,Vision,NoMovement,4
0.23600000000000002,0.006598200706699312,0.008892981463219032,65.0994575045208,61.57003591585429,0.11378331210861946,20.927607604149713,0.004891188423160743,0.00203781834775347,0.0023817795740993138,0.0032234801622369838,-560.1761735478323,3654.008313742375,-68.69931425089494,664.1253177080495,3538.474029145477,-416.1694449531364,Vision,NoMovement,4
0.23700000000000002,0.006598513246570922,0.008894857564318737,65.0994575045208,61.57003591585429,0.11530120317719598,20.936120426545923,0.00493476464398631,0.002053999949772708,0.0023439160802959007,0.003200641379705952,-560.1898242471505,3654.0042603557886,-68.68104939373069,664.0969200890845,3538.478030836491,-416.16076150741833,Vision,NoMovement,4
0.23800000000000002,0.006598876652472873,0.008896814208017299,65.0994575045208,61.57003591585429,0.11681868429569547,20.944626419960336,0.00497078755721173,0.0020709099076646736,0.0023037486703488927,0.0031757436548253025,-560.2034749464686,3654.0002069692023,-68.66278453656643,664.0685224701195,3538.4820325275055,-416.15207806170025,Vision,NoMovement,4
0.23900000000000002,0.0065992911694992724,0.008898855133037783,65.0994575045208,61.57003591585429,0.11833573679155596,20.953125421764327,0.004998940744024013,0.002088458964822763,0.0022616448971406124,0.003148939221620572,-560.2159776142182,3653.994370310473,-68.64363340923154,664.0401248511545,3538.4860342185193,-416.1433946159821,Vision,NoMovement,4
0.24,0.006599757020229643,0.00890098381207293,65.0994575045208,61.57003591585429,0.11985234199971267,20.96161726915749,0.005019025978590955,0.0021065430977823575,0.0022180035378416628,0.0031203960384199136,-560.2269522421605,3653.9861601013154,-68.62330264874201,664.0117272321895,3538.4900359095336,-416.13471117026404,Vision,NoMovement,4
0.241,0.006600274398268462,0.008903203381510122,65.0994575045208,61.57003591585429,0.12136848127057055,20.970101799199988,0.005030965650583268,0.002125043713323743,0.002173249996696563,0.0030902970346773106,-560.2379268701026,3653.9779498921575,-68.60297188825248,663.9833296132244,3538.494037600548,-416.1260277245459,Vision,NoMovement,4
0.242,0.006600843460983439,0.008905516783599394,65.0994575045208,61.57003591585429,0.12288413596530078,20.97857884880825,0.00503480239191004,0.002143828526149458,0.002127831261943241,0.003058839286229884,-560.2489014980447,3653.9697396829997,-68.58264112776295,663.9549319942595,3538.4980392915622,-416.11734427882783,Vision,NoMovement,4
0.243,0.006601464321442804,0.008907926728022104,65.0994575045208,61.57003591585429,0.12439928745758683,20.98704825475288,0.0050306959984005835,0.002162753037124542,0.0020822105326202666,0.003026233070382143,-560.2598761259868,3653.961529473842,-68.56231036727343,663.9274110040114,3538.5046676249476,-416.10946951112743,Vision,NoMovement,4
0.244,0.006602137039544833,0.008910436193978752,65.0994575045208,61.57003591585429,0.12591391713414007,20.995509853688695,0.005018917899851634,0.0021816624835167744,0.002036861658758565,0.002992700755322952,-560.2708507539289,3653.953319264684,-68.54197960678388,663.9033839571385,3538.5217648598573,-416.1048178584673,Vision,NoMovement,4
0.245,0.006602861612342399,0.008913048346154185,65.0994575045208,61.57003591585429,0.12742800639613222,21.003963482116227,0.0049998435487478895,0.0022003941226783606,0.0019922635279962216,0.0029584754751342955,-560.2818253818712,3653.9451090555262,-68.52164884629435,663.8793569102656,3538.538862094767,-416.10016620580717,Vision,NoMovement,4
0.246,0.006603637963558049,0.008915765836669965,65.0994575045208,61.57003591585429,0.12894153665489097,21.01240897641392,0.004973943143738617,0.0022187797345208076,0.0019488944862102026,0.0029237995297483736,-560.2928000098133,3653.9368988463684,-68.50131808580483,663.8553298633926,3538.555959329677,-416.0955145531471,Vision,NoMovement,4
0.247,0.006604465932291602,0.008918591031504223,65.0994575045208,61.57003591585429,0.1304544893397539,21.020846172834357,0.0049417710775178925,0.0022366482650881037,0.0019072268307645272,0.002888922433795048,-560.3037746377554,3653.9286886372106,-68.4809873253153,663.8313028165197,3538.5730565645868,-416.09086290048697,Vision,NoMovement,4
0.248,0.006605345260921267,0.008921525899972407,65.0994575045208,61.57003591585429,0.1319668458924676,21.02927490750729,0.004903954431520559,0.002253828558648215,0.0018677213802354398,0.0028540985169837906,-560.3147492656975,3653.920478428053,-68.46065656482577,663.8072757696468,3538.5901537994964,-416.08621124782684,Vision,NoMovement,4
0.249,0.006606275582199796,0.008924571950869384,65.0994575045208,61.57003591585429,0.1334785877747125,21.037695016437684,0.004861180768567709,0.00227015213274054,0.001830822117239017,0.0028195839717901168,-560.3257238936396,3653.912268218895,-68.44032580433624,663.7832487227739,3538.607251034406,-416.0815595951667,Vision,NoMovement,4
0.25,0.006607256405551238,0.0089277303410005,65.0994575045208,61.57003591585429,0.13498969645731973,21.046106335535466,0.0048141854255416205,0.0022854559459761416,0.0017969509201909751,0.0027856332858103568,-560.3366985215819,3653.904058009737,-68.41999504384671,663.7592216759009,3538.6243482693158,-416.0769079425066,Vision,NoMovement,4
0.251,0.006608287102572918,0.008931001458169795,65.0994575045208,61.57003591585429,0.1365001534285721,21.05450870057746,0.004763738471269467,0.002299585105733249,0.0017665024392921856,0.0027524950947662033,-560.347673149524,3653.895847800579,-68.39966428335718,663.735194629028,3538.641445504226,-416.0722562898465,Vision,NoMovement,4
0.252,0.006609366891750629,0.008934385007972862,65.0994575045208,61.57003591585429,0.13800994019568932,21.062901947238878,0.004710631464391647,0.002312395460403951,0.001739839218162745,0.0027204075988744992,-560.3586477774661,3653.887637591421,-68.37933352286765,663.7111675821551,3538.6585427391356,-416.0676046371864,Vision,NoMovement,4
0.253,0.0066104948223971284,0.008937879822394575,65.0994575045208,61.57003591585429,0.1395190382814467,21.071285911084185,0.004655664127636854,0.0023237560181196756,0.0017172872054832557,0.002689593752279684,-560.3696224054082,3653.879427382263,-68.35900276237813,663.6871405352822,3538.675639974045,-416.06295298452625,Vision,NoMovement,4
0.254,0.006611669757825951,0.008941484077659424,65.0994575045208,61.57003591585429,0.1410274292258988,21.07966042759672,0.004599631074770341,0.0023335511344260147,0.0016991318196110353,0.0026602564569588906,-560.3805970333503,3653.8712171731054,-68.3386720018886,663.6631134884093,3538.692737208955,-416.0583013318661,Vision,NoMovement,4
0.255,0.006612890357775212,0.00894519526537837,65.0994575045208,61.57003591585429,0.1425350945868848,21.08802533214085,0.004543308775113428,0.00234168242521902,0.0016856147162091577,0.0026325739995671153,-560.3915716612925,3653.8630069639476,-68.31834124139905,663.6390864415363,3538.7098344438646,-416.05364967920605,Vision,NoMovement,4
0.256,0.0066141550600993205,0.008949010038558233,65.0994575045208,61.57003591585429,0.14404201594142446,21.09638045999382,0.0044874429620848765,0.002348070388934879,0.0016769313722502296,0.002606695968165539,-560.39676291033,3653.856507316411,-68.30278210284305,663.6150593946634,3538.7269316787742,-416.0489980265459,Vision,NoMovement,4
0.257,0.006615462061750461,0.008952924030938543,65.0994575045208,61.57003591585429,0.14554817488145805,21.104725646342025,0.004432736648783885,0.002352655751219907,0.0016732295608198429,0.0025827398689861124,-560.4018108907683,3653.8500500437167,-68.28734116916378,663.5910323477905,3538.7440289136844,-416.0443463738858,Vision,NoMovement,4
0.258,0.0066168092990715145,0.008956932106778774,65.0994575045208,61.57003591585429,0.14705355302161188,21.113060726284147,0.0043798388397024626,0.0023554005635966456,0.0016746087529464922,0.002560788625382888,-560.4068588712066,3653.843592771022,-68.27190023548452,663.5670053009176,3538.761126148594,-416.03969472122566,Vision,NoMovement,4
0.259,0.0066181944274327845,0.008961028718834292,65.0994575045208,61.57003591585429,0.14855813199365137,21.121385534829287,0.00432933401586635,0.002356289085416566,0.0016811204370217616,0.0025408890931069984,-560.4119068516449,3653.8371354983274,-68.25645930180525,663.5429782540446,3538.7782233835037,-416.0350430685655,Vision,NoMovement,4
0.26,0.006619614800240263,0.008965207480900893,65.0994575045208,61.57003591585429,0.1500618934539023,21.129699906926334,0.004281732562424679,0.002355328452222602,0.0016927692882503064,0.0025230516750439336,-560.4169548320831,3653.8306782256327,-68.24101836812599,663.526070609385,3538.8031646372424,-416.03300821184257,Vision,NoMovement,4
0.261,0.006621067447355436,0.008969460805071678,65.0994575045208,61.57003591585429,0.15156481907256453,21.13800367742651,0.004237462458928058,0.0023525490917282585,0.0017095150634473713,0.002507251065914934,-560.4220028125214,3653.824220952938,-68.22557743444672,663.5139309230781,3538.8333591347186,-416.032725858163,Vision,NoMovement,4
0.262,0.006622549052966047,0.008973780108900698,65.0994575045208,61.57003591585429,0.15306689054193992,21.14629668111494,0.004196862652899881,0.0023480048108874742,0.001731275061923309,0.0024934280982863454,-560.4270507929597,3653.817763680244,-68.21013650076746,663.5017912367713,3538.863553632195,-416.03244350448347,Vision,NoMovement,4
0.263,0.006624055932955211,0.008978156020130594,65.0994575045208,61.57003591585429,0.15456808957788298,21.154578752706627,0.004160178532254993,0.0023417724621550406,0.0017579269873974354,0.002481492597530075,-560.4320987733979,3653.811306407549,-68.19469556708819,663.4896515504645,3538.8937481296716,-416.032161150804,Vision,NoMovement,4
0.264,0.00662558401181958,0.008982577794010682,65.0994575045208,61.57003591585429,0.1560683979164391,21.1628497268447,0.004127559804558419,0.002333951114155582,0.0017893120591333086,0.002471327093234589,-560.4371467538363,3653.8048491348545,-68.17925463340893,663.4775118641576,3538.923942627148,-416.0318787971244,Vision,NoMovement,4
0.265,0.006627128799195432,0.008987033608081625,65.0994575045208,61.57003591585429,0.15756779731554243,21.171109438129527,0.004099060935340678,0.0023246606999829207,0.0018252382418966545,0.0024627911936545934,-560.4421947342745,3653.79839186216,-68.16381369972966,663.4653721778508,3538.9541371246246,-416.03159644344487,Vision,NoMovement,4
0.266,0.006628685366054378,0.008991510636631334,65.0994575045208,61.57003591585429,0.15906626955550943,21.179357721081598,0.004074644141120866,0.002314040179998062,0.001865483493756675,0.0024557264129075294,-560.4472427147127,3653.791934589465,-68.1483727660504,663.453232491544,3538.984331622101,-416.0313140897653,Vision,NoMovement,4
0.267,0.006630248320640887,0.008995995015868143,65.0994575045208,61.57003591585429,0.16056379644039634,21.187594410172952,0.0040541848033051305,0.0023022453084600623,0.0019097989694050706,0.0024499612416195105,-560.4522906951511,3653.785477316771,-68.13293183237113,663.4410928052371,3539.0145261195776,-416.03103173608577,Vision,NoMovement,4
0.268,0.006631811784226896,0.009000471756640812,65.0994575045208,61.57003591585429,0.16206035979378736,21.19581933982361,0.004037479077446375,0.0022894461106648797,0.0019579121489938195,0.0024453162662090547,-560.4573386755893,3653.7790200440763,-68.11749089869187,663.4289531189303,3539.044720617054,-416.0307493824062,Vision,NoMovement,4
0.269,0.006633369366768111,0.009004924603195758,65.0994575045208,61.57003591585429,0.1635559414664615,21.20403234440463,0.00402425340955932,0.002275824155855366,0.0020095298801855953,0.002441609165937905,-560.4623866560277,3653.7725627713817,-68.1020499650126,663.4168134326235,3539.07491511453,-416.03046702872666,Vision,NoMovement,4
0.27,0.006634914142553687,0.009009335815283395,65.0994575045208,61.57003591585429,0.16505052333090472,21.212233258236502,0.0040141756183728295,0.0022615696716456104,0.0020643413222524074,0.0024386594396339114,-560.4674346364659,3653.766105498687,-68.08660903133334,663.4046737463166,3539.105109612007,-416.03018467504717,Vision,NoMovement,4
0.271,0.0066364386259495384,0.00901368619440235,65.0994575045208,61.57003591585429,0.16654408728861836,21.220421915617926,0.004006867139698394,0.002246878511319992,0.0021220207765379113,0.00243629272244507,-560.4724826169041,3653.7596482259924,-68.07116809765407,663.3925340600098,3539.135304109483,-416.0299023213676,Vision,NoMovement,4
0.272,0.006637934747341715,0.00901795507577227,65.0994575045208,61.57003591585429,0.1680366152595422,21.22859815078916,0.004001915958433071,0.002231948975112181,0.0021822303875275433,0.002434344556555339,-560.4775282822335,3653.7572384675364,-68.05865558567201,663.380394373703,3539.1654986069598,-416.02961996768806,Vision,NoMovement,4
0.273,0.006639393829398685,0.009022119759990692,65.0994575045208,61.57003591585429,0.16952808919019877,21.23676179796316,0.003998889698802662,0.002216978507716889,0.0022446227161230657,0.002432663504733273,-560.4825718331457,3653.7585253529364,-68.04881763675232,663.3682546873962,3539.195693104436,-416.0293376140085,Vision,NoMovement,4
0.274,0.006640806563776127,0.009026155545065645,65.0994575045208,61.57003591585429,0.1710184910551051,21.244912691321574,0.003997348346628358,0.002202160340738554,0.0023088432136184386,0.002431113549824313,-560.487615384058,3653.759812238337,-68.03897968783262,663.3561150010893,3539.2258876019123,-416.02905526032896,Vision,NoMovement,4
0.275,0.006642162988401718,0.009030035328763349,65.0994575045208,61.57003591585429,0.17250780285343453,21.253050665013237,0.003996856155497589,0.002187680187303003,0.0023745326477776886,0.00242957578788624,-560.4926589349703,3653.761099123737,-68.02914173891293,663.3439753147825,3539.256082099389,-416.0287729066494,Vision,NoMovement,4
0.276,0.0066434524654829736,0.009033729739137023,65.0994575045208,61.57003591585429,0.1739960066106873,21.261175553182674,0.00399699240313621,0.002173713100413301,0.002441329525976521,0.00242794948247843,-560.4977024858825,3653.762386009137,-68.01930378999323,663.3318356284757,3539.2862765968653,-416.02849055296986,Vision,NoMovement,4
0.277,0.006644663660395248,0.00903720748160331,65.0994575045208,61.57003591585429,0.17548308437916899,21.26928718993385,0.003997360742094688,0.0021604205831331916,0.0025088725201649173,0.0024261526001574376,-560.5027460367949,3653.7636728945376,-68.00946584107352,663.3282132931006,3539.3110419091877,-416.02988586873636,Vision,NoMovement,4
0.278,0.006645784521614473,0.009040435973847646,65.0994575045208,61.57003591585429,0.17696901823930836,21.277385409361013,0.003997596901768711,0.002147948016861963,0.0025768028399789727,0.0024241219826699753,-560.5077895877071,3653.7649597799377,-67.99962789215382,663.3246145722457,3539.335792168989,-416.03128583587375,Vision,NoMovement,4
0.279,0.0066468022618720625,0.00904338126959908,65.0994575045208,61.57003591585429,0.17845379029549832,21.285470045545296,0.003997374498762983,0.0021364224708812617,0.002644766436452865,0.002421813310993616,-560.5128331386194,3653.7662466653383,-67.98978994323413,663.3210158513907,3539.3605424287903,-416.0326858030112,Vision,NoMovement,4
0.28,0.006647703340719449,0.009046007442547493,65.0994575045208,61.57003591585429,0.1799373826836523,21.293540932557743,0.003996408773082509,0.0021259509595318083,0.0027124158839233505,0.0024192009753148387,-560.5178766895316,3653.7675335507383,-67.97995199431443,663.3174171305358,3539.3852926885916,-416.03408577014864,Vision,NoMovement,4
0.281,0.006648473448701939,0.009048276278026708,65.0994575045208,61.57003591585429,0.18141977756578337,21.301597904457914,0.003994458203452843,0.0021166192077288685,0.002779411802779313,0.0024162778982259984,-560.5229202404439,3653.7688204361384,-67.97011404539474,663.3138184096808,3539.4100429483933,-416.0354857372861,Vision,NoMovement,4
0.28200000000000003,0.006649097493352438,0.009050147143293694,65.0994575045208,61.57003591585429,0.182900957137188,21.309640795321986,0.00399132411965208,0.002108490974939429,0.0028454237572618332,0.0024130552828156345,-560.5279637913561,3653.770107321539,-67.96027609647504,663.310219688826,3539.4347932081946,-416.0368857044235,Vision,NoMovement,4
0.28300000000000003,0.00664955958722885,0.00905157669357668,65.0994575045208,61.57003591585429,0.18438090361599382,21.317669439207034,0.003986848574844571,0.0021016079834407842,0.0029101306664907393,0.0024095621881615637,-560.5330073422684,3653.771394206939,-67.95043814755535,663.3066209679711,3539.459543467996,-416.03828567156097,Vision,NoMovement,4
0.28400000000000003,0.006649843038229887,0.0090525188785326,65.0994575045208,61.57003591585429,0.18585959925120676,21.325683670181082,0.003980910847052246,0.002095990485090815,0.0029732208674005628,0.0024058447955626287,-560.5380508931806,3653.772681092339,-67.94060019863564,663.3030222471161,3539.484293727797,-416.0396856386984,Vision,NoMovement,4
0.28500000000000003,0.006649930342436714,0.009052925672850537,65.0994575045208,61.57003591585429,0.18733702632408203,21.333683322314844,0.003973422999241984,0.0020916384638386327,0.003034392018510028,0.0024019652433069174,-560.543094444093,3653.7739679777396,-67.93076224971594,663.2994235262612,3539.5090439875985,-416.04108560583586,Vision,NoMovement,4
0.28600000000000003,0.006649803179741252,0.009052746986489774,65.0994575045208,61.57003591585429,0.1888131671448142,21.341668229709615,0.003964324936802058,0.002088533412302455,0.0030933510298724255,0.0023979999727747935,-560.5481379950052,3653.7752548631397,-67.92092430079624,663.2958248054063,3539.5337942474,-416.04248557297325,Vision,NoMovement,4
0.28700000000000003,0.006649442412533449,0.009051930362639621,65.0994575045208,61.57003591585429,0.19028800405417565,21.34963822646189,0.003953579365323293,0.002086640569110045,0.0031498141656335224,0.0023940376123447243,-560.5531815459175,3653.7765417485402,-67.91108635187655,663.2922260845514,3539.5585445072015,-416.0438855401107,Vision,NoMovement,4
0.28800000000000003,0.006648828087733146,0.009050420960947941,65.0994575045208,61.57003591585429,0.19176151942398117,21.357593146693624,0.003941166985436015,0.0020859114823800064,0.0032035074247552726,0.0023901764933135328,-560.5586791849735,3653.7784885334218,-67.90146413626704,663.2886273636965,3539.583294767003,-416.04528550724814,Vision,NoMovement,4
0.289,0.0066479394424652696,0.009048161757144088,65.0994575045208,61.57003591585429,0.19323369565836193,21.36553282454896,0.003927082177245056,0.002086286773819175,0.003254167261899428,0.0023865219294057684,-560.5702581288833,3653.7892729194955,-67.89473109546768,663.2850286428416,3539.608045026804,-416.0466854743856,Vision,NoMovement,4
0.29,0.0066467549136880535,0.009045093572129034,65.0994575045208,61.57003591585429,0.19470451518966475,21.37345709419731,0.003911329332243995,0.0020876990019313164,0.003301541665645585,0.002383183398950134,-560.5818370727933,3653.800057305569,-67.8879980546683,663.2814299219866,3539.6327952866054,-416.048085441523,Vision,NoMovement,4
0.291,0.006645252152099832,0.009041154937624304,65.0994575045208,61.57003591585429,0.19617396048588756,21.381365789832056,0.003893919894265295,0.002090075546524304,0.003345391565064481,0.0023802717565194788,-560.5934160167031,3653.810841691643,-67.88126501386894,663.2778312011317,3539.6575455464067,-416.0494854086605,Vision,NoMovement,4
0.292,0.00664340804065818,0.009036282130709335,65.0994575045208,61.57003591585429,0.19764201404542012,21.389258745698044,0.0038748700955831025,0.0020933414519489118,0.0033854925055634318,0.0023778965846981822,-560.6049949606131,3653.8216260777167,-67.87453197306957,663.2742324802767,3539.6822958062085,-416.0508853757979,Vision,NoMovement,4
0.293,0.006641198718061506,0.009030409133044983,65.0994575045208,61.57003591585429,0.19910865840489403,21.397135796056734,0.0038541993480130064,0.0020974221724008274,0.0034216365317269624,0.002376163785674727,-560.616573904523,3653.8324104637904,-67.8677989322702,663.2715402177624,3539.700387328432,-416.052357802831,Vision,NoMovement,4
0.294,0.006638599607552297,0.009023467919014077,65.0994575045208,61.57003591585429,0.2005738761235376,21.404996775216148,0.003831929282322924,0.0021022461664229114,0.0034536342335259556,0.0023751734989568693,-560.6281528484329,3653.8431948498646,-67.86106589147084,663.2702330498922,3539.7083041064407,-416.0539409506871,Vision,NoMovement,4
0.295,0.00663558545141454,0.009015388470354033,65.0994575045208,61.57003591585429,0.20203764980266353,21.41284151752716,0.003808083480779191,0.0021077472988184362,0.003481316923859685,0.00237501840750179,-560.6397317923429,3653.8539792359384,-67.85433285067147,663.2689258820221,3539.7162208844497,-416.05552409854323,Vision,NoMovement,4
0.296,0.006632130351547096,0.009006098776533283,65.0994575045208,61.57003591585429,0.20349996207500423,21.42066985738231,0.0037826879602983142,0.002113867022734256,0.0035045389066552407,0.0023757824673719947,-560.6513107362528,3653.864763622012,-67.84759980987211,663.267618714152,3539.7241376624584,-416.0571072463993,Vision,NoMovement,4
0.297,0.006628207816508041,0.00899552514829,65.0994575045208,61.57003591585429,0.20496079560756345,21.428481629242967,0.003755772403027895,0.0021205563234311525,0.0035231797662392014,0.0023775400791511765,-560.6628896801627,3653.875548008086,-67.84086676907273,663.2663115462819,3539.732054440467,-416.0586903942554,Vision,NoMovement,4
0.298,0.006623790815432597,0.008983591959237426,65.0994575045208,61.57003591585429,0.2064201331020667,21.436276667604957,0.003727372038754497,0.00212777740311474,0.0035371465777892636,0.0023803557092317534,-560.6744686240726,3653.8863323941596,-67.83413372827337,663.2650043784118,3539.739971218476,-416.06027354211153,Vision,NoMovement,4
0.299,0.0066188518392369285,0.008970221856859051,65.0994575045208,61.57003591585429,0.207877957296194,21.444054807028138,0.003697530022291966,0.002135505076178847,0.00354637592424003,0.002384283948853544,-560.6860475679825,3653.8971167802333,-67.827400687474,663.2636972105416,3539.7478879964847,-416.0618566899676,Vision,NoMovement,4
0.3,0.0066133629695309965,0.008955336144450017,65.0994575045208,61.57003591585429,0.20933425095953698,21.451815882133275,0.0036663001538385915,0.002143727828938436,0.0035508356149914623,0.002389369964682482,-560.6976265118924,3653.907901166307,-67.82066764667464,663.2623900426715,3539.7558047744933,-416.0634398378237,Vision,NoMovement,4
0.301,0.0066072959556654825,0.008938854692227964,65.0994575045208,61.57003591585429,0.21078899690100544,21.45955972760504,0.0036337498305365435,0.002152448489244868,0.003550526034772477,0.002395650264052781,-560.7092054558024,3653.918685552381,-67.81393460587526,663.2610828748014,3539.7637215525024,-416.0650229856798,Vision,NoMovement,4
0.302,0.006600622300352208,0.008920696235084768,65.0994575045208,61.57003591585429,0.21224217796423722,21.46728617819092,0.00359996314089782,0.0021616844683743372,0.003545481094580319,0.002403153684655337,-560.7207843997122,3653.9294699384545,-67.8072015650759,663.2597757069314,3539.771638330511,-416.0666061335359,Vision,NoMovement,4
0.303,0.006593313354293347,0.008900778257626455,65.0994575045208,61.57003591585429,0.21369377702850328,21.474995068727953,0.003565043999422303,0.0021714675799085073,0.003535768800296774,0.002411902517395288,-560.7323633436222,3653.9402543245283,-67.80046852427652,663.2584685390611,3539.7795551085196,-416.068189281392,Vision,NoMovement,4
0.304,0.006585340420267645,0.008879017496226457,65.0994575045208,61.57003591585429,0.21514377701514983,21.482686234108925,0.00352911919304985,0.002181843471319828,0.003521491484999172,0.002421913672332623,-560.7439422875321,3653.951038710602,-67.79373548347716,663.257161371191,3539.7874718865287,-416.0697724292481,Vision,NoMovement,4
0.305,0.0065766748671164275,0.008855330333376156,65.0994575045208,61.57003591585429,0.21659216087221633,21.49035950931107,0.003492341193285286,0.0021928706904161197,0.003502785755056486,0.0024331998030352898,-560.755521231442,3653.9618230966757,-67.78700244267779,663.255854203321,3539.7953886645373,-416.07135557710416,Vision,NoMovement,4
0.306,0.006567288254079027,0.008829633216559314,65.0994575045208,61.57003591585429,0.21803891159360392,21.49801472938852,0.003454890571910424,0.002204619360912105,0.0034798221795279537,0.0024457703183253456,-560.767100175352,3653.9726074827495,-67.78026940187843,663.2545470354509,3539.803305442546,-416.0729387249603,Vision,NoMovement,4
0.307,0.006557152465921078,0.008801843380656668,65.0994575045208,61.57003591585429,0.2194840122085531,21.505651729498712,0.003416977846233199,0.0022171693962900214,0.0034528047199957465,0.0024596322265346368,-560.7846001553997,3653.9890878309125,-67.77296078959267,663.2532398675808,3539.811222220555,-416.0745218728164,Vision,NoMovement,4
0.308,0.006546239859301246,0.008771879263745926,65.0994575045208,61.57003591585429,0.22092744578444132,21.513270344869014,0.0033788445660499823,0.0022306081723785986,0.003421969866449918,0.002474790760177156,-560.8067587574933,3654.0100497147287,-67.76519932244283,663.2519326997106,3539.8191389985636,-416.07610502067246,Vision,NoMovement,4
0.309,0.006534523420811471,0.008739661163784152,65.0994575045208,61.57003591585429,0.22236919542721642,21.520870410825637,0.003340763463339022,0.002245027611163301,0.003387585418645313,0.0024912497133530763,-560.828917359587,3654.0310115985453,-67.75743785529298,663.2506255318405,3539.8270557765723,-416.07768816852854,Vision,NoMovement,4
0.31,0.006521976937123327,0.0087051113066076,65.0994575045208,61.57003591585429,0.22380924428258311,21.528451762790585,0.003303037525915159,0.002260520695871293,0.0033499488453982867,0.0025090114029443374,-560.8510759616805,3654.051973482362,-67.74967638814314,663.249037665383,3539.8274787569503,-416.07918373444926,Vision,NoMovement,4
0.311,0.0065085751776598625,0.00866815415517538,65.0994575045208,61.57003591585429,0.22524757553202748,21.536014236284693,0.0032659979262606533,0.002277177519762778,0.0033093851773632406,0.0025280761664225096,-560.8732345637742,3654.0729353661786,-67.7419149209933,663.2473769260926,3539.8259562545713,-416.0806565630139,Vision,NoMovement,4
0.312,0.006494294090200908,0.008628717378801956,65.0994575045208,61.57003591585429,0.2266841724000847,21.54355766692666,0.0032300008124072047,0.002295081036425081,0.003266244438358632,0.002548441351216712,-560.8953931658677,3654.0938972499953,-67.73415345384345,663.2457161868023,3539.8244337521924,-416.0821293915785,Vision,NoMovement,4
0.313,0.0064791110098161445,0.008586732930877942,65.0994575045208,61.57003591585429,0.22811901814989613,21.551081890459066,0.0031954230393972894,0.0023143027022415556,0.0032208986670589895,0.002570099824022072,-560.9175517679614,3654.114859133812,-67.7263919866936,663.2440554475119,3539.8229112498134,-416.0836022201431,Vision,NoMovement,4
0.314,0.006463004881497495,0.008542137231825047,65.0994575045208,61.57003591585429,0.22955209608485175,21.558586742715555,0.003162656987164179,0.0023348981884444664,0.0031737386018219522,0.002593038099412799,-560.939710370055,3654.1358210176286,-67.71863051954377,663.2423947082215,3539.8213887474344,-416.0850750487078,Vision,NoMovement,4
0.315,0.006445956496846235,0.008494871624422745,65.0994575045208,61.57003591585429,0.2309833895497549,21.5660720596493,0.003132104668330124,0.0023569033095375736,0.0031251700976702755,0.0026172342236497957,-560.9618689721486,3654.1567829014452,-67.71086905239392,663.2407339689312,3539.8198662450554,-416.0865478772724,Vision,NoMovement,4
0.316,0.006427948745140843,0.008444883589454142,65.0994575045208,61.57003591585429,0.23241288192687923,21.573537677329597,0.0031041713507710907,0.0023803302790211846,0.0030756103377862277,0.002642655537362096,-560.9840275742422,3654.177744785262,-67.70310758524407,663.2390732296408,3539.8183437426765,-416.088020705837,Vision,NoMovement,4
0.317,0.0064089668790840585,0.008392127284885439,65.0994575045208,61.57003591585429,0.23384055664317036,21.580983431940997,0.0030792588992622654,0.0024051643675207894,0.0030254838888565945,0.00266925639862116,-561.0061861763359,3654.1987066690785,-67.69534611809424,663.2374124903505,3539.8168212402975,-416.08949353440164,Vision,NoMovement,4
0.318,0.006388998795497059,0.008336563750475786,65.0994575045208,61.57003591585429,0.2352663971658304,21.588409159808897,0.0030577590100690577,0.00243136101146537,0.002975218622472222,0.002696975912344904,-561.0283447784294,3654.219668552895,-67.68758465094439,663.2357517510601,3539.8152987379185,-416.09096636296624,Vision,NoMovement,4
0.319,0.006368035331186563,0.00827816174166324,65.0994575045208,61.57003591585429,0.2366903870038492,21.595814697367278,0.0030400465073943087,0.002458843410942819,0.0029252414888620163,0.0027257357174325374,-561.0505033805231,3654.240630436712,-67.67982318379454,663.2340910117698,3539.8137762355395,-416.09243919153084,Vision,NoMovement,4
0.32,0.006346070574176565,0.008216898677170249,65.0994575045208,61.57003591585429,0.23811250970841974,21.6031998811868,0.003026472892885145,0.0024875006575302426,0.002875974103145689,0.0027554379345512293,-561.0726619826166,3654.2615923205285,-67.6720617166447,663.2324302724794,3539.81225373316,-416.0939120200955,Vision,NoMovement,4
0.321,0.006323102190443688,0.008152761558198251,65.0994575045208,61.57003591585429,0.2395327488740764,21.61056454797196,0.0030173603438846614,0.0025171864467162333,0.002827828106395785,0.002785963439764431,-561.0941428073228,3654.2818640550217,-67.66476967307052,663.2307695331891,3539.810731230781,-416.0953848486601,Vision,NoMovement,4
0.322,0.006299131766248599,0.008085747969637144,65.0994575045208,61.57003591585429,0.24095108813479182,21.617908534564027,0.0030129963157174765,0.0025477184562803373,0.002781200284497546,0.0028171706620402507,-561.1121467425398,3654.298595433976,-67.6598856972869,663.2291087938987,3539.809208728402,-416.0968576772247,Vision,NoMovement,4
0.323,0.006274165166099274,0.008015867834729911,65.0994575045208,61.57003591585429,0.24236751117109664,21.625231677940253,0.003013628845083507,0.0025788785033184197,0.002736467460559363,0.002848895083089659,-561.130150677757,3654.315326812931,-67.65500172150327,663.2274480546084,3539.807686226023,-416.09833050578936,Vision,NoMovement,4
0.324,0.006248212906319631,0.007943144623702226,65.0994575045208,61.57003591585429,0.24378200170569794,21.63253381523899,0.003019462626689235,0.0026104136035913017,0.0026939812192117844,0.0028809495588211134,-561.1481546129742,3654.332058191885,-67.65011774571963,663.225787315318,3539.806163723644,-416.09980333435396,Vision,NoMovement,4
0.325,0.006221290544132329,0.007867615606220398,65.0994575045208,61.57003591585429,0.2451945435050839,21.639814783728102,0.0030306559575069883,0.0026420380334101967,0.0026540625821777743,0.0029131255141580784,-561.1661585481912,3654.34878957084,-67.645233769936,663.2241265760276,3539.8046412212652,-416.10127616291857,Vision,NoMovement,4
0.326,0.006193419082089192,0.007789332934192947,65.0994575045208,61.57003591585429,0.2466051203806398,21.647074420832556,0.0030473186761946435,0.0026734364373549083,0.002616996830441174,0.0029451950149614217,-561.1841624834084,3654.3655209497942,-67.64034979415237,663.2226221638319,3539.8042799472846,-416.10254278679065,Vision,NoMovement,4
0.327,0.0061646253876072934,0.0077083647518703165,65.0994575045208,61.57003591585429,0.24801371618477966,21.65431256413116,0.0030695112183938594,0.0027042679563520854,0.0025830287447508706,0.0029769136886291423,-561.2021664186256,3654.382252328749,-67.63546581836874,663.2217746753533,3539.8087984318486,-416.1029428893893,Vision,NoMovement,4
0.328,0.006134942627281235,0.007624795970487165,65.0994575045208,61.57003591585429,0.24942031481799457,21.661529051355874,0.00309724484531749,0.002734171291111402,0.0025523585785325077,0.003008024434802155,-561.2201703538427,3654.3989837077033,-67.63058184258512,663.2209271868747,3539.8133169164125,-416.103342991988,Vision,NoMovement,4
0.329,0.006104410715552224,0.007538730017564096,65.0994575045208,61.57003591585429,0.25082490022450216,21.66872372041647,0.003130483002835606,0.002762770575547098,0.0025251390636541883,0.0030382618312312657,-561.2381742890598,3654.4157150866577,-67.62569786680149,663.220079698396,3539.8178354009765,-416.1037430945866,Vision,NoMovement,4
0.33,0.0060730767772162,0.007450290516874958,65.0994575045208,61.57003591585429,0.2522274563937369,21.6758964093695,0.003169143662312392,0.002789681914425305,0.0025014736759216413,0.0030673571066886004,-561.2561782242769,3654.4324464656124,-67.62081389101786,663.2192322099174,3539.8223538855405,-416.10414319718524,Vision,NoMovement,4
0.331,0.006040995623146299,0.00735962249218548,65.0994575045208,61.57003591585429,0.2536279673607467,21.683046956445484,0.003213102399014881,0.0028145204260812684,0.002481416272583366,0.003095043533756415,-561.2741821594941,3654.4491778445667,-67.61592991523422,663.2183847214388,3539.8268723701044,-416.10454329978387,Vision,NoMovement,4
0.332,0.00600823023849622,0.007266893264264002,65.0994575045208,61.57003591585429,0.2550264172072824,21.690175200046227,0.0032621958947697247,0.00283690761898078,0.0024649720913881177,0.003121062090480372,-561.2921860947112,3654.4659092235215,-67.61104593945059,663.2175372329602,3539.8313908546684,-416.1049434023825,Vision,NoMovement,4
0.333,0.005974852282526535,0.0071722936675103835,65.0994575045208,61.57003591585429,0.2564227900578747,21.697280978747674,0.0033162255244422612,0.002856478917165629,0.002452099991189787,0.0031451672533332332,-561.3101900299283,3654.482640602476,-67.60616196366696,663.2166897444816,3539.8359093392323,-416.10534350498114,Vision,NoMovement,4
0.334,0.005940942599072804,0.007076039914119393,65.0994575045208,61.57003591585429,0.2578170700861074,21.70436413129932,0.003374960710833059,0.0028728911400231847,0.0024427157339649837,0.003167132797590439,-561.3281939651455,3654.4993719814306,-67.60127798788334,663.2158422560029,3539.8404278237963,-416.1057436075798,Vision,NoMovement,4
0.335,0.005906591736537016,0.006978375322343405,65.0994575045208,61.57003591585429,0.2592092415151915,21.711424496648387,0.0034381417979207044,0.00288582974231493,0.002436696066401639,0.00318675746804239,-561.3461979003625,3654.516103360385,-67.59639401209971,663.2149947675243,3539.8449463083602,-416.10614371017846,Vision,NoMovement,4
0.336,0.00587190047613948,0.006879571565096668,65.0994575045208,61.57003591585429,0.2605992886087917,21.71846191390951,0.003505482275032982,0.002895015628732167,0.002433883359699334,0.0032038703253675985,-561.3642018355797,3654.5328347393397,-67.59151003631608,663.2141472790457,3539.8494647929247,-416.1065438127771,Vision,NoMovement,4
0.337,0.0058369803670215705,0.006779930066263784,65.0994575045208,61.57003591585429,0.2619871956833113,21.725476222390853,0.003576670252192855,0.002900211360342304,0.0024340905919375093,0.0032183354884549346,-561.3822057707969,3654.549566118294,-67.58662606053245,663.2132997905671,3539.8539832774886,-416.1069439153757,Vision,NoMovement,4
0.338,0.0058019542666235425,0.006679783741980027,65.0994575045208,61.57003591585429,0.26337294709834846,21.732467261587637,0.003651369119447339,0.0029012265692610834,0.0024371064788330545,0.0032300559196035386,-561.3991247465143,3654.5658557164834,-67.5836535558266,663.2124523020884,3539.8585017620526,-416.10734401797436,Vision,NoMovement,4
0.339,0.005766956884601077,0.006579498816511999,65.0994575045208,61.57003591585429,0.2647565272647544,21.73943487120596,0.0037292173642892393,0.0028979224075519655,0.00244270056313497,0.003238975881450595,-561.4156004920709,3654.581964837374,-67.58146192970081,663.2116048136098,3539.8630202466165,-416.107744120573,Vision,NoMovement,4
0.34,0.0057321353283615005,0.006479476351137497,65.0994575045208,61.57003591585429,0.266137920640352,21.74637889113296,0.00380982760863642,0.002890214872389098,0.002450628080367913,0.0032450817547431555,-561.4320762376274,3654.5980739582646,-67.57927030357502,663.2107573251312,3539.8675387311805,-416.1081442231717,Vision,NoMovement,4
0.341,0.00569764964812084,0.00638015385631004,65.0994575045208,61.57003591585429,0.2675171117313836,21.753299161463026,0.003892785077996081,0.002878076860867582,0.002460634457028022,0.0032484010449936552,-561.4485519831838,3654.614183079155,-67.57707867744922,663.2099098366526,3539.8720572157445,-416.1085443257703,Vision,NoMovement,4
0.342,0.005663673379185788,0.006282006588576916,65.0994575045208,61.57003591585429,0.2688940850928879,21.760195522495305,0.003977645853116958,0.0028615388199412606,0.002472459372037615,0.003248999589600353,-561.4650277287403,3654.6302922000455,-67.57488705132343,663.209062348174,3539.8765757003084,-416.10894442836894,Vision,NoMovement,4
0.343,0.00563039407896667,0.006185549144271652,65.0994575045208,61.57003591585429,0.27026882532973917,21.76706781473651,0.0040639353144472186,0.002840687892815844,0.0024858403990353,0.003246977159092479,-561.4815034742969,3654.646401320936,-67.57269542519764,663.2098508371913,3539.8890080938704,-416.1083093445085,Vision,NoMovement,4
0.34400000000000003,0.005598013856013693,0.006091337105692438,65.0994575045208,61.57003591585429,0.271641317092804,21.773915878900464,0.004151147171995054,0.0028156655345326154,0.002500516308245924,0.00324246179745492,-561.4979792198534,3654.6625104418267,-67.57050379907184,663.2117735865847,3539.9069273803857,-416.106956542351,Vision,NoMovement,4
0.34500000000000003,0.005566749888152845,0.005999969038508912,65.0994575045208,61.57003591585429,0.27301154508507913,21.780739555931344,0.004238743433716241,0.0027866636662694654,0.002516230121097145,0.0032356033539236656,-561.5144549654099,3654.6786195627174,-67.56831217294605,663.213696335978,3539.9248466669014,-416.10560374019354,Vision,NoMovement,4
0.34600000000000003,0.005536834926570317,0.005912087108503578,65.0994575045208,61.57003591585429,0.27437949406220763,21.787538686974575,0.004326155629235029,0.002753919536690853,0.0025327319887568918,0.0032265667005379373,-561.5309307109663,3654.6947286836075,-67.56612054682026,663.2156190853715,3539.942765953417,-416.1042509380361,Vision,NoMovement,4
0.34700000000000003,0.0055085177824588496,0.0058283783513328555,65.0994575045208,61.57003591585429,0.2757451488235111,21.79431311340256,0.004412787560420528,0.0027177095343371093,0.002549781937584189,0.0032155250915672784,-561.5474064565228,3654.710837804498,-67.56392892069447,663.2175418347649,3539.960685239933,-416.1028981358786,Vision,NoMovement,4
0.34800000000000003,0.005482063792597222,0.005749576756902771,65.0994575045208,61.57003591585429,0.2771084942239828,21.801062676811718,0.004498019767435765,0.0026783422411130113,0.002567152505411221,0.0032026540252179238,-561.5638822020794,3654.726946925389,-67.56173729456867,663.2194645841582,3539.9786045264486,-416.10154533372116,Vision,NoMovement,4
0.34900000000000003,0.005457755259984816,0.005676464563087077,65.0994575045208,61.57003591585429,0.2784695151649452,21.807787219022106,0.004581215767067656,0.002636151044549621,0.0025846312757644035,0.0031881258594877544,-561.5803579476359,3654.7430560462794,-67.55954566844288,663.2213873335517,3539.996523812964,-416.1001925315637,Vision,NoMovement,4
