Time,Amplitude_Envelope_P1,Amplitude_Envelope_P2,Filtered_ECG_P1,Filtered_ECG_P2,Filtered_Respiration_P1,Filtered_Respiration_P2,Filtered_EMG_Bicep_P1,Filtered_EMG_Tricep_P1,Filtered_EMG_Bicep_P2,Filtered_EMG_Tricep_P2,right_index_x_P1,right_index_y_P1,right_index_z_P1,right_index_x_P2,right_index_y_P2,right_index_z_P2,ConditionVision,ConditionMovement,Trial
0.0,0.0064887294597887,0.0065099223124506,75.54636208292115,63.69990268070424,0.0883691313047184,12.830142681302323,0.0036030759154734,0.0038720440168401,0.0077977301061938,0.0061431768740599,-593.109879327449,3580.663753461803,611.4726961778792,448.9069176116221,3430.1077544475547,-95.73791613645326,Vision,Movement,2
0.001,0.006489092273757881,0.00657679540448861,75.54636208292115,63.69990268070424,0.08880286643826782,12.830310609067055,0.0037430962028155573,0.004129578621030712,0.008387983012853878,0.006251413655132066,-593.172749366694,3580.871411321926,611.4976751598273,448.7965710019798,3430.0726855820644,-95.6455825264231,Vision,Movement,2
0.002,0.006489432938548001,0.006643180644351603,75.54636208292115,63.69990268070424,0.0892379260838613,12.830464605095202,0.003883052140460138,0.004378944011845988,0.008967087551610116,0.006355500413639628,-593.2356194059391,3581.079069182049,611.5226541417752,448.6862243923376,3430.0376167165746,-95.55324891639293,Vision,Movement,2
0.003,0.0064897487225815285,0.006708861421676501,75.54636208292115,63.69990268070424,0.08967430778290413,12.830604575748605,0.004021858228124339,0.004617759621010838,0.009529352042421453,0.006454276906736096,-593.2984894451841,3581.286727042172,611.5476331237232,448.57587778269533,3430.0025478510843,-95.46091530636276,Vision,Movement,2
0.004,0.006490037707301377,0.006773646871842715,75.54636208292115,63.69990268070424,0.09011200904738151,12.830730427330957,0.0041584168264031185,0.004843747700985686,0.010069138209196448,0.006546608952196913,-593.3613594844292,3581.4943849022948,611.5726121056712,448.4655311730531,3429.967478985594,-95.36858169633258,Vision,Movement,2
0.005,0.006490298206426835,0.00683736608630496,75.54636208292115,63.69990268070424,0.09055102736229018,12.830842066090717,0.00429163291986178,0.005054776904400419,0.010580956023278102,0.006631406005797565,-593.4242295236742,3581.702042762418,611.5975910876192,448.35518456341083,3429.932410120104,-95.27624808630242,Vision,Movement,2
0.006,0.006490529079804095,0.006899866682614597,75.54636208292115,63.69990268070424,0.09099136018409969,12.83093939822332,0.004420429336055121,0.0052489042227085135,0.011059559609155906,0.006707638360469016,-593.4870995629193,3581.9097006225406,611.6225700695671,448.2448379537686,3429.897341254614,-95.18391447627225,Vision,Movement,2
0.007,0.00649072990746319,0.0069610138768623426,75.54636208292115,63.69990268070424,0.0914330049416001,12.831022329873552,0.004543762453727615,0.005424413940443737,0.011500042115072518,0.0067743537742182705,-593.5499696021643,3582.117358482664,611.6475490515152,448.13449134412633,3429.8622723891235,-95.09158086624208,Vision,Movement,2
0.008,0.006490900286104611,0.007020689365140993,75.54636208292115,63.69990268070424,0.09187595903434728,12.831090767137889,0.004660638397394559,0.0055798522415355005,0.01189792730515617,0.006830693424983494,-593.6128396414093,3582.3250163427865,611.6725280334631,448.0241447344841,3429.8272035236337,-94.99924725621192,Vision,Movement,2
0.009000000000000001,0.0064910396255373195,0.0070787905305599395,75.54636208292115,63.69990268070424,0.09232021983512358,12.831144616067101,0.004770129596472289,0.005714056235650833,0.012249255554069836,0.006875907115293556,-593.6757096806543,3582.5326742029097,611.6975070154111,447.91379812484183,3429.7921346581434,-94.90691364618175,Vision,Movement,2
0.01,0.006491147107612344,0.007135229746386455,75.54636208292115,63.69990268070424,0.09276578468838513,12.831183782668303,0.004871391419217875,0.005826176453701305,0.012550662067999976,0.006909367596974835,-593.7385797198995,3582.7403320630324,611.7224859973591,447.8034515151996,3429.757065792653,-94.81458003615157,Vision,Movement,2
0.011,0.006491221701295117,0.00718993346401196,75.54636208292115,63.69990268070424,0.09321265091071648,12.83120817290758,0.004963678432183264,0.005915692216468396,0.012799445545186848,0.006930583772407402,-593.8014497591445,3582.9479899231555,611.7474649793071,447.69310490555733,3429.7219969271628,-94.7222464261214,Vision,Movement,2
0.012,0.006491262282268596,0.007242841401379194,75.54636208292115,63.69990268070424,0.09366081579088667,12.831217692712379,0.005046359688659538,0.005982419543081956,0.012993625859083015,0.0069392123674763915,-593.8643197983895,3583.1556477832783,611.772443961255,447.5827582959151,3429.686928061673,-94.62991281609123,Vision,Movement,2
0.013000000000000001,0.006491268191544111,0.007293905403256343,75.54636208292115,63.69990268070424,0.09411027659030749,12.831212247973895,0.005118932339030652,0.0060265114020934965,0.01313198954567046,0.006935067511929818,-593.9166736376947,3583.3195528632473,611.7951908543466,447.447003276097,3429.6488589944993,-94.52306668001162,Vision,Movement,2
0.014,0.006491239466446716,0.007343088455253633,75.54636208292115,63.69990268070424,0.09456103054105887,12.831191744549471,0.005181032818175043,0.006048450228772657,0.013214121918013376,0.0069181275891031626,-593.9636129523838,3583.460930746461,611.8167885015008,447.29035410929185,3429.608322765683,-94.40428643037153,Vision,Movement,2
0.015,0.006491176574333508,0.0073903640606399,75.54636208292115,63.69990268070424,0.0950130748504275,12.831156088265086,0.005232444956285952,0.006049032905731409,0.013240424750213068,0.0068885388218272,-594.0105522670729,3583.6023086296746,611.838386148655,447.13370494248676,3429.5677865368675,-94.28550618073142,Vision,Movement,2
0.016,0.0064910807489923445,0.007435715263160139,75.54636208292115,63.69990268070424,0.0954664066952488,12.83110518491775,0.0052731045769311554,0.00602934883762645,0.01321211880350474,0.006846615348797388,-594.0574915817621,3583.7436865128884,611.8599837958092,446.97705577568166,3429.527250308052,-94.16672593109132,Vision,Movement,2
0.017,0.006490953326767808,0.007479133525038754,75.54636208292115,63.69990268070424,0.0959210232264665,12.83103894027797,0.005303100422519312,0.005990752159959552,0.013131231030525279,0.00679283589453683,-594.1044308964512,3583.8850643961023,611.8815814429634,446.8204066088765,3429.486714079236,-94.04794568145121,Vision,Movement,2
0.018000000000000002,0.0064907954706395436,0.007520618034649944,75.54636208292115,63.69990268070424,0.09637692156755243,12.830957260092292,0.005322671461540835,0.00593482930985539,0.013000566951609106,0.006727837378044294,-594.1513702111403,3584.0264422793157,611.9031790901175,446.6637574420714,3429.4461778504206,-93.92916543181111,Vision,Movement,2
0.019,0.006490608115141462,0.007560175283898286,75.54636208292115,63.69990268070424,0.09683409881333128,12.830860050085418,0.005332200776636473,0.005863363142107363,0.012823669268675297,0.0066524058495896965,-594.1983095258294,3584.1678201625296,611.9247767372717,446.5071082752663,3429.405641621605,-93.810385182171,Vision,Movement,2
0.02,0.006490391963474357,0.007597818640346023,75.54636208292115,63.69990268070424,0.09729255203251679,12.830747215963152,0.0053322063537711035,0.005778294626297855,0.012604764106691292,0.0065674650201702255,-594.2452488405185,3584.3091980457434,611.9463743844259,446.35045910846117,3429.3651053927892,-93.69160493253091,Vision,Movement,2
0.021,0.006490147509143227,0.007633567272438981,75.54636208292115,63.69990268070424,0.09775227826612276,12.830618663414558,0.005323329237799601,0.005681683050255485,0.012348696299629426,0.0064740624469890404,-594.2921881552076,3584.450575928957,611.9679720315801,446.19380994165607,3429.3245691639736,-93.5728246828908,Vision,Movement,2
0.022,0.0064898751492047145,0.007667445628656463,75.54636208292115,63.69990268070424,0.09821327452793889,12.830474298114517,0.005306319656441209,0.005575665615570926,0.012060855035615749,0.006373353300179036,-594.3391274698967,3584.5919538121707,611.9895696787343,446.037160774851,3429.284032935158,-93.4540444332507,Vision,Movement,2
0.023,0.006489575713398416,0.007699482744008736,75.54636208292115,63.69990268070424,0.09867553780459684,12.83031402572635,0.0052820217786426855,0.0054624173041348,0.01174709115697798,0.00626658166893141,-594.3860667845859,3584.733331695384,612.0111673258884,445.8805116080458,3429.2434967063423,-93.33526418361059,Vision,Movement,2
0.024,0.006489250790697422,0.007729711893926427,75.54636208292115,63.69990268070424,0.09913906505604468,12.830137751903715,0.005251357735529979,0.005344111858052087,0.01141362756763851,0.006155059585300975,-594.433006099275,3584.874709578598,612.0327649730426,445.7238624412407,3429.2029604775266,-93.2164839339705,Vision,Movement,2
0.025,0.006488902354888058,0.0077581702144322645,75.54636208292115,63.69990268070424,0.09960385321353424,12.829945382293996,0.0052153114179342664,0.00522288464297999,0.011066964410260841,0.00604014422882859,-594.4799454139641,3585.016087461812,612.0543626201968,445.56721327443563,3429.162424248711,-93.09770368433038,Vision,Movement,2
0.026000000000000002,0.006488533208979793,0.007784898291148239,75.54636208292115,63.69990268070424,0.10006989918428277,12.82973682254024,0.005174912431726728,0.005100798077708694,0.010713780760231677,0.005923213966460007,-594.5268847286532,3585.1574653450252,612.075960267351,445.4105641076305,3429.1218880198953,-92.97892343469029,Vision,Movement,2
0.027,0.006488146414717971,0.007809939607632975,75.54636208292115,63.69990268070424,0.10053719984567215,12.829511978283795,0.005131220489939608,0.004979810239022825,0.010360834571018404,0.005805643943511412,-594.5738240433423,3585.298843228239,612.0975579145053,445.2539149408254,3429.0813517910797,-92.86014318505018,Vision,Movement,2
0.028,0.006487744923027658,0.007833339993949705,75.54636208292115,63.69990268070424,0.10100575204994207,12.829270755166814,0.005085310442312096,0.004861747152703082,0.010014862540007153,0.005688781911239554,-594.6207633580314,3585.440221111453,612.1191555616595,445.09726577402023,3429.040815562264,-92.74136293541008,Vision,Movement,2
0.029,0.006487331503651878,0.007855147338031773,75.54636208292115,63.69990268070424,0.10147555262256784,12.829013058835006,0.005038258081586439,0.004748279178880819,0.009682481496579892,0.005573924923371865,-594.6675294820695,3585.57878682918,612.141963851285,444.94061660721513,3429.0002793334484,-92.62258268576997,Vision,Movement,2
0.03,0.006486908738764599,0.007875411148061824,75.54636208292115,63.69990268070424,0.10194659836106684,12.828738794939207,0.004991126805818548,0.0046409017575253,0.009370092782985123,0.005462297468010282,-594.7136319172763,3585.7065759673646,612.1694114784433,444.71983982434364,3428.9597945790374,-92.43016661277119,Vision,Movement,2
0.031,0.006486479026892109,0.007894182426496595,75.54636208292115,63.69990268070424,0.10241888603760778,12.828447869139337,0.004944955174774957,0.004540920641344372,0.009083790885434779,0.005355031513134626,-594.7597343524831,3585.8343651055498,612.1968591056016,444.49547959485136,3428.919312701012,-92.23363577520502,Vision,Movement,2
0.032,0.006486044589064138,0.007911513446592716,75.54636208292115,63.69990268070424,0.10289241239738564,12.82814018710598,0.004900745388608595,0.004449441619409084,0.008829277299842444,0.0052531488188992895,-594.8058367876898,3585.962154243735,612.2243067327598,444.27111936535914,3428.8788308229873,-92.03710493763884,Vision,Movement,2
0.033,0.006485607475433259,0.007927457590193521,75.54636208292115,63.69990268070424,0.10336717415911784,12.827815654523176,0.004859452735740878,0.00436736461841185,0.008611780394006596,0.005157545734700562,-594.8519392228966,3586.08994338192,612.2517543599181,444.04675913586686,3428.8383489449625,-91.84057410007266,Vision,Movement,2
0.034,0.006485169572026399,0.007942069119770431,75.54636208292115,63.69990268070424,0.10384316801511938,12.82747417709127,0.0048219760771996845,0.00429538197540129,0.008435981839917086,0.0050689805716364585,-594.8980416581034,3586.217732520105,612.2792019870762,443.8223989063746,3428.7978670669377,-91.64404326250649,Vision,Movement,2
0.035,0.006484732607549457,0.007955402950325837,75.54636208292115,63.69990268070424,0.10432039063179172,12.827115660528213,0.004789149403368046,0.004233980615546033,0.008305950038794635,0.004988063570692261,-594.9441440933101,3586.34552165829,612.3066496142345,443.59803867688237,3428.7573851889124,-91.4475124249403,Vision,Movement,2
0.036000000000000004,0.0064842981602075325,0.00796751456977474,75.54636208292115,63.69990268070424,0.10479883864757499,12.82674001057398,0.004761734402353619,0.004183447849890503,0.008225080859270411,0.004915249489371319,-594.9902465285169,3586.4733107964753,612.3340972413928,443.3736784473901,3428.7169033108876,-91.25098158737413,Vision,Movement,2
0.037,0.006483867664510756,0.007978459800914333,75.54636208292115,63.69990268070424,0.10527850867772529,12.826347132991904,0.004740413854183052,0.0041438804999314426,0.008196046018324115,0.004850832854884698,-595.0363489637236,3586.6010999346604,612.361544868551,443.1493182178978,3428.6764214328628,-91.05445074980796,Vision,Movement,2
0.038,0.0064834424180413245,0.007988294140635198,75.54636208292115,63.69990268070424,0.10575939730837781,12.825936933571528,0.004725785579342068,0.004115197022371984,0.00822074961274884,0.0047949459227533825,-595.0824513989303,3586.7288890728455,612.3889924957093,442.9249579884056,3428.635939554838,-90.85791991224177,Vision,Movement,2
0.039,0.006483023588160038,0.007997072766566856,75.54636208292115,63.69990268070424,0.1062415011013662,12.825509318131186,0.004718356671992459,0.004097152219434395,0.00830029358008943,0.004747559321451144,-595.128553834137,3586.85667821103,612.4164401228676,442.7005977589133,3428.5954576768127,-90.6613890746756,Vision,Movement,2
0.04,0.0064826122186300555,0.008004850301747917,75.54636208292115,63.69990268070424,0.10672481659256122,12.825064192520985,0.004718537865209178,0.00408935401625223,0.008434953106548253,0.0047084853256218724,-595.1746562693438,3586.9844673492153,612.4438877500259,442.47623752942104,3428.554975798788,-90.46485823710942,Vision,Movement,2
0.041,0.006482209236142146,0.008011680806846236,75.54636208292115,63.69990268070424,0.10720934029065786,12.824601462623741,0.004726638077935854,0.00409128170715903,0.008624163075930114,0.004677383717767351,-595.2207587045506,3587.1122564874004,612.4713353771841,442.2518772999288,3428.514493920763,-90.26832739954324,Vision,Movement,2
0.042,0.006481815456723545,0.008017617602149451,75.54636208292115,63.69990268070424,0.10769506867985518,12.824121034360006,0.00474285941706737,0.004102305057005822,0.008866516539286476,0.004653770238124653,-595.2668611397573,3587.2400456255855,612.4987830043424,442.02751707043655,3428.474012042738,-90.07179656197707,Vision,Movement,2
0.043000000000000003,0.0064814315920162305,0.00802271312395751,75.54636208292115,63.69990268070424,0.10818199821819537,12.823622813689033,0.004767293050816849,0.004121703664685331,0.009159775958904921,0.00463702763487552,-595.3129635749641,3587.3678347637706,612.5262306315007,441.80315684094427,3428.4335301647134,-89.87526572441088,Vision,Movement,2
0.044,0.006481058255412488,0.008027018571238812,75.54636208292115,63.69990268070424,0.1086701253380786,12.823106706612233,0.004799916365747902,0.004148686023188132,0.009500897690138215,0.004626419316401883,-595.3590660101709,3587.4956239019557,612.5536782586588,441.57879661145205,3428.393048286688,-89.67873488684471,Vision,Movement,2
0.045,0.006480695968035397,0.00803058370973714,75.54636208292115,63.69990268070424,0.10915944644634787,12.822572619173895,0.004840591692900095,0.004182407753841178,0.009886069850621418,0.004621105586879533,-595.4051684453776,3587.623413040141,612.5811258858171,441.3544363819598,3428.3525664086633,-89.48220404927854,Vision,Movement,2
0.046,0.006480345164556524,0.008033456873866415,75.54636208292115,63.69990268070424,0.10964995792478947,12.822020457466595,0.004889066732849174,0.004221988579320609,0.01031076337250401,0.004620162398967706,-595.4472397952528,3587.7399219138597,612.6135790122895,441.12640249250336,3428.3251167867857,-89.2594934399092,Vision,Movement,2
0.047,0.006480006198840904,0.008035685155170579,75.54636208292115,63.69990268070424,0.1101416561280521,12.821450127631925,0.004944976711666854,0.004266527725269372,0.010769795688850808,0.004622602445269205,-595.4879943721785,3587.8527460362293,612.6476672086138,440.8914065301239,3428.3223650189643,-88.98716869036862,Vision,Movement,2
0.048,0.006479679349413159,0.008037314351005138,75.54636208292115,63.69990268070424,0.11063453738853346,12.820861535863555,0.005007848278178675,0.004315117580036296,0.011257406135170895,0.004627398245110694,-595.528748949104,3587.9655701585993,612.6817554049381,440.65641056774444,3428.319613251143,-88.71484394082803,Vision,Movement,2
0.049,0.006479364824740396,0.008038388878602924,75.54636208292115,63.69990268070424,0.1111285980103131,12.820254588409867,0.005077105148236344,0.004366855590356157,0.01176734178934717,0.004633506727160982,-595.5695035260296,3588.078394280969,612.7158436012626,440.42141460536493,3428.316861483322,-88.44251919128743,Vision,Movement,2
0.05,0.006479062768324827,0.008038951740686523,75.54636208292115,63.69990268070424,0.11162383427409278,12.8196291915771,0.005152075475055685,0.004420854546039625,0.012292952108026736,0.004639894718510143,-595.6102581029553,3588.191218403339,612.7499317975869,440.1864186429855,3428.3141097155008,-88.17019444174684,Vision,Movement,2
0.051000000000000004,0.006478773263605889,0.00803904424528734,75.54636208292115,63.69990268070424,0.11212024243549487,12.818985251729726,0.00523200086518429,0.004476251552469295,0.012827290385119157,0.004645564726687816,-595.6510126798809,3588.3040425257086,612.7840199939112,439.951422680606,3428.3113579476794,-87.89786969220626,Vision,Movement,2
0.052000000000000005,0.006478496338667378,0.008038705859616076,75.54636208292115,63.69990268070424,0.11261781872383243,12.818322675296477,0.005316046913577878,0.004532216042159692,0.013363219796458277,0.004649580401628685,-595.6917672568064,3588.4168666480787,612.8181081902356,439.71642671822656,3428.3086061798585,-87.62554494266567,Vision,Movement,2
0.053,0.006478231970749475,0.008037974276593076,75.54636208292115,63.69990268070424,0.1131165593448551,12.817641368770683,0.005403315082657042,0.004587957106111382,0.013893521734698464,0.0046510910629135324,-595.7325218337321,3588.5296907704483,612.85219638656,439.4814307558471,3428.305854412037,-87.35322019312508,Vision,Movement,2
0.054,0.006477980090564696,0.00803688541196694,75.54636208292115,63.69990268070424,0.11361646047905335,12.81694123871347,0.005492855683876374,0.004642730294149243,0.014411004257531638,0.004649354684323292,-595.7732764106577,3588.6425148928183,612.8862845828843,439.2464347934676,3428.303102644216,-87.0808954435845,Vision,Movement,2
0.055,0.006477740586418334,0.008035473287762222,75.54636208292115,63.69990268070424,0.1141175182821907,12.816222191757014,0.0055836816635945795,0.00469584392020898,0.014908608723865143,0.004643758765812801,-595.8140309875834,3588.755339015188,612.9203727792087,439.0114388310881,3428.3003508763945,-86.8085706940439,Vision,Movement,2
0.056,0.006477513308134315,0.008033769917948326,75.54636208292115,63.69990268070424,0.11461972888539694,12.815484134604596,0.005674782874065211,0.004746664842758808,0.015379512880850871,0.004633838583707361,-595.8547855645089,3588.868163137558,612.954460975533,438.77644286870867,3428.2975991085736,-86.5362459445033,Vision,Movement,2
0.057,0.006477298070788448,0.008031805567911514,75.54636208292115,63.69990268070424,0.11512308839567888,12.814726974037136,0.005765140521211098,0.004794623670157922,0.01581722876947464,0.004619292353142342,-595.8955401414345,3588.9809872599276,612.9885491718574,438.5414469063292,3428.2948473407523,-86.26392119496272,Vision,Movement,2
0.058,0.006477094658250798,0.008029609002836568,75.54636208292115,63.69990268070424,0.11562759289380821,12.81395061691323,0.005853741471576821,0.004839219335276268,0.01621569401400671,0.00459999283826709,-595.9362947183602,3589.0938113822976,613.0226373681818,438.3064509439497,3428.292095572931,-85.99159644542213,Vision,Movement,2
0.059000000000000004,0.0064769028265412466,0.008027207494790248,75.54636208292115,63.69990268070424,0.11613323843931077,12.813154970172443,0.005939592063336648,0.004880022973224579,0.016569355437142445,0.004575994940098994,-595.9770492952857,3589.2066355046672,613.0567255645061,438.07145498157024,3428.28934380511,-85.71927169588155,Vision,Movement,2
0.06,0.006476722306999667,0.008024626977808348,75.54636208292115,63.69990268070424,0.11664002106428084,12.812339940837951,0.006021731044146969,0.004916681027609549,0.016873244514985782,0.004547538838898156,-596.0178038722113,3589.319459627037,613.0908137608304,437.8364590191908,3428.2865920372888,-85.44694694634094,Vision,Movement,2
0.061,0.0064765528092772025,0.00802189219442598,75.54636208292115,63.69990268070424,0.11714793677886136,12.811505436019905,0.006099241323412101,0.004948917544748137,0.01712304469841312,0.004515048398095682,-596.058558449137,3589.432283749407,613.1249019571549,437.6014630568113,3428.2838402694674,-85.17462219680036,Vision,Movement,2
0.062,0.006476394024149744,0.008019026560266086,75.54636208292115,63.69990268070424,0.11765698156728388,12.810651362915092,0.0061712603385047915,0.0049765356732623806,0.01731515087054871,0.004479124736484114,-596.0951084668776,3589.5344669497076,613.1592878077386,437.3664670944318,3428.2810885016465,-84.90229744725977,Vision,Movement,2
0.063,0.006476245626160815,0.008016052131590788,75.54636208292115,63.69990268070424,0.1181671513911241,12.80977762881409,0.006236988965132173,0.004999418423688866,0.017446721108394844,0.004440535102286422,-596.1218759677208,3589.6118925011397,613.1943661941375,437.14740735343446,3428.327410825162,-84.59716511362626,Vision,Movement,2
0.064,0.006476107276096964,0.008012989662822458,75.54636208292115,63.69990268070424,0.11867844218757553,12.80888414110094,0.006295698982634203,0.005017528691261884,0.01751572056550444,0.004400197376088557,-596.1486434685639,3589.6893180525717,613.2294445805363,436.93383861061784,3428.3906421599045,-84.28072857052868,Vision,Movement,2
0.065,0.006475978623301451,0.008009858770241995,75.54636208292115,63.69990268070424,0.11919084986999696,12.807970807257314,0.006346739147036562,0.005030908414019812,0.017520956773752965,0.004359160666652201,-596.1754109694072,3589.7667436040033,613.2645229669353,436.72026986780116,3428.4538734946464,-83.96429202743111,Vision,Movement,2
0.066,0.006475859307831445,0.008006677665684081,75.54636208292115,63.69990268070424,0.119704370328004,12.807037534861921,0.006389539935217607,0.0050396765803332015,0.017462105113559074,0.0043185825748709335,-596.2021784702503,3589.8441691554353,613.2996013533341,436.50670112498455,3428.5171048293887,-83.64785548433355,Vision,Movement,2
0.067,0.006475748962464022,0.008003463038081884,75.54636208292115,63.69990268070424,0.12021899942756917,12.806084231598081,0.0064236170283250285,0.005044025697925862,0.01733972278911687,0.004279703829726384,-596.2289459710935,3589.9215947068674,613.334679739733,436.2931323821679,3428.5803361641306,-83.33141894123598,Vision,Movement,2
0.068,0.006475647214556863,0.008000230321178138,75.54636208292115,63.69990268070424,0.120734733011541,12.805110805253094,0.00644857361894578,0.005044216360907589,0.01715524959138254,0.004243821119433905,-596.2557134719366,3589.9990202582994,613.3697581261318,436.0795636393513,3428.643567498873,-83.01498239813841,Vision,Movement,2
0.069,0.006475553687768457,0.007996993699669955,75.54636208292115,63.69990268070424,0.12125156689750329,12.804117163721731,0.006464101684761018,0.005040569721776628,0.016910994102658783,0.004212258997431421,-596.2824809727798,3590.0764458097315,613.4048365125308,435.86599489653463,3428.706798833615,-82.69854585504085,Vision,Movement,2
0.07,0.0064754680036457095,0.007993766061586798,75.54636208292115,63.69990268070424,0.12176949688285944,12.803103215008882,0.006469982467828561,0.005033457926657731,0.016610104568320145,0.004186341705178553,-596.309248473623,3590.1538713611635,613.4399148989296,435.652426153718,3428.770030168357,-82.38210931194328,Vision,Movement,2
0.07100000000000001,0.006475389783081543,0.007990559151371287,75.54636208292115,63.69990268070424,0.12228851873852974,12.802068867233112,0.00646608645944512,0.005023292801574218,0.016256524134397776,0.0041673656475189206,-596.3360159744661,3590.2312969125956,613.4749932853285,435.4388574109014,3428.833261503099,-82.06567276884572,Vision,Movement,2
0.07200000000000001,0.006475318647652107,0.007987383400682469,75.54636208292115,63.69990268070424,0.12280862821454333,12.801014028625664,0.006452373150610196,0.005010513228595446,0.01585493050492125,0.004156573122928673,-596.3627834753094,3590.308722464027,613.5100716717274,435.2252886680847,3428.8964928378414,-81.74923622574815,Vision,Movement,2
0.073,0.0064752542208365935,0.0079842482115034,75.54636208292115,63.69990268070424,0.12332982103600404,12.799938607538659,0.006428890684267407,0.004995571734846861,0.015410660576958031,0.004155127784507455,-596.3895509761525,3590.386148015459,613.5451500581263,435.0117199252681,3428.9597241725837,-81.43279968265058,Vision,Movement,2
0.074,0.006475196129126737,0.007981162139255668,75.54636208292115,63.69990268070424,0.12385209290641423,12.798842512444057,0.006395775418476992,0.004978920857283656,0.014929621363204172,0.004164092199528577,-596.4163184769957,3590.4635735668912,613.5802284445251,434.7981511824515,3429.0229555073256,-81.11636313955302,Vision,Movement,2
0.075,0.006475144003031937,0.007978132886535351,75.54636208292115,63.69990268070424,0.12437543950591555,12.797725651937276,0.006353251331230591,0.004960999841556685,0.014418189341734427,0.00418440778265539,-596.4430859778388,3590.5409991183233,613.615306830924,434.5845824396348,3429.086186842068,-80.79992659645545,Vision,Movement,2
0.076,0.006475097477985965,0.007975167255870467,75.54636208292115,63.69990268070424,0.12489985649185045,12.796587934740796,0.006301629159909384,0.004942222160986302,0.013883100907736996,0.004216877288176573,-596.469853478682,3590.6184246697553,613.6503852173229,434.3710136968182,3429.14941817681,-80.48349005335788,Vision,Movement,2
0.077,0.006475056195159778,0.007972271195842855,75.54636208292115,63.69990268070424,0.12542533949886797,12.795429269702826,0.0062413051410106415,0.004922964207173774,0.013331336731603718,0.004262149955601015,-596.4966209795251,3590.6958502211874,613.6854636037217,434.15744495400156,3429.212649511552,-80.16705351026032,Vision,Movement,2
0.078,0.006475019802187836,0.007969450012784143,75.54636208292115,63.69990268070424,0.125951884139458,12.794249565806046,0.006172759188277528,0.0049035553594878436,0.012770002674917954,0.004320709311638296,-596.5233884803683,3590.7732757726194,613.7205419901206,433.94387621118494,3429.275880846294,-79.85061696716275,Vision,Movement,2
0.079,0.006474987953812415,0.007966708682054681,75.54636208292115,63.69990268070424,0.1264794860022146,12.793048732166213,0.006096552341289309,0.004884269562449294,0.012206209643433387,0.004392863550025326,-596.534105609794,3590.8051432391694,613.7481047408602,433.7318945743168,3429.3465643005907,-79.53366951418852,Vision,Movement,2
0.08,0.006474960312451818,0.00796405173813259,75.54636208292115,63.69990268070424,0.12700814065472596,12.791826678035868,0.006013323336805022,0.004865318558536053,0.011646954560007236,0.004478738342707896,-596.5419330697084,3590.828808539835,613.7743143949854,433.5294973483704,3429.462250532497,-79.21363671571086,Vision,Movement,2
0.081,0.006474936548697296,0.007961483140203252,75.54636208292115,63.69990268070424,0.12753784364179763,12.790583312807012,0.005923784178786753,0.004846846988546236,0.01109900451281553,0.004578271897135967,-596.5497605296227,3590.8524738405,613.8005240491105,433.32710012242393,3429.5779367644036,-78.89360391723322,Vision,Movement,2
0.082,0.006474916341745056,0.007959006100117884,75.54636208292115,63.69990268070424,0.1280685904860312,12.789318546014808,0.005828714577774671,0.004828929593015373,0.010568786094635777,0.004691212073673309,-596.5575879895371,3590.8761391411654,613.8267337032357,433.1247028964775,3429.6936229963103,-78.57357111875557,Vision,Movement,2
0.083,0.00647489937976728,0.007956623067822704,75.54636208292115,63.69990268070424,0.1286003766883618,12.78803228733582,0.005728955125474945,0.004811570694770887,0.010062281899488634,0.004817115427213809,-596.5654154494514,3590.899804441831,613.852943357361,432.92230567053105,3429.8093092282165,-78.25353832027793,Vision,Movement,2
0.084,0.006474885360227741,0.007954335927244585,75.54636208292115,63.69990268070424,0.12913319772631102,12.78672444659742,0.005625399116890877,0.004794706047224881,0.009584936048239786,0.004955348146369835,-596.5732429093657,3590.9234697424963,613.8791530114862,432.7199084445846,3429.9249954601232,-77.93350552180027,Vision,Movement,2
0.085,0.006474873990147211,0.007952146266757023,75.54636208292115,63.69990268070424,0.12966704905689994,12.785394933775954,0.005518983066855351,0.004778207035800845,0.009141570449641765,0.005105089030319124,-596.5810703692802,3590.9471350431613,613.9053626656114,432.51751121863816,3430.0406816920295,-77.61347272332262,Vision,Movement,2
0.08600000000000001,0.006474864986322871,0.007950055282501135,75.54636208292115,63.69990268070424,0.13020192611485895,12.784043659000561,0.005410676160201125,0.00476188713346859,0.008736313352805985,0.005265334786049149,-596.5888978291945,3590.970800343827,613.9315723197367,432.3151139926917,3430.156367923936,-77.29343992484498,Vision,Movement,2
0.08700000000000001,0.006474858075505538,0.007948063715597843,75.54636208292115,63.69990268070424,0.13073782431320255,12.782670532556974,0.005301469005782854,0.004745510436971564,0.00837254154440045,0.005434907971292525,-596.5967252891088,3590.9944656444923,613.9577819738619,432.1127167667452,3430.272054155843,-76.97340712636732,Vision,Movement,2
0.088,0.0064748529945415625,0.007946171527248967,75.54636208292115,63.69990268070424,0.13127473904333875,12.781275464885399,0.005192362071526288,0.004728802058329221,0.008052837298252994,0.005612467822828282,-596.6045527490231,3591.0181309451577,613.983991627987,431.9103195407988,3430.387740387749,-76.65337432788968,Vision,Movement,2
0.089,0.006474849490480742,0.007944378136626727,75.54636208292115,63.69990268070424,0.1318126656756117,12.779858366590464,0.0050843541066344245,0.004711460110324185,0.007778960885737386,0.005796524058161483,-596.6123802089375,3591.0417962458228,614.0102012821122,431.70792231485234,3430.503426619656,-76.33334152941202,Vision,Movement,2
0.09,0.006474847320656139,0.007942682270527343,75.54636208292115,63.69990268070424,0.13235159955754053,12.778419148439006,0.004978430832678703,0.0046931689822900646,0.007551839109170875,0.00598545360677376,-596.6202076688519,3591.065461546488,614.0364109362375,431.5055250889059,3430.619112851562,-76.01330873093438,Vision,Movement,2
0.091,0.0064748462527395795,0.007941081892635723,75.54636208292115,63.69990268070424,0.13289153601676046,12.776957721363937,0.004875554240038501,0.004673613540741755,0.007371569989330181,0.006177520120131905,-596.6280351287662,3591.0891268471537,614.0626205903627,431.30312786295946,3430.7347990834687,-75.69327593245673,Vision,Movement,2
0.092,0.006474846064775965,0.007939574532672562,75.54636208292115,63.69990268070424,0.13343247035921557,12.775473996466953,0.0047766528802632305,0.004652493822986308,0.007237443381039987,0.006370896026581364,-596.6358625886805,3591.112792147819,614.0888302444879,431.100730637013,3430.8504853153754,-75.37324313397909,Vision,Movement,2
0.093,0.006474846545200581,0.007938157502342447,75.54636208292115,63.69990268070424,0.13397439786975077,12.773967885022422,0.004682613494183082,0.00462953973557705,0.007147976921595892,0.006563686798924173,-596.6436900485949,3591.136457448484,614.1150398986132,430.8983334110666,3430.9661715472816,-75.05321033550143,Vision,Movement,2
0.094,0.006474847492842104,0.007936827833065508,75.54636208292115,63.69990268070424,0.1345173138126555,12.772439298474806,0.004594274177112705,0.004604525230667738,0.007100966333205148,0.006753956987348599,-596.6515175085092,3591.1601227491497,614.1412495527384,430.6959361851201,3431.0818577791883,-74.73317753702378,Vision,Movement,2
0.095,0.006474848716916596,0.007935582495322306,75.54636208292115,63.69990268070424,0.13506121342989302,12.770888148449284,0.004512419114514342,0.0045772814088077115,0.0070935487336022595,0.006939757445847751,-596.6552066963426,3591.171123210622,614.1603144712824,430.4935389591737,3431.1975440110946,-74.41314473854614,Vision,Movement,2
0.096,0.00647485003701212,0.007934418674383022,75.54636208292115,63.69990268070424,0.1356060919440636,12.769314346749102,0.0044377747677938695,0.004547707980724684,0.007122277266209695,0.007119153107555491,-596.6525378053615,3591.16266529812,614.1684021531817,430.28422654417636,3431.3084984511697,-74.09753052133183,Vision,Movement,2
0.097,0.0064748512830710364,0.007933334039773298,75.54636208292115,63.69990268070424,0.1361519445565832,12.767717805360869,0.0043710072608533395,0.004515782525921897,0.007183205035817073,0.007290250686969384,-596.6498689143804,3591.1542073856176,614.176489835081,430.0690328231623,3431.4154285449013,-73.7856742676929,Vision,Movement,2
0.098,0.0064748522953695,0.007932326538412098,75.54636208292115,63.69990268070424,0.13669876644826945,12.766098436451665,0.004312720608394576,0.004481567049499354,0.0072719760129241785,0.00745122584017198,-596.6472000233993,3591.1457494731158,614.1845775169803,429.8538391021482,3431.522358638633,-73.47381801405396,Vision,Movement,2
0.099,0.006474852924498169,0.007931394113245852,75.54636208292115,63.69990268070424,0.13724655277944503,12.764456152380154,0.004263455373463845,0.004445211492624042,0.007383920309382132,0.007600349508418499,-596.644531132418,3591.1372915606134,614.1926651988797,429.6386453811341,3431.629288732365,-73.16196176041502,Vision,Movement,2
0.1,0.00647485303134749,0.007930534804261745,75.54636208292115,63.69990268070424,0.13779529869005197,12.762790865693539,0.004223687363503883,0.004406954072528215,0.007514151177903376,0.007736013336320028,-596.6418622414369,3591.128833648111,614.200752880779,429.42345166012,3431.7362188260963,-72.85010550677609,Vision,Movement,2
0.101,0.006474852487097809,0.007929746758673856,75.54636208292115,63.69990268070424,0.13834499930019895,12.761102489131664,0.004193826049744438,0.004367118556985261,0.007657661372774766,0.00785675411818241,-596.6391933504558,3591.1203757356093,614.2088405626783,429.20825793910586,3431.843148919828,-72.53824925313715,Vision,Movement,2
0.10200000000000001,0.006474851173217854,0.007929027978018779,75.54636208292115,63.69990268070424,0.1388956497083768,12.759390935629678,0.0041742124653508725,0.0043261087586232445,0.00780941707145173,0.007961277163197484,-596.6365244594747,3591.111917823107,614.2169282445776,428.9930642180918,3431.9500790135594,-72.22639299949822,Vision,Movement,2
0.10300000000000001,0.00647484898147424,0.00792837630278053,75.54636208292115,63.69990268070424,0.1394472449944504,12.757656118322085,0.004165116395481421,0.004284400639154953,0.007964448117122016,0.008048478266438702,-596.6338555684936,3591.1034599106047,614.2250159264769,428.7778704970777,3432.0570091072914,-71.91453674585928,Vision,Movement,2
0.10400000000000001,0.006474845813951353,0.00792778947407302,75.54636208292115,63.69990268070424,0.13999978021783044,12.755897950539392,0.004166732780168139,0.0042425324640510235,0.008117933668307669,0.008117463723176796,-596.6311866775125,3591.0950019981024,614.2331036083763,428.5626767760636,3432.163939201023,-71.60268049222034,Vision,Movement,2
0.105,0.0064748415830865455,0.007927265102131027,75.54636208292115,63.69990268070424,0.140553250418511,12.754116345819886,0.004179177430524423,0.004201093476818864,0.008265282407988876,0.008167567670187649,-596.6285177865313,3591.0865440856005,614.2411912902755,428.3474830550495,3432.2708692947544,-71.29082423858141,Vision,Movement,2
0.106,0.0064748362117193255,0.007926800829265914,75.54636208292115,63.69990268070424,0.14110765061527683,12.752311217906131,0.00420248233126229,0.004160711584311867,0.008402206390042624,0.00819836606315407,-596.6258488955502,3591.078086173098,614.2492789721749,428.1322893340354,3432.3777993884864,-70.97896798494247,Vision,Movement,2
0.107,0.006474829633157252,0.00792639455878278,75.54636208292115,63.69990268070424,0.14166297580871154,12.750482480749172,0.0042365908641060586,0.004122040531239714,0.008524787478293584,0.008209686739910656,-596.6231800045691,3591.069628260596,614.2573666540742,427.91709561302133,3432.484729482218,-70.66711173130355,Vision,Movement,2
0.108,0.006474821791260612,0.007926044352784387,75.54636208292115,63.69990268070424,0.142219220979347,12.74863004851266,0.004281353230544288,0.004085746978152698,0.008629535281579094,0.008201615150276892,-596.620511113588,3591.061170348094,614.2654543359736,427.70190189200724,3432.5916595759495,-70.3552554776646,Vision,Movement,2
0.109,0.0064748126405443154,0.007925748000868116,75.54636208292115,63.69990268070424,0.1427763810882594,12.7467538355691,0.0043365222649088585,0.004052497801460197,0.008713435564223226,0.008174495352193065,-596.6178422226069,3591.0527124355917,614.2735420178728,427.48670817099315,3432.6985896696815,-70.04339922402568,Vision,Movement,2
0.11,0.0064748021463004795,0.007925502797820788,75.54636208292115,63.69990268070424,0.14333445107717416,12.744853756512212,0.004401749789371745,0.004022947853173264,0.008773988303368218,0.008128925813036932,-596.6151733316258,3591.0442545230894,614.2816296997721,427.271514449979,3432.805519763413,-69.73154297038673,Vision,Movement,2
0.111,0.006474790284741412,0.007925305790762694,75.54636208292115,63.69990268070424,0.14389342586858378,12.74292972615299,0.004476583688430827,0.003997728359599763,0.00880923480924793,0.008065749564990636,-596.6125044406447,3591.035796610587,614.2897173816715,427.0563207289649,3432.9124498571446,-69.4196867167478,Vision,Movement,2
0.112,0.0064747770431629915,0.007925153926979676,75.54636208292115,63.69990268070424,0.14445330036629794,12.740981659523985,0.00456046593625396,0.003977436087116015,0.008817773544452661,0.007986038503597923,-596.6098355496636,3591.0273386980853,614.2978050635708,426.84112700795083,3433.019379950876,-69.10783046310885,Vision,Movement,2
0.113,0.006474762420129267,0.00792504412894653,75.54636208292115,63.69990268070424,0.14501406945363857,12.739009471881943,0.0046527318484786044,0.003962623359262655,0.008798764443612328,0.007891072087013892,-596.6071666586824,3591.018880785583,614.3058927454701,426.6003187302659,3433.0593602847375,-68.7867586932643,Vision,Movement,2
0.114,0.006474746425679616,0.007924973435958986,75.54636208292115,63.69990268070424,0.14557572799647356,12.737013078712032,0.004752610815825916,0.003953788989537719,0.008751921678104962,0.007782311204255752,-596.6044977677012,3591.0104228730806,614.3139804273694,426.35783852951994,3433.0949706484716,-68.46508540474966,Vision,Movement,2
0.115,0.006474729081555644,0.0079249392040805,75.54636208292115,63.69990268070424,0.14613827084136188,12.734992395723582,0.004859228694943408,0.003951370191215582,0.008677495071951707,0.007661368317211035,-596.6018288767201,3591.0019649605783,614.3220681092688,426.115358328774,3433.130581012206,-68.14341211623503,Vision,Movement,2
0.116,0.006474710421451462,0.007924938871348744,75.54636208292115,63.69990268070424,0.1467016928166019,12.732947338863196,0.00497161193461613,0.003955735498571056,0.00857624084180552,0.007529975070637042,-596.599159985739,3590.9935070480765,614.3301557911681,425.87287812802805,3433.166191375941,-67.82173882772038,Vision,Movement,2
0.117,0.006474690491282864,0.007924970042960465,75.54636208292115,63.69990268070424,0.14726598873041824,12.730877824310332,0.0050886934616909095,0.003967178667236275,0.00844938287624049,0.007389948472031079,-596.5964910947579,3590.985049135574,614.3382434730673,425.6303979272821,3433.2018017396754,-67.50006553920575,Vision,Movement,2
0.11800000000000001,0.00647466934947881,0.007925030600194624,75.54636208292115,63.69990268070424,0.14783115337401045,12.728783768483327,0.005209320372147549,0.003985913445100148,0.008298566151506558,0.007243156600619945,-596.5938222037768,3590.976591223072,614.3463311549667,425.38791772653616,3433.23741210341,-67.1783922506911,Vision,Movement,2
0.11900000000000001,0.0064746470672915075,0.00792511846488206,75.54636208292115,63.69990268070424,0.14839718151967474,12.726665088034819,0.005332263503478905,0.00401206906269533,0.008125803975859776,0.007091484675128195,-596.5911533127957,3590.96813331057,614.354418836866,425.1454375257902,3433.273022467144,-66.85671896217647,Vision,Movement,2
0.12,0.006474623729125987,0.007925231661017012,75.54636208292115,63.69990268070424,0.14896406792140837,12.724521699865305,0.0054562289574922535,0.004045686303229963,0.007933420670341706,0.006936802222933013,-596.5884844218145,3590.9596753980677,614.3625065187654,424.90295732504427,3433.3086328308787,-66.53504567366184,Vision,Movement,2
0.121,0.006474599432886691,0.007925368255950997,75.54636208292115,63.69990268070424,0.14953180731501609,12.722353521118345,0.0055798715870354655,0.004086714081761384,0.007723991204851341,0.006780932012846863,-596.5858155308334,3590.9512174855654,614.3705942006646,424.66047712429827,3433.3442431946132,-66.2133723851472,Vision,Movement,2
0.122,0.006474574290341449,0.007925526234323795,75.54636208292115,63.69990268070424,0.15010039441822873,12.720160469184982,0.005701810398325274,0.004135006593263086,0.007500279318163794,0.006625621326352934,-596.5831466398523,3590.942759573063,614.378681882564,424.4179969235523,3433.379853558348,-65.89169909663255,Vision,Movement,2
0.123,0.006474548427499659,0.007925703754275605,75.54636208292115,63.69990268070424,0.15066982393125689,12.717942461706386,0.005820645752189908,0.004190321253272336,0.007265175663700406,0.006472516021472109,-596.5804777488712,3590.9343016605612,614.3867695644633,424.1755167228064,3433.4154639220824,-65.57002580811792,Vision,Movement,2
0.124,0.006474521985003673,0.00792589908635425,75.54636208292115,63.69990268070424,0.15124009053496587,12.715699416578182,0.0059349781534069005,0.004252317786814644,0.0070216374316057996,0.006323137727273154,-596.5778088578901,3590.925843748059,614.3948572463627,423.93303652206043,3433.4510742858165,-65.24835251960327,Vision,Movement,2
0.125,0.006474495118531682,0.007926110443399326,75.54636208292115,63.69990268070424,0.15181118889396206,12.713431251945352,0.006043428300348937,0.004320558866492173,0.006772630678143968,0.006178864420363634,-596.575139966909,3590.9173858355566,614.402944928262,423.6905563213145,3433.486684649551,-64.92667923108864,Vision,Movement,2
0.126,0.006474467999209489,0.007926335744753099,75.54636208292115,63.69990268070424,0.15238311365514498,12.71113788621653,0.006144657944585201,0.004394512647939768,0.006521076337424508,0.006040914570161908,-596.5724710759279,3590.9089279230548,614.4110326101612,423.44807612056854,3433.5222950132857,-64.605005942574,Vision,Movement,2
0.127,0.00647444081402851,0.007926573143551387,75.54636208292115,63.69990268070424,0.15295585944638188,12.708819238058656,0.00623739103627392,0.004473557440895409,0.00626980066235106,0.0059103349404771586,-596.5698021849468,3590.9004700105525,614.4191202920606,423.2055959198226,3433.5579053770202,-64.28333265405936,Vision,Movement,2
0.128,0.006474413766268054,0.007926821146656878,75.54636208292115,63.69990268070424,0.15352942087958796,12.706475226401555,0.00632043463451165,0.004556988631297362,0.006021490694202081,0.005787992002652147,-596.5654631411803,3590.8861755827984,614.4325977885828,422.96311571907665,3433.593515740755,-63.961659365544726,Vision,Movement,2
0.129,0.006474387075918713,0.007927078572997572,75.54636208292115,63.69990268070424,0.15410379254882556,12.704105770442377,0.00639269913966904,0.004644027867398496,0.00577865525552208,0.005674566792457452,-596.5593711970015,3590.8657554699676,614.4517321377948,422.71601154771525,3433.608759343935,-63.636425437936374,Vision,Movement,2
0.13,0.00647436098010285,0.00792734439723893,75.54636208292115,63.69990268070424,0.15467896903091452,12.701710789640051,0.0064532175197382,0.004733834447893368,0.00554359189146787,0.005570553020013386,-596.5532792528227,3590.8453353571367,614.4708664870069,422.45981268570335,3433.5839444341627,-63.30418824111013,Vision,Movement,2
0.131,0.006474335733490703,0.007927617857249245,75.54636208292115,63.69990268070424,0.15525494488553787,12.699290203730186,0.006501163305768002,0.004825518774672606,0.0053183601180759885,0.005476258321790866,-596.5471873086439,3590.824915244306,614.4900008362189,422.20361382369146,3433.5591295243908,-62.9719510442839,Vision,Movement,2
0.132,0.006474311608705373,0.007927898424119229,75.54636208292115,63.69990268070424,0.15583171465534762,12.696843932719254,0.00653586720137679,0.0049181576517663425,0.005104761232358482,0.005391808624760086,-596.541095364465,3590.804495131475,614.509135185431,421.94741496167956,3433.5343146146183,-62.63971384745766,Vision,Movement,2
0.133,0.006474288896716627,0.007928185520331177,75.54636208292115,63.69990268070424,0.15640927286608616,12.694371896889216,0.006556832148877933,0.005010811122076143,0.004904324825123415,0.00531715558812711,-596.5350034202862,3590.7840750186447,614.528269534643,421.69121609966766,3433.509499704846,-62.30747665063142,Vision,Movement,2
0.134,0.006474267907215503,0.007928478773865698,75.54636208292115,63.69990268070424,0.15698761402713893,12.691874016800098,0.006563746599689027,0.005102540431346014,0.00471830200481138,0.005252086976241063,-596.5289114761074,3590.763654905814,614.547403883855,421.43501723765576,3433.484684795074,-61.97523945380518,Vision,Movement,2
0.135,0.006474248968967615,0.007928777789799966,75.54636208292115,63.69990268070424,0.1575667326296931,12.689350213294459,0.006556495584074471,0.005192426591193303,0.0045476652178239535,0.005196239672646332,-596.5228195319286,3590.743234792983,614.566538233067,421.17881837564386,3433.4598698853015,-61.643002256978946,Vision,Movement,2
0.136,0.0064742324301395645,0.007929082065431699,75.54636208292115,63.69990268070424,0.15814662314985792,12.68680040749136,0.0065351690445370186,0.005279588892619681,0.004393114425336806,0.0051491149383141675,-596.5167275877498,3590.722814680152,614.5856725822791,420.92261951363196,3433.435054975529,-61.310765060152704,Vision,Movement,2
0.137,0.006474218658592865,0.007929391053386347,75.54636208292115,63.69990268070424,0.1587272800471924,12.684224520801997,0.006500066844811512,0.005363202618176584,0.00425508926620768,0.005110095472229314,-596.5106356435709,3590.7023945673213,614.6048069314912,420.66642065162006,3433.410240065757,-60.97852786332647,Vision,Movement,2
0.138,0.006474208042141245,0.007929703843285328,75.54636208292115,63.69990268070424,0.15930869776336962,12.681622474923337,0.006451699883982323,0.005442515157045022,0.004133786686803244,0.005078463815974934,-596.5045436993921,3590.6819744544905,614.6239412807032,420.41022178960816,3433.3854251559846,-60.646290666500235,Vision,Movement,2
0.139,0.0064742009887635964,0.007930019493019797,75.54636208292115,63.69990268070424,0.1598908707252893,12.678994191842888,0.00639078681362395,0.005516859762672418,0.004029183383664847,0.005053421626168215,-596.4984517552133,3590.66155434166,614.6430756299153,420.15402292759626,3433.360610246212,-60.31405346967399,Vision,Movement,2
0.14,0.006474197926768991,0.00793033714084889,75.54636208292115,63.69990268070424,0.16047379334315112,12.676339593843261,0.0063182460116590474,0.005585666334423353,0.003941062292025218,0.005034109326588458,-596.4923598110345,3590.6411342288293,614.6622099791273,419.89782406558436,3433.33579533644,-59.98181627284776,Vision,Movement,2
0.14100000000000001,0.006474199304905227,0.007930655714557706,75.54636208292115,63.69990268070424,0.16105746001107238,12.673658603495666,0.0062351827250947504,0.005648468868244521,0.0038690422832030526,0.0050196256941528695,-596.4862678668557,3590.6207141159985,614.6813443283394,419.64162520357246,3433.310980426668,-59.64957907602152,Vision,Movement,2
0.14200000000000002,0.0064742055924052674,0.007930973954978018,75.54636208292115,63.69990268070424,0.16164186510720982,12.670951143676149,0.006142871580414328,0.005704909538064864,0.003812610181941098,0.0050090470322875945,-596.4801759226767,3590.6002940031676,614.7004786775514,419.38542634156056,3433.2861655168954,-59.31734187919528,Vision,Movement,2
0.14300000000000002,0.0064742172789646075,0.007931290386554575,75.54636208292115,63.69990268070424,0.16222700299429418,12.668217137558786,0.006042734864067641,0.0057547396247514294,0.003771154157643115,0.0050014456788298875,-596.4740839784979,3590.579873890337,614.7196130267635,419.12922747954866,3433.261350607123,-58.98510468236904,Vision,Movement,2
0.14400000000000002,0.006474234874642116,0.007931603487164093,75.54636208292115,63.69990268070424,0.16281286801734743,12.665456508620448,0.005936317094306343,0.005797817627460929,0.003743997516481035,0.004995907626379443,-596.4679920343191,3590.559453777506,614.7387473759754,418.87302861753676,3433.236535697351,-58.65286748554281,Vision,Movement,2
0.145,0.006474258909676517,0.007931911897407915,75.54636208292115,63.69990268070424,0.16339945450921656,12.662669180643327,0.0058252565213777535,0.005834104914926178,0.0037304319650339848,0.004991549008587011,-596.4619000901403,3590.5390336646756,614.7578817251875,418.6168297555249,3433.2117207875785,-58.32063028871658,Vision,Movement,2
0.146,0.0064742899342107646,0.007932214341484198,75.54636208292115,63.69990268070424,0.16398675678364893,12.659855077719552,0.005711254359760486,0.0058636592898084474,0.0037297495362569196,0.004987531173531007,-596.4558081459614,3590.5186135518447,614.7770160743995,418.38247146479955,3433.210575684495,-58.00648518184287,Vision,Movement,2
0.147,0.00647432851791573,0.007932509360672175,75.54636208292115,63.69990268070424,0.16457476914100286,12.657014124244128,0.0055960426875176494,0.005886626916674684,0.00374127250033038,0.004983074046255719,-596.4521456551314,3590.5049390527683,614.8265507723685,418.1559720314161,3433.2179476495603,-57.69885012235248,Vision,Movement,2
0.148,0.006474375249505792,0.007932795549725032,75.54636208292115,63.69990268070424,0.16516348586623583,12.654146244931951,0.005481351979516862,0.005903233183985342,0.003764380672677198,0.004977467475298443,-596.4485375755154,3590.4914156317254,614.8767663312741,417.92947259803276,3433.225319614626,-57.39121506286209,Vision,Movement,2
0.149,0.006474430736135256,0.007933071867410506,75.54636208292115,63.69990268070424,0.16575290122756087,12.651251364810486,0.005368879123105526,0.005913773177770351,0.0037985355801521256,0.004970080271359679,-596.4449294958995,3590.477892210682,614.9269818901798,417.70297316464934,3433.232691579692,-57.083580003371694,Vision,Movement,2
0.15,0.006474495602669061,0.00793333760809784,75.54636208292115,63.69990268070424,0.16634300947958555,12.648329409226871,0.005260256587921877,0.005918602456465069,0.0038433009735880995,0.004960366708898835,-596.4413214162835,3590.464368789639,614.9771974490855,417.4764737312659,3433.240063544758,-56.775944943881306,Vision,Movement,2
0.151,0.006474570490816009,0.007933592328823309,75.54636208292115,63.69990268070424,0.1669338048613638,12.645380303840524,0.005157023271812804,0.0059181287105838885,0.0038983591805542878,0.004947870394777019,-596.4377133366675,3590.450845368596,615.0274130079912,417.24997429788255,3433.247435509824,-56.46830988439091,Vision,Movement,2
0.152,0.006474656058116219,0.00793383575027338,75.54636208292115,63.69990268070424,0.16752528159701754,12.642403974640631,0.00506059746361803,0.005912804702855305,0.0039635227711946565,0.004932225591431996,-596.4341052570514,3590.4373219475533,615.0776285668968,417.0234748644991,3433.2548074748897,-56.16067482490052,Vision,Movement,2
0.153,0.006474752976772262,0.007934067756662456,75.54636208292115,63.69990268070424,0.16811743389585906,12.639400347938338,0.004972252360281939,0.00590312266722385,0.004038740996619851,0.004913156244969715,-596.4304971774354,3590.42379852651,615.1278441258025,416.7969754311157,3433.2621794399556,-55.85303976541013,Vision,Movement,2
0.154,0.00647486193231375,0.007934288535164032,75.54636208292115,63.69990268070424,0.16871025595292247,12.636369350371682,0.0048930946033675345,0.0058896101315416005,0.004124100505188055,0.004890473043910676,-596.4268890978195,3590.410275105467,615.1780596847083,416.5704759977323,3433.2695514050215,-55.545404705919736,Vision,Movement,2
0.155,0.0064749836220851925,0.007934498393008894,75.54636208292115,63.69990268070424,0.1693037419466693,12.63331090890806,0.0048240463095523285,0.005872826922860577,0.004219819993508594,0.004864068814547506,-596.4232810182035,3590.396751684424,615.2282752436139,416.3439765643489,3433.276923370087,-55.23776964642934,Vision,Movement,2
0.156,0.006475118753546008,0.007934697570066106,75.54636208292115,63.69990268070424,0.16989788604455922,12.630224950848937,0.004765831017939241,0.005853362914280662,0.0043262386971510015,0.004833912509237641,-596.4196729385875,3590.383228263381,615.2784908025196,416.1174771309655,3433.284295335153,-54.930134586938955,Vision,Movement,2
0.157,0.006475268042372031,0.007934885937363611,75.54636208292115,63.69990268070424,0.17049268239606538,12.627111403821896,0.0047189638627845405,0.005831835898453969,0.004443798920644365,0.0048000420418876834,-596.4160648589715,3590.369704842338,615.3287063614252,415.89097769758206,3433.2916673002187,-54.62249952744856,Vision,Movement,2
0.158,0.006475432210347634,0.007935063424852982,75.54636208292115,63.69990268070424,0.1710881251384366,12.623970195798883,0.004683746114274668,0.0058088888650729515,0.004573023077833379,0.004762556287618035,-596.4124567793555,3590.356181421295,615.378921920331,415.66447826419864,3433.2990392652846,-54.31486446795817,Vision,Movement,2
0.159,0.0064756119830372645,0.007935230418787107,75.54636208292115,63.69990268070424,0.17168420839465778,12.620801255087803,0.00466026407533332,0.005785185964039174,0.00471448594800871,0.004721606630946582,-596.4088486997395,3590.342658000252,615.4291374792366,415.43797883081527,3433.3064112303505,-54.00722940846778,Vision,Movement,2
0.16,0.006475808087224712,0.0079353871099043,75.54636208292115,63.69990268070424,0.17228092627209957,12.617604510337648,0.004648392199490884,0.0057614065482898555,0.004868783066186847,0.004677388461790324,-596.4052406201235,3590.329134579209,615.4793530381423,415.21147939743184,3433.3137831954164,-53.699594348977385,Vision,Movement,2
0.161,0.0064760212481094715,0.00793553353125052,75.54636208292115,63.69990268070424,0.1728782728656805,12.61437989054325,0.0046478002231943065,0.005738236875519737,0.005036496371131306,0.004630132982883033,-596.40053904961,3590.3128671023596,615.5358610988249,414.9849799640484,3433.3211551604822,-53.39195928948699,Vision,Movement,2
0.162,0.006476252186248837,0.00793567010352583,75.54636208292115,63.69990268070424,0.17347624225589806,12.611127325036843,0.004657964059113704,0.005716359266826605,0.005218158363970985,0.004580099654500227,-596.3950507246539,3590.2946253081186,615.5968965439964,414.76662400967956,3433.34413680758,-53.09149609312223,Vision,Movement,2
0.163,0.00647650161423341,0.007935797374064139,75.54636208292115,63.69990268070424,0.1740748285094541,12.60784674350698,0.004678180153374803,0.005696438755726597,0.005414216024678622,0.004527569575714173,-596.3895623996978,3590.2763835138776,615.657931989168,414.60102549406923,3433.4682456071387,-52.837495732722296,Vision,Movement,2
0.164,0.006476770233086323,0.007935915474707783,75.54636208292115,63.69990268070424,0.17467402567937768,12.604538075989602,0.0047075829665108315,0.005679107520165596,0.005624995614561988,0.0044728400479118035,-596.3840740747415,3590.2581417196366,615.7189674343396,414.4354269784589,3433.592354406697,-52.58349537232236,Vision,Movement,2
0.165,0.006477058728373693,0.007936024317187543,75.54636208292115,63.69990268070424,0.17527382780557124,12.601201252873134,0.0047451652032368145,0.005664947675386058,0.005850669304608816,0.004416220469617992,-596.3785857497854,3590.2398999253955,615.7800028795111,414.2698284628485,3433.7164632062554,-52.329495011922425,Vision,Movement,2
0.166,0.006477367766016859,0.00793612420346926,75.54636208292115,63.69990268070424,0.1758742289129331,12.597836204900865,0.004789800400696924,0.005654473283342415,0.006091224400807046,0.00435802959371102,-596.3730974248292,3590.2216581311545,615.8410383246827,414.1042299472382,3433.8405720058136,-52.07549465152249,Vision,Movement,2
0.167,0.006477697987793788,0.007936215856401174,75.54636208292115,63.69990268070424,0.17647522301453059,12.594442863175768,0.004840267501160966,0.00564811262062056,0.006346435809473557,0.004298594090384539,-596.3676090998731,3590.2034163369135,615.9020737698543,413.93863143162787,3433.964680805372,-51.821494291122555,Vision,Movement,2
0.168,0.0064780500065213615,0.00793630011791696,75.54636208292115,63.69990268070424,0.1770768041096209,12.591021159151481,0.004895277084050782,0.005646191771879166,0.0066158422883563816,0.004238248325254999,-596.362120774917,3590.1851745426725,615.9631092150258,413.77303291601754,3434.0887896049303,-51.56749393072262,Vision,Movement,2
0.169,0.006478424400907192,0.007936377508709517,75.54636208292115,63.69990268070424,0.17767896618429885,12.587571024651966,0.00495349898835594,0.005648920490179415,0.006898726937074815,0.004177335266090187,-596.3566324499608,3590.1669327484315,616.0241446601974,413.6074344004072,3434.2128984044884,-51.313493570322684,Vision,Movement,2
0.17,0.0064788217100615565,0.007936448583256518,75.54636208292115,63.69990268070424,0.17828170321204206,12.584092391861997,0.0050135910620049805,0.005656381064773512,0.007194102340762898,0.004116208421807507,-596.3511441250047,3590.1486909541904,616.085180105369,413.4418358847969,3434.337007204047,-51.05949320992274,Vision,Movement,2
0.171,0.006479242427661158,0.007936514205710864,75.54636208292115,63.69990268070424,0.17888500915182845,12.58058519333245,0.005074228708025196,0.005668520725010503,0.0075007007862630485,0.004055234659653576,-596.3456558000486,3590.1304491599494,616.1462155505405,413.2762373691865,3434.461116003605,-50.80549284952281,Vision,Movement,2
0.17200000000000001,0.00647968699575569,0.007936575426688078,75.54636208292115,63.69990268070424,0.1794888779513176,12.577049361985148,0.005134134787245317,0.005685147915899166,0.007816969997681335,0.003994797629427829,-596.3401674750924,3590.112207365709,616.2072509957121,413.1106388535762,3434.585224803164,-50.55149248912287,Vision,Movement,2
0.17300000000000001,0.006480155798209724,0.007936633402993078,75.54636208292115,63.69990268070424,0.18009330354486353,12.57348483110341,0.0051921093283439365,0.005705932618094742,0.00814107481160437,0.003935301383100979,-596.3346791501363,3590.093965571468,616.2682864408837,412.94504033796585,3434.709333602722,-50.297492128722936,Vision,Movement,2
0.17400000000000002,0.006480649153772921,0.007936689529668417,75.54636208292115,63.69990268070424,0.18069827985414286,12.569891534352337,0.005247058425015002,0.005730410753796706,0.00847090515371656,0.0038771736624149513,-596.3291908251801,3590.075723777227,616.3293218860553,412.7794418223555,3434.8334424022805,-50.043491768323,Vision,Movement,2
0.17500000000000002,0.0064811673087726545,0.007936745453106643,75.54636208292115,63.69990268070424,0.18130380078827762,12.566269405768718,0.005298021663150503,0.005757992597162529,0.008804090660310652,0.003820868264499138,-596.3237025002239,3590.057481982986,616.3903573312267,412.6138433067452,3434.9575512018387,-49.789491407923066,Vision,Movement,2
0.176,0.00648171042942484,0.007936802835089372,75.54636208292115,63.69990268070424,0.1819098602443773,12.562618379766343,0.005344197407625522,0.005787974962149157,0.009138022246315729,0.003766865891905379,-596.3182141752678,3590.0392401887448,616.4513927763983,412.44824479113487,3435.081660001397,-49.53549104752314,Vision,Movement,2
0.177,0.006482278593757396,0.007936863505975736,75.54636208292115,63.69990268070424,0.18251645210565334,12.558938391138273,0.005384965261770382,0.005819556752809632,0.009469880799649947,0.003715672933181628,-596.3113338363833,3590.0166839915996,616.5111782571942,412.2826462755245,3435.2057688009554,-49.2814906871232,Vision,Movement,2
0.178,0.006482871783145607,0.007936929159609018,75.54636208292115,63.69990268070424,0.18312357024460735,12.55522937506173,0.005419904966822649,0.005851857237621283,0.009796672919064308,0.003667817727822285,-596.2950039190134,3589.964839805286,616.5624784518651,412.11704775991416,3435.3298776005136,-49.02749032672327,Vision,Movement,2
0.179,0.006483489873457305,0.007937001278327199,75.54636208292115,63.69990268070424,0.18373120852103625,12.551491267088018,0.0054488109236897125,0.0058839361887282485,0.010115273265746226,0.003623844083642337,-596.2786740016435,3589.9129956189718,616.613778646536,411.9793011195305,3435.4954019858037,-48.80857015644399,Vision,Movement,2
0.18,0.006484132625807954,0.007937080914866099,75.54636208292115,63.69990268070424,0.1843393607826841,12.547724003163642,0.005471701446650994,0.005914814888276229,0.010422472719451719,0.0035843021311055615,-596.2623440842736,3589.861151432658,616.665078841207,411.8660511491067,3435.697352784993,-48.62050420450808,Vision,Movement,2
0.181,0.006484799676928457,0.007937168753258258,75.54636208292115,63.69990268070424,0.18494802086578213,12.543927519619709,0.005488821896168949,0.005943497024483732,0.010715031191598636,0.003549736926112251,-596.2460141669037,3589.809307246344,616.7163790358779,411.75280117868294,3435.8993035841822,-48.432438252572176,Vision,Movement,2
0.182,0.006485490529148557,0.007937265302074996,75.54636208292115,63.69990268070424,0.1855571825931596,12.540101753180057,0.00550064108513824,0.005968988712536054,0.010989733684867942,0.0035206754464088596,-596.2296842495338,3589.75746306003,616.7676792305489,411.63955120825915,3436.1012543833717,-48.244372300636265,Vision,Movement,2
0.183,0.006486204540001949,0.007937370880647181,75.54636208292115,63.69990268070424,0.18616683977743895,12.536246640950836,0.005507840794256024,0.005990317216490805,0.011243448100746792,0.0034976127167749616,-596.2133543321639,3589.705618873716,616.8189794252198,411.52630123783536,3436.3032051825608,-48.05630634870036,Vision,Movement,2
0.184,0.0064869409114612,0.007937485368283112,75.54636208292115,63.69990268070424,0.18677698621903388,12.532362120442071,0.005511298710844702,0.006006548276485312,0.011473183312212438,0.0034809977746438473,-596.197024414794,3589.6537746874023,616.8702796198908,411.41305126741156,3436.5051559817502,-47.868240396764456,Vision,Movement,2
0.185,0.006487698678811167,0.007937608193048142,75.54636208292115,63.69990268070424,0.18738761570677887,12.528448129556581,0.005512065447611322,0.006016802141741439,0.011676146033861705,0.0034712201013428023,-596.1806944974242,3589.601930501088,616.9215798145617,411.29980129698777,3436.7071067809393,-47.680174444828545,Vision,Movement,2
0.186,0.006488476699176196,0.007937738425643126,75.54636208292115,63.69990268070424,0.18799872201805212,12.524504606595338,0.0055113364613215005,0.006020268449714414,0.011849794975177774,0.0034685970447750573,-596.1643645800542,3589.5500863147745,616.9728800092327,411.186551326564,3436.909057580129,-47.49210849289264,Vision,Movement,2
0.187,0.006489273639713848,0.00793787472126826,75.54636208292115,63.69990268070424,0.18861029891931258,12.52053149025972,0.005510419766875076,0.006016220032801371,0.011991890843382398,0.003473362670568439,-596.1480346626844,3589.4982421284603,617.0241802039036,411.0733013561402,3437.111008379318,-47.304042540956736,Vision,Movement,2
0.188,0.006490087965500778,0.007938015641077118,75.54636208292115,63.69990268070424,0.18922234016420791,12.516528719656408,0.0055107004191333195,0.0060040256399391,0.012100541084196177,0.003485658405857108,-596.1317047453144,3589.4463979421466,617.0754803985745,410.9600513857164,3437.3129591785073,-47.115976589020825,Vision,Movement,2
0.189,0.006490917927157659,0.007938159643485201,75.54636208292115,63.69990268070424,0.18983483949677593,12.512496234286383,0.005513602824178851,0.005983161481270961,0.012174238695970112,0.0035055257739284966,-596.1153748279446,3589.3945537558325,617.1267805932455,410.8468014152926,3437.5149099776963,-46.92791063708492,Vision,Movement,2
0.19,0.006491761548420556,0.007938305352106762,75.54636208292115,63.69990268070424,0.19044779064945908,12.508433974067279,0.005520552002480384,0.005953221471303524,0.012211894733111739,0.0035329014560181835,-596.0990449105747,3589.342709569519,617.1780807879164,410.73355144486885,3437.716860776886,-46.73984468514901,Vision,Movement,2
0.191,0.006492616614557018,0.00793845155264842,75.54636208292115,63.69990268070424,0.19106118734417304,12.50434187932162,0.005532934926147633,0.005913926052684857,0.012212864072364167,0.0035676148595098368,-596.0827149932048,3589.2908653832046,617.2293809825874,410.62030147444506,3437.918811576075,-46.551778733213105,Vision,Movement,2
0.192,0.006493480666580254,0.00793859707176412,75.54636208292115,63.69990268070424,0.19167502329041294,12.500219890782462,0.005552062996238423,0.005865129497519706,0.01217696375021729,0.003609388303524537,-596.0663850758349,3589.239021196891,617.2806811772583,410.50705150402126,3438.1207623752643,-46.3637127812772,Vision,Movement,2
0.193,0.006494351033520986,0.007938740731438703,75.54636208292115,63.69990268070424,0.19228929218845803,12.496067949598364,0.005579136639935598,0.005806825581821628,0.012104482988219692,0.0036578398365020837,-596.050055158465,3589.1871770105768,617.3319813719293,410.39380153359747,3438.3227131744534,-46.17564682934129,Vision,Movement,2
0.194,0.006495225045584397,0.007938881206820349,75.54636208292115,63.69990268070424,0.19290398772735823,12.491885997321821,0.005615212903714013,0.005739151511581063,0.011996184143642178,0.0037124885811951214,-596.0268486817856,3589.113328697395,617.3638811202945,410.2805515631737,3438.524663973643,-45.987580877405385,Vision,Movement,2
0.195,0.006496100949059043,0.007939017010145454,75.54636208292115,63.69990268070424,0.19351910358556476,12.48767397593233,0.0056611767937327796,0.005662389939657302,0.011853294274126633,0.0037727623888933375,-596.0003346369106,3589.0288965810464,617.3864494143247,410.1673015927499,3438.726614772832,-45.79951492546948,Vision,Movement,2
0.196,0.006496978377134775,0.007939146713276848,75.54636208292115,63.69990268070424,0.19413463343102758,12.483431827824036,0.005717716960188737,0.005576968859633016,0.011677487538043181,0.0038380075063240834,-595.9738205920356,3588.944464464698,617.4090177083549,410.0540516223261,3438.9285655720214,-45.61144897353357,Vision,Movement,2
0.197,0.006497857436610708,0.00793926899285997,75.54636208292115,63.69990268070424,0.1947505709213174,12.479159495811297,0.005785306146071486,0.005483459127569961,0.01147085900873147,0.003907499920983163,-595.9473065471607,3588.8600323483493,617.4315860023852,409.9408016519023,3439.1305163712104,-45.423383021597665,Vision,Movement,2
0.198,0.006498738073748537,0.007939382949877474,75.54636208292115,63.69990268070424,0.19536690970415735,12.474856923130798,0.005864186648602097,0.00538256940465399,0.011235890632549692,0.003980458056323588,-595.9207925022857,3588.775600232,617.4541542964154,409.8026096700609,3439.349130156061,-45.22321384710174,Vision,Movement,2
0.199,0.006499620106934666,0.007939488035176105,75.54636208292115,63.69990268070424,0.19598364341552824,12.470524053446535,0.005954360912181153,0.005275138461356099,0.010975410229426824,0.004056056513846486,-595.8942784574107,3588.6911681156516,617.4767225904455,409.6601934860591,3439.5705659996,-45.02099485962037,Vision,Movement,2
0.2,0.006500503862030065,0.007939583894423176,75.54636208292115,63.69990268070424,0.19660076568287727,12.46616083083767,0.006055587310525327,0.0051621249905246264,0.01069254474868352,0.004133440580263542,-595.8677644125357,3588.606735999303,617.4992908844757,409.51777730205725,3439.792001843139,-44.81877587213901,Vision,Movement,2
0.201,0.006501390110949419,0.007939670231333964,75.54636208292115,63.69990268070424,0.1972182701231242,12.46176719982235,0.006167381152226908,0.005044595258057227,0.010390669317451393,0.004211741225504019,-595.8412503676608,3588.522303882954,617.5218591785059,409.3753611180554,3440.013437686678,-44.61655688465764,Vision,Movement,2
0.202,0.006502279420316385,0.007939746611172232,75.54636208292115,63.69990268070424,0.19783615034372565,12.457343105344904,0.0062890209031568845,0.004923708997499342,0.010073353702783276,0.004290090333967442,-595.8147363227858,3588.4378717666054,617.5444274725362,409.2329449340536,3440.234873530217,-44.41433789717627,Vision,Movement,2
0.203,0.0065031719935583834,0.007939812237858218,75.54636208292115,63.69990268070424,0.19845439994078015,12.452888492784588,0.006419559502605169,0.004800703951500944,0.009744307631883725,0.004367635942405574,-595.7882222779108,3588.353439650257,617.5669957665664,409.0905287500517,3440.456309373756,-44.2121189096949,Vision,Movement,2
0.20400000000000001,0.006504067645112029,0.007939866112446422,75.54636208292115,63.69990268070424,0.1990730125022392,12.448403307943044,0.006557840474033251,0.00467687942917671,0.009407326092136101,0.004443557300025496,-595.7617082330358,3588.2690075339083,617.5895640605966,408.9481125660499,3440.677745217295,-44.009899922213535,Vision,Movement,2
0.20500000000000002,0.006504965879124331,0.007939907113886977,75.54636208292115,63.69990268070424,0.19969198160588314,12.443887497068669,0.00670251832893637,0.004553579231357638,0.009066235453650349,0.004517079587011229,-595.7351941881609,3588.1845754175592,617.6121323546267,408.80569638204804,3440.899181060834,-43.80768093473217,Vision,Movement,2
0.20600000000000002,0.006505866378794234,0.007939935272115693,75.54636208292115,63.69990268070424,0.20031130081995374,12.439341006843149,0.006852082595315907,0.004432174261046797,0.008724841063901837,0.004587488125886097,-595.7086801432858,3588.1001433012107,617.6347006486569,408.6632801980462,3441.120616904373,-43.6054619472508,Vision,Movement,2
0.20700000000000002,0.006506769491477628,0.007939951582121355,75.54636208292115,63.69990268070424,0.2009309637032752,12.434763784387142,0.0070048847055446326,0.004314045066028011,0.008386876893026283,0.004654141905890866,-595.6821660984109,3588.015711184862,617.6572689426872,408.5208640140443,3441.342052747912,-43.403242959769436,Vision,Movement,2
0.20800000000000002,0.00650767604470786,0.007939956852116244,75.54636208292115,63.69990268070424,0.20155096380578133,12.43015577726228,0.007159167005931972,0.0042005644541253774,0.008055957778792203,0.004716486238290056,-595.655652053536,3587.9312790685135,617.6798372367174,408.3784478300425,3441.563488591451,-43.20102397228806,Vision,Movement,2
0.209,0.006508587404293743,0.007939951527444289,75.54636208292115,63.69990268070424,0.2021712946666198,12.42551693347622,0.007313093295727916,0.0040930802216343765,0.007735534788083795,0.0047740643504514705,-595.629138008661,3587.8468469521645,617.7024055307476,408.23603164604066,3441.78492443499,-42.9988049848067,Vision,Movement,2
0.21,0.006509504713280877,0.007939936137077469,75.54636208292115,63.69990268070424,0.2027919498173655,12.420847201469476,0.007464780491721984,0.003992897965698799,0.007428854133293825,0.004826527684387862,-595.6025403684723,3587.7623885453722,617.7206467906035,408.0936154620388,3442.006360278529,-42.79658599732534,Vision,Movement,2
0.211,0.006510428653948992,0.00793991143468996,75.54636208292115,63.69990268070424,0.20341292277999246,12.416146530140553,0.00761233112456069,0.0039012639208116616,0.007138920012478985,0.004873644585999176,-595.5756498541457,3587.677838030654,617.723728391988,407.95119927803694,3442.227796122068,-42.59436700984397,Vision,Movement,2
0.212,0.006511359387613553,0.007939878244914426,75.54636208292115,63.69990268070424,0.20403420706753278,12.411414868831834,0.0077538663586525095,0.003819347755217137,0.006868461717031699,0.004915306984035365,-595.548759339819,3587.5932875159356,617.7268099933724,407.8087830940351,3442.4492319656065,-42.392148022362605,Vision,Movement,2
0.213,0.006512296535869214,0.00793983734622862,75.54636208292115,63.69990268070424,0.2046557961846008,12.40665216733551,0.007887559080612882,0.0037482253136691354,0.00661990539389367,0.004951534599910082,-595.5218688254922,3587.5087370012175,617.7298915947567,407.6663669100333,3442.6706678091455,-42.18992903488123,Vision,Movement,2
0.214,0.006513239182239376,0.00793978903470035,75.54636208292115,63.69990268070424,0.20527768362549775,12.401858375898685,0.008011666393403243,0.00368886140221015,0.006395350875627694,0.004982476255406221,-595.4949783111655,3587.424186486499,617.7329731961412,407.51464439072885,3442.8632908505942,-41.985377568639784,Vision,Movement,2
0.215,0.00651418595118976,0.007939733506434486,75.54636208292115,63.69990268070424,0.20589986287742598,12.397033445209656,0.008124560694868206,0.0036420928526651776,0.0061965539874319535,0.005008407966391512,-595.4680877968387,3587.339635971781,617.7360547975256,407.3355165200044,3442.9710657814812,-41.77395740510542,Vision,Movement,2
0.216,0.006515135483000797,0.007939670972179708,75.54636208292115,63.69990268070424,0.2065223274184583,12.392177326423738,0.008224758516797805,0.0036086122362571894,0.006024914690258506,0.005029727671117658,-595.441197282512,3587.2550854570623,617.7391363989101,407.1563886492799,3443.078840712368,-41.56253724157105,Vision,Movement,2
0.217,0.006516087013953522,0.00793960139762281,75.54636208292115,63.69990268070424,0.2071450707181694,12.38728997114856,0.008310946478604649,0.0035889526837104193,0.005881471311020855,0.005046946559023957,-595.4143067681853,3587.170534942344,617.7422180002945,406.97726077855543,3443.1866156432548,-41.35111707803668,Vision,Movement,2
0.218,0.006517040366079661,0.007939524902541316,75.54636208292115,63.69990268070424,0.2077680862377586,12.38237133144987,0.00838200393315684,0.003583474315995375,0.005766900975740833,0.005060677014934921,-595.3874162538585,3587.0859844276256,617.745299601679,406.798132907831,3443.2943905741417,-41.13969691450231,Vision,Movement,2
0.219,0.0065179954454274835,0.007939442527391143,75.54636208292115,63.69990268070424,0.20839136743056907,12.377421359853418,0.00843702201485055,0.003592352789561249,0.005681526192807914,0.005071617228540714,-595.3605257395318,3587.0014339129075,617.7483812030634,406.61900503710655,3443.4021655050283,-40.92827675096794,Vision,Movement,2
0.22,0.00651895166447303,0.007939355781039052,75.54636208292115,63.69990268070424,0.20901490774019543,12.372440009350058,0.008475318796110704,0.0036155704092733438,0.005625327360893587,0.0050805326113903095,-595.3336352252051,3586.916883398189,617.7514628044478,406.4398771663821,3443.5099404359153,-40.71685658743357,Vision,Movement,2
0.221,0.006519907884423113,0.00793926612374778,75.54636208292115,63.69990268070424,0.2096387006036973,12.367427233381411,0.008496450203472693,0.0036529101642936534,0.005597960810828168,0.0050882343665944185,-595.3067447108784,3586.832332883471,617.7545444058322,406.2607492956576,3443.617715366802,-40.5054364238992,Vision,Movement,2
0.222,0.006520862682946409,0.007939174839093883,75.54636208292115,63.69990268070424,0.2102627394495657,12.36238298586651,0.008500216347305802,0.00370395292288208,0.005598781865492876,0.005095555851308163,-595.2798541965517,3586.7477823687523,617.7576260072167,406.08162142493313,3443.725490297689,-40.29401626036483,Vision,Movement,2
0.223,0.006521815021269514,0.007939082997454511,75.54636208292115,63.69990268070424,0.21088701769838405,12.357307221186387,0.008486663019664458,0.003768077924961183,0.0056268723436918066,0.005103327645606389,-595.252963682225,3586.663231854034,617.7607076086011,405.90249355420866,3443.8332652285753,-40.08259609683046,Vision,Movement,2
0.224,0.006522764183687391,0.007938991455481461,75.54636208292115,63.69990268070424,0.2115115287633454,12.352199894190198,0.008456078262884532,0.003844466653409052,0.005681071939853839,0.005112352371668648,-595.2260731678982,3586.5786813393156,617.7637892099856,405.7233656834842,3443.9410401594623,-39.871175933296094,Vision,Movement,2
0.225,0.00652370940715859,0.007938901214724785,75.54636208292115,63.69990268070424,0.21213626604836106,12.347060960200317,0.008408984060090427,0.003932110125019906,0.005760012915959531,0.005123380282769033,-595.1991826535715,3586.4941308245975,617.76687081137,405.5442378127598,3444.048815090349,-39.65975576976172,Vision,Movement,2
0.226,0.006524650267002211,0.007938814005781301,75.54636208292115,63.69990268070424,0.2127612229512737,12.341890374997497,0.008346123320045425,0.004029819586526814,0.005862157484097738,0.00513708653941891,-595.1722921392447,3586.409580309879,617.7699524127545,405.3651099420353,3444.156590021236,-39.44833560622735,Vision,Movement,2
0.227,0.0065255868867726465,0.007938731376120282,75.54636208292115,63.69990268070424,0.2133863928618225,12.336688094848173,0.00826844242791718,0.004136240511825105,0.005985837129796741,0.005154050970147923,-595.1516988821126,3586.34710242595,617.7769671980016,405.18598207131083,3444.264364952123,-39.23691544269298,Vision,Movement,2
0.228,0.006526519897595485,0.007938654463330782,75.54636208292115,63.69990268070424,0.2140117691622749,12.331454076488463,0.008177069754724165,0.004249869703009796,0.006129292995266903,0.005174740981907557,-595.1329985557109,3586.2912594879717,617.7851642828392,405.00685420058636,3444.3721398830094,-39.02549527915861,Vision,Movement,2
0.229,0.006527449861318613,0.007938584176881551,75.54636208292115,63.69990268070424,0.21463734522754901,12.326188277130123,0.00807329072500119,0.004369075230947281,0.00629071635931729,0.00519949813055768,-595.114298229309,3586.2354165499937,617.7933613676769,404.8277263298619,3444.4799148138964,-38.81407511562424,Vision,Movement,2
0.23,0.006528376741914603,0.00793852143428308,75.54636208292115,63.69990268070424,0.2152631144257268,12.32089065446231,0.007958520305188288,0.004492118947068416,0.0064682882282399295,0.005228528693886125,-595.0955979029073,3586.1795736120152,617.8015584525144,404.6485984591374,3444.587689744783,-38.60265495208987,Vision,Movement,2
0.231,0.006529299820914908,0.00793846713175105,75.54636208292115,63.69990268070424,0.21588907011616665,12.315561166656671,0.00783427397714593,0.004617181351680384,0.006660217042217887,0.005261898408776971,-595.0768975765055,3586.123730674037,617.8097555373521,404.4672122923479,3444.620457006016,-38.39358919056671,Vision,Movement,2
0.232,0.006530217988274231,0.007938422074044264,75.54636208292115,63.69990268070424,0.2165152056527142,12.310199772351911,0.007702138301995174,0.004742388676605688,0.006864773484927036,0.005299531332307555,-595.0581972501038,3586.0678877360583,617.8179526221896,404.2846198624795,3444.6131591119624,-38.185781026868156,Vision,Movement,2
0.233,0.006531130402055901,0.00793838711673975,75.54636208292115,63.69990268070424,0.21714151438166623,12.30480643068187,0.007563742069717149,0.004865842055601591,0.007080321353887635,0.005341212586388242,-595.039496923702,3586.0120447980803,617.8261497070273,404.1020274326111,3444.605861217909,-37.9779728631696,Vision,Movement,2
0.234,0.006532036379756049,0.007938362835761966,75.54636208292115,63.69990268070424,0.2177679896424323,12.299381101259074,0.007420728823403311,0.0049856485794841955,0.007305343420133344,0.005386594619168709,-595.0207965973003,3585.956201860102,617.8343467918648,403.9194350027427,3444.598563323855,-37.770164699471046,Vision,Movement,2
0.23500000000000001,0.006532935057190564,0.007938349556492813,75.54636208292115,63.69990268070424,0.2183946247680455,12.293923744184447,0.007274731318615297,0.005099953861635805,0.00753846119396605,0.005435206606400762,-595.0020962708985,3585.9003589221234,617.8425438767025,403.73684257287437,3444.5912654298018,-37.562356535772494,Vision,Movement,2
0.23600000000000002,0.0065338257608927065,0.007938347467953778,75.54636208292115,63.69990268070424,0.21902141308327816,12.288434320031433,0.007127348250432258,0.005206975542852841,0.007778447634923391,0.005486466678232906,-594.9833959444968,3585.844515984145,617.8507409615402,403.55425014300596,3444.5839675357483,-37.354548372073936,Vision,Movement,2
0.23700000000000002,0.006534708240164152,0.007938356518977858,75.54636208292115,63.69990268070424,0.21964834790784993,12.2829127898746,0.006980123366656216,0.005305037007818537,0.008024232138704344,0.005539696681296194,-594.964695618095,3585.788673046167,617.8589380463777,403.3716577131376,3444.576669641695,-37.146740208375384,Vision,Movement,2
0.23800000000000002,0.0065355826307969215,0.007938376327545345,75.54636208292115,63.69990268070424,0.22027542255439192,12.277359115272493,0.006834526925127896,0.005392600494952717,0.00827489755739343,0.005594139118794553,-594.9459952916933,3585.7328301081884,617.8671351312154,403.1890652832692,3444.569371747641,-36.938932044676825,Vision,Movement,2
0.23900000000000002,0.006536449151002612,0.007938406623488835,75.54636208292115,63.69990268070424,0.2209026303290781,12.271773258273962,0.006691939374233916,0.005468298762476453,0.008529669398637044,0.005648975772108151,-594.9272949652915,3585.67698717021,617.8753322160529,403.00647285340085,3444.5620738535877,-36.731123880978274,Vision,Movement,2
0.24,0.0065373082728830256,0.007938447350572269,75.54636208292115,63.69990268070424,0.22152996453174822,12.266155181423304,0.0065536371562589435,0.005530964494389837,0.008787897660997484,0.005703347350815102,-594.9085946388898,3585.6211442322315,617.8835293008906,402.82388042353244,3444.5547759595343,-36.52331571727972,Vision,Movement,2
0.241,0.006538160569078594,0.007938498263826962,75.54636208292115,63.69990268070424,0.22215741845641412,12.260504847743839,0.006420780593204488,0.005579656681546424,0.00904903203177995,0.005756373389168067,-594.889894312488,3585.5653012942535,617.8917263857281,402.6412879936641,3444.5474780654804,-36.31550755358117,Vision,Movement,2
0.242,0.00653900668575057,0.007938559181010834,75.54636208292115,63.69990268070424,0.22278498538938107,12.254822220767203,0.006294403883493549,0.00561368328213389,0.009312591479082274,0.005807171577548707,-594.8711939860863,3585.509458356275,617.8999234705658,402.4586955637957,3444.540180171427,-36.10769938988262,Vision,Movement,2
0.243,0.006539847456308947,0.007938629785790088,75.54636208292115,63.69990268070424,0.22341265861245135,12.249107264515596,0.0061754073209018346,0.005632619556786052,0.009578129624032044,0.005854875839976988,-594.8567194427376,3585.4662872547256,617.9108927812841,402.27610313392734,3444.5328822773736,-35.89989122618406,Vision,Movement,2
0.244,0.0065406837492842165,0.007938709187406981,75.54636208292115,63.69990268070424,0.22404043140088917,12.243359943507901,0.006064551949993137,0.005636321584331328,0.009845197566576466,0.005898652681963504,-594.8514043119417,3585.4505824419543,617.9278709098268,402.09351070405893,3444.52558438332,-35.69208306248551,Vision,Movement,2
0.245,0.006541516291568662,0.007938796199860078,75.54636208292115,63.69990268070424,0.2246682970240833,12.237580222761284,0.005962456929032942,0.005624934577082269,0.010113306002215093,0.005937715530148134,-594.8460891811458,3585.434877629183,617.9448490383694,401.9109182741906,3444.5182864892663,-35.48427489878695,Vision,Movement,2
0.246,0.0065423458337060215,0.007938890069986647,75.54636208292115,63.69990268070424,0.22529624874605073,12.231768067796278,0.005869599839210805,0.005598895700548276,0.010381888477173478,0.005971336926967799,-594.8407740503498,3585.419172816412,617.9618271669121,401.72832584432217,3444.510988595213,-35.2764667350884,Vision,Movement,2
0.247,0.00654317345458648,0.007938990053603037,75.54636208292115,63.69990268070424,0.22592427982356175,12.225923444619776,0.0057863200409874384,0.005558931172369718,0.010650267526321911,0.0059988585714611745,-594.8354589195538,3585.4034680036407,617.9788052954548,401.54809133147495,3444.502910003448,-35.07049020612317,Vision,Movement,2
0.248,0.0065440005188758124,0.007939095653824,75.54636208292115,63.69990268070424,0.22655238350934023,12.220046319755092,0.005712824973922301,0.005506047485419004,0.010917625237006338,0.006019699312577773,-594.8301437887579,3585.3877631908695,617.9957834239974,401.4125089140463,3444.4800472660236,-34.89919951561279,Vision,Movement,2
0.249,0.006544829026468375,0.00793920685567782,75.54636208292115,63.69990268070424,0.2271805530500297,12.214136660223515,0.0056491990914327665,0.0054415166644423375,0.011182979517879457,0.006033361260088088,-594.8248286579619,3585.3720583780982,618.01276155254,401.27692649661776,3444.457184528599,-34.72790882510241,Vision,Movement,2
0.25,0.006545661276321016,0.007939323752516313,75.54636208292115,63.69990268070424,0.22780878168682417,12.2081944335505,0.005595414967181258,0.005366855513007667,0.011445167020644433,0.0060394341676357636,-594.819513527166,3585.356353565327,618.0297396810827,401.1413440791892,3444.434321791174,-34.556618134592036,Vision,Movement,2
0.251,0.0065464996865165406,0.007939446351022374,75.54636208292115,63.69990268070424,0.22843706265559138,12.20221960776716,0.005551346032491695,0.005283798888335807,0.011702833320500976,0.006037598207287419,-594.81419839637,3585.340648752556,618.0467178096253,401.00576166176063,3444.4114590537497,-34.38532744408166,Vision,Movement,2
0.252,0.006547346215309233,0.007939574916050858,75.54636208292115,63.69990268070424,0.22906538918737324,12.196212151415388,0.005516780362959785,0.005194267229096928,0.011954430628289426,0.0060276252254089415,-594.8088832655741,3585.3249439397846,618.0636959381679,400.87017924433206,3444.388596316325,-34.21403675357128,Vision,Movement,2
0.253,0.006548202368329517,0.007939709597171038,75.54636208292115,63.69990268070424,0.22969375450651758,12.19017203353019,0.00549143489581509,0.005100328868512415,0.012198223034556548,0.006009378548495031,-594.8035681347782,3585.3092391270134,618.0806740667106,400.7345968269035,3444.3657335789003,-34.0427460630609,Vision,Movement,2
0.254,0.0065490697815886595,0.007939849876216447,75.54636208292115,63.69990268070424,0.2303221518338716,12.184099223670582,0.005474969444581524,0.00500415800225424,0.012432299072061968,0.005982811401146152,-594.7982530039822,3585.293534314242,618.0976521952532,400.59901440947493,3444.342870841476,-33.87145537255052,Vision,Movement,2
0.255,0.006549950662510852,0.00793999511494738,75.54636208292115,63.69990268070424,0.2309505743847843,12.177993691900374,0.005466999931113656,0.004907989441916415,0.012654591223873718,0.005947964034102016,-594.7929378731862,3585.277829501471,618.1146303237958,400.46343199204637,3444.3200081040513,-33.700164682040146,Vision,Movement,2
0.256,0.0065508476002328385,0.007940144742236522,75.54636208292115,63.69990268070424,0.2315790153701419,12.171855408794789,0.005467110385660615,0.004814071414308992,0.01286290187477222,0.0059049597485602906,-594.7876227423903,3585.2621246886997,618.1316084523385,400.3278495746178,3444.2971453666264,-33.52887399152977,Vision,Movement,2
0.257,0.006551763244132802,0.00794029812776991,75.54636208292115,63.69990268070424,0.23220746799450445,12.165684345445548,0.005474863440207035,0.004724617699890988,0.013054935150783594,0.005854000091943028,-594.7823076115943,3585.2464198759285,618.1485865808811,400.1922671571892,3444.274282629202,-33.35758330101939,Vision,Movement,2
0.258,0.006552700365998315,0.007940454911897812,75.54636208292115,63.69990268070424,0.23283592545929543,12.159480473442699,0.005489809212755484,0.004641760376837487,0.01322833407347557,0.005795359517127599,-594.7769924807984,3585.2307150631573,618.1655647094237,400.0566847397606,3444.2514198917775,-33.186292610509014,Vision,Movement,2
0.259,0.006553661485572293,0.007940614350408376,75.54636208292115,63.69990268070424,0.23346438096077207,12.153243764906167,0.005511492638104547,0.004567504388298261,0.013380722397642094,0.005729379721506212,-594.7716773500024,3585.215010250386,618.1825428379664,399.92110232233205,3444.228557154353,-33.01500191999863,Vision,Movement,2
0.26,0.006554648164450573,0.007940775103694281,75.54636208292115,63.69990268070424,0.23409282769065545,12.146974192465958,0.005539459446903898,0.004503685072976151,0.013509750367806165,0.005656463760299075,-594.7663622192065,3585.199305437615,618.199520966509,399.7855199049035,3444.205694416928,-32.84371122948826,Vision,Movement,2
0.261,0.006555661104736367,0.007940935652827937,75.54636208292115,63.69990268070424,0.23472125883622214,12.14067172926883,0.005573261101662152,0.004451929689773714,0.0136131434251522,0.005577069942038474,-594.7610470884106,3585.1836006248436,618.2164990950516,399.6499374874749,3444.1828316795036,-32.67242053897788,Vision,Movement,2
0.262,0.006556700741406155,0.007941094414218355,75.54636208292115,63.69990268070424,0.2353496675804296,12.134336348983368,0.00561245901476706,0.004413623811346518,0.013688752678469855,0.005491705503858901,-594.7557319576146,3585.1678958120724,618.2334772235943,399.51435507004635,3444.159968942079,-32.5011298484675,Vision,Movement,2
0.263,0.006557767416908935,0.00794124943681221,75.54636208292115,63.69990268070424,0.23597804710240813,12.127968025781303,0.00565662827750114,0.004389883269889,0.013734605747827611,0.005400920125423751,-594.7504168268187,3585.152190999301,618.2504553521369,399.3787726526178,3444.137106204654,-32.329839157957124,Vision,Movement,2
0.264,0.0065588612215971755,0.00794139840797886,75.54636208292115,63.69990268070424,0.2366063905756081,12.121566734369711,0.005705360956486918,0.004381532127404169,0.013748956477655346,0.005305299421748764,-594.7451016960227,3585.13648618653,618.2674334806795,399.27063612685686,3444.1433651264356,-32.18371436655784,Vision,Movement,2
0.265,0.006559981837212618,0.00794153858428493,75.54636208292115,63.69990268070424,0.2372346911709784,12.115132449970634,0.005758268846644264,0.0043890869326247625,0.013730332050524678,0.005205458586395778,-594.7397865652267,3585.1207813737583,618.2844116092222,399.19625024146575,3444.1854354060233,-32.0685364731776,Vision,Movement,2
0.266,0.006561128720494047,0.007941666685251588,75.54636208292115,63.69990268070424,0.23786294205497846,12.108665148327797,0.005814985486696319,0.004412747340967168,0.013677576142294035,0.005102036312036805,-594.7344714344308,3585.105076560987,618.3013897377648,399.1218643560747,3444.227505685611,-31.95335857979736,Vision,Movement,2
0.267,0.00656230131171254,0.007941779460249798,75.54636208292115,63.69990268070424,0.23849113639060443,12.102164805711713,0.005875167277389802,0.004452393024364594,0.013589886819331766,0.0049956890105728406,-594.7291563036348,3585.089371748216,618.3183678663074,399.0474784706836,3444.269575965199,-31.838180686417118,Vision,Movement,2
0.268,0.006563498805834881,0.007941873851924016,75.54636208292115,63.69990268070424,0.23911926733554195,12.09563139890043,0.005938493642857257,0.004507586683726353,0.013466847865359373,0.004887085249323798,-594.7238411728389,3585.0736669354446,618.3353459948501,398.9730925852925,3444.311646244786,-31.72300279303688,Vision,Movement,2
0.269,0.006564719850541854,0.007941946370695053,75.54636208292115,63.69990268070424,0.23974732804533963,12.089064905212412,0.006004666271301858,0.004577582890946157,0.013308452313643198,0.004776900241963432,-594.718526042043,3585.0579621226734,618.3523241233927,398.89870669990137,3444.353716524374,-31.60782489965664,Vision,Movement,2
0.27,0.006565962806500896,0.0079419935848525,75.54636208292115,63.69990268070424,0.24037531167138856,12.082465302485547,0.006073407511083313,0.00466134243046204,0.013115117326544088,0.00466581018627626,-594.7166359488099,3585.0475909508014,618.3837920767913,398.82432081451026,3444.3957868039615,-31.4926470062764,Vision,Movement,2
0.271,0.006567225728939239,0.007942011465640983,75.54636208292115,63.69990268070424,0.24100321136155053,12.075832569083945,0.00614445799244537,0.004757551796941476,0.012887690155438357,0.00455448627383606,-594.7172331863529,3585.0410931756182,618.4257828307856,398.74993492911915,3444.4378570835493,-31.37746911289616,Vision,Movement,2
0.272,0.006568506043041864,0.007941995137024871,75.54636208292115,63.69990268070424,0.24163102026028582,12.06916668390302,0.006217573528702082,0.004864647522971927,0.012627445409062204,0.004443588330576174,-594.717830423896,3585.0345954004356,618.4677735847797,398.67554904372804,3444.479927363137,-31.262291219515923,Vision,Movement,2
0.273,0.006569800819778245,0.007941939412318333,75.54636208292115,63.69990268070424,0.24225873150913826,12.062467626349745,0.006292521382329095,0.0049808450280388284,0.0123360740324152,0.004333758233960578,-594.7184276614391,3585.0280976252525,618.509764338774,398.601163158337,3444.5219976427247,-31.14711332613568,Vision,Movement,2
0.274,0.006571106825613902,0.007941839324861654,75.54636208292115,63.69990268070424,0.24288633824489864,12.05573537637615,0.006369076083385725,0.005104171665299952,0.012015664345286238,0.004225613378748274,-594.7190248989822,3585.0215998500694,618.5517550927681,398.5267772729459,3444.5640679223125,-31.031935432755443,Vision,Movement,2
0.275,0.006572420264212781,0.007941689959388784,75.54636208292115,63.69990268070424,0.2435138336027668,12.048969914457782,0.006447015122144901,0.005232503596187321,0.011668675470430413,0.004119740472482223,-594.7196221365252,3585.0151020748867,618.5937458467622,398.45239138755477,3444.6061382019,-30.916757539375205,Vision,Movement,2
0.276,0.006573736825185066,0.007941486578384262,75.54636208292115,63.69990268070424,0.24414121071433825,12.042171221600126,0.00652611491558236,0.005363606042107401,0.011297903704232618,0.004016689890947347,-594.7202193740684,3585.0086042997036,618.6357366007564,398.37800550216366,3444.648208481488,-30.801579645994963,Vision,Movement,2
0.277,0.0065750519049785775,0.007941224868678149,75.54636208292115,63.69990268070424,0.24476846270826746,12.035339279339821,0.006606147423680352,0.005495176349859333,0.010906442764682896,0.003916970764658184,-594.7208166116114,3585.002106524521,618.6777273547506,398.30361961677255,3444.6902787610757,-30.686401752614724,Vision,Movement,2
0.278,0.00657636072175015,0.00794090055824652,75.54636208292115,63.69990268070424,0.2453955827107501,12.028474069749688,0.006686877686967715,0.005624889139215634,0.010497639193732582,0.0038210469301374196,-594.7214138491545,3584.995608749338,618.7197181087447,398.22923373138144,3444.732349040663,-30.571223859234486,Vision,Movement,2
0.279,0.006577657927875601,0.007940509328871265,75.54636208292115,63.69990268070424,0.24602256384369448,12.021575575418375,0.006768062440156489,0.005750442601976618,0.010075044273625097,0.0037293338593048764,-594.7220110866976,3584.9891109741548,618.7617088627389,398.15484784599033,3444.7744193202507,-30.456045965854244,Vision,Movement,2
0.28,0.006578937218886741,0.007940046946737576,75.54636208292115,63.69990268070424,0.246649399227876,12.014643779484665,0.00684944985030843,0.005869604846009582,0.009642363605656701,0.003642196675948696,-594.7226083242407,3584.982613198972,618.8036996167331,398.0804619605993,3444.8164895998384,-30.340868072474006,Vision,Movement,2
0.281,0.006580191752747159,0.00793950905366308,75.54636208292115,63.69990268070424,0.24727608198092785,12.007678665615165,0.006930780306680216,0.0059802590815791435,0.009203405112614114,0.0035599493575476505,-594.7232055617837,3584.976115423789,618.8456903707272,398.0306717975366,3444.906903647117,-30.257804338532193,Vision,Movement,2
0.28200000000000003,0.006581413686303432,0.007938890938486138,75.54636208292115,63.69990268070424,0.24790260521796828,12.000680218010839,0.0070117880542934965,0.006080446456137198,0.008762025934149233,0.003482855188062862,-594.7238027993269,3584.9696176486063,618.8876811247214,397.9853307991159,3445.0060626858617,-30.180549792902482,Vision,Movement,2
0.28300000000000003,0.006582594174722811,0.007938187779878205,75.54636208292115,63.69990268070424,0.24852896205172986,11.993648421408103,0.007092203339739811,0.006168405381774423,0.00832207861235828,0.0034111284568441205,-594.72440003687,3584.9631198734232,618.9296718787156,397.9399898006952,3445.1052217246065,-30.103295247272772,Vision,Movement,2
0.28400000000000003,0.006583723960427566,0.007937394948669716,75.54636208292115,63.69990268070424,0.2491551455930382,11.986583261083874,0.007171754694668744,0.006242606215107517,0.007887357145402034,0.0033449373143597614,-594.724997274413,3584.95662209824,618.9716626327098,397.89464880227445,3445.2043807633513,-30.026040701643062,Vision,Movement,2
0.28500000000000003,0.006584793450355008,0.007936507812623894,75.54636208292115,63.69990268070424,0.249781148948994,11.979484722834533,0.007250171074598031,0.006301780177802069,0.007461543753895648,0.0032844076118046244,-594.7255945119562,3584.9501243230575,619.0136533867039,397.8493078038537,3445.303539802096,-29.94878615601335,Vision,Movement,2
0.28600000000000003,0.006585792657463837,0.007935521536534665,75.54636208292115,63.69990268070424,0.2504069652261159,11.972352793011087,0.007327183792419031,0.006344941551577434,0.007048157405221929,0.003229627479670732,-594.7271783301134,3584.94518948292,619.0556868164045,397.80396680543305,3445.402698840841,-29.87153161038364,Vision,Movement,2
0.28700000000000003,0.006586711165010845,0.007934431132571458,75.54636208292115,63.69990268070424,0.2510325875283388,11.96518745849651,0.00740252842691824,0.006371402470814002,0.006650505194877634,0.0031806523408672493,-594.7355976297337,3584.951083371197,619.0980159229063,397.7586258070123,3445.5018578795857,-29.79427706475393,Vision,Movement,2
0.28800000000000003,0.006587538116505071,0.007933231237050125,75.54636208292115,63.69990268070424,0.2516580089576777,11.957988706716804,0.0074759470221107596,0.006380780007820462,0.006271637670565507,0.003137510013291649,-594.744016929354,3584.9569772594737,619.1403450294081,397.7132848085916,3445.6010169183305,-29.717022519124217,Vision,Movement,2
0.289,0.006588261810625182,0.00793191571522138,75.54636208292115,63.69990268070424,0.25228322261470265,11.950756525619576,0.007547190870776116,0.006372995624118526,0.005914309085715795,0.0031002055289405714,-594.7524362289741,3584.962871147751,619.1826741359098,397.66794381017087,3445.7001759570753,-29.63976797349451,Vision,Movement,2
0.29,0.006588869750570947,0.00793047744816973,75.54636208292115,63.69990268070424,0.2529082215967317,11.943490903709701,0.0076160240617843015,0.0063482674133343115,0.005580943427693452,0.003068725305589866,-594.7608555285944,3584.968765036028,619.2250032424116,397.62260281175014,3445.79933499582,-29.5625134278648,Vision,Movement,2
0.291,0.00658934911150543,0.007928908289113103,75.54636208292115,63.69990268070424,0.25353299900096216,11.936191830025754,0.007682227832207624,0.006307095834136253,0.005273606862753774,0.003043040370821026,-594.7692748282147,3584.9746589243045,619.2673323489133,397.5772618133294,3445.8984940345645,-29.48525888223509,Vision,Movement,2
0.292,0.006589687111237392,0.007927199074971848,75.54636208292115,63.69990268070424,0.25415754792247647,11.928859294146669,0.007745605601782918,0.0062502437918536,0.0049939870461405125,0.0030231084484535035,-594.777694127835,3584.9805528125817,619.3096614554152,397.5319208149087,3445.9976530733093,-29.40800433660538,Vision,Movement,2
0.293,0.006589870553588739,0.00792533964909196,75.54636208292115,63.69990268070424,0.25478186145486803,11.921493286192689,0.00780598837079956,0.0061787120133723365,0.004743379543912823,0.0030088748260283927,-594.7861134274552,3584.986446700859,619.3519905619169,397.48657981648796,3446.096812112054,-29.33074979097567,Vision,Movement,2
0.294,0.0065898855794756525,0.007923318889797573,75.54636208292115,63.69990268070424,0.25540593269037226,11.914093796830366,0.007863239964737517,0.006093710734497429,0.0045226814292985435,0.003000272006714458,-594.7945327270755,3584.9923405891354,619.3943196684187,397.44123881806723,3446.195971150799,-29.25349524534596,Vision,Movement,2
0.295,0.0065897172455315345,0.007921124750832044,75.54636208292115,63.69990268070424,0.2560297547203381,11.90666081725055,0.007917261510736169,0.005996628781947106,0.004332391930691651,0.002997218222125965,-594.8029520266958,3584.9982344774126,619.4366487749204,397.39589781964656,3446.2951301895437,-29.17624069971625,Vision,Movement,2
0.296,0.006589349824936484,0.007918744363716092,75.54636208292115,63.69990268070424,0.2566533206334335,11.8991943392048,0.007967994610306646,0.005889001155131401,0.004172619829724679,0.0029996149599804166,-594.8113713263161,3585.0041283656897,619.4789778814222,397.35055682122584,3446.3942892282885,-29.098986154086536,Vision,Movement,2
0.297,0.006588767091710909,0.007916164331213697,75.54636208292115,63.69990268070424,0.25727662351876296,11.891694354981132,0.00801542291968888,0.005772476189519433,0.004043097139387295,0.003007343731813039,-594.8197906259363,3585.010022253967,619.5213069879239,397.30302318876494,3446.499305817005,-29.021433759804243,Vision,Movement,2
0.298,0.006587952355223135,0.007913371189301723,75.54636208292115,63.69990268070424,0.2578996564638833,11.884160857411175,0.008059572156368398,0.005648783321221278,0.003943198476580219,0.0030202623598519934,-594.8282099255566,3585.0159161422434,619.5636360944258,397.24873805070115,3446.6223588316507,-28.94296423716859,Vision,Movement,2
0.299,0.006586888330040038,0.007910351517333557,75.54636208292115,63.69990268070424,0.25852241255546626,11.876593839875163,0.008100508796600263,0.005519702342227528,0.0038719654745876394,0.003038201104705145,-594.8366292251769,3585.0218100305206,619.6059652009275,397.19445291263736,3446.745411846296,-28.86449471453294,Vision,Movement,2
0.3,0.006585557067253543,0.007907091931233507,75.54636208292115,63.69990268070424,0.259144884879766,11.868993296279374,0.00813833782593155,0.00538703484202828,0.0038281355702656683,0.0030609589881255925,-594.8450485247971,3585.0277039187977,619.6482943074293,397.14016777457357,3446.8684648609415,-28.786025191897288,Vision,Movement,2
0.301,0.006583940177587979,0.007903578886248932,75.54636208292115,63.69990268070424,0.2597670665208361,11.861359221093199,0.008173199838434491,0.005252578302080757,0.003810174516365491,0.003088300671358015,-594.8534678244174,3585.0335978070743,619.690623413931,397.0858826365098,3446.991517875587,-28.707555669261637,Vision,Movement,2
0.302,0.006582018486200261,0.007899799067167347,75.54636208292115,63.69990268070424,0.2603889505635961,11.853691609324313,0.008205267599131604,0.005118103094588333,0.0038163119698989456,0.0031199542247691793,-594.8618871240377,3585.0394916953514,619.7329525204328,397.031597498446,3447.1145708902322,-28.629086146625983,Vision,Movement,2
0.303,0.006579771819730423,0.007895739440758817,75.54636208292115,63.69990268070424,0.26101053009152353,11.845990456525886,0.008234742000134715,0.00498533246819338,0.003844579476249187,0.003155610075416474,-594.8723692423792,3585.049697067486,619.7690107506559,396.9773123603822,3447.2376239048776,-28.550616623990333,Vision,Movement,2
0.304,0.006577179587411604,0.007891387187515086,75.54636208292115,63.69990268070424,0.26163179818951837,11.838255758801536,0.008261847294524938,0.004855925454599556,0.0038928501115233437,0.003194921353407297,-594.883853854445,3585.061997745166,619.8020214449762,396.9230272223184,3447.360676919523,-28.472147101354683,Vision,Movement,2
0.305,0.006574220710670437,0.007886729913814325,75.54636208292115,63.69990268070424,0.26225274793916603,11.830487512782295,0.008286825631342936,0.0047314625045166816,0.003958878992442889,0.0032375057735418455,-594.8953384665107,3585.074298422847,619.8350321392966,396.8687420842546,3447.4837299341684,-28.393677578719032,Vision,Movement,2
0.306,0.0065708735562818015,0.00788175531018986,75.54636208292115,63.69990268070424,0.2628733724242677,11.822685715664301,0.008309931153526623,0.004613433554138965,0.004040343832233328,0.0032829490858331833,-594.9068230785763,3585.0865991005276,619.868042833617,396.81445694619083,3447.606782948814,-28.31520805608338,Vision,Movement,2
0.307,0.006567116200619766,0.007876450850722555,75.54636208292115,63.69990268070424,0.2634936647264795,11.814850365183368,0.0083314240990723,0.004503228191378826,0.00413488473980667,0.0033308100173555562,-594.918307690642,3585.098899778208,619.9010535279374,396.760171808127,3447.729835963459,-28.236738533447728,Vision,Movement,2
0.308,0.006562925881939583,0.00787080377491203,75.54636208292115,63.69990268070424,0.2641136179289285,11.806981459621765,0.008351565376499327,0.004402127599031873,0.004240142539122952,0.0033806265237826504,-594.9297923027077,3585.1112004558886,619.9340642222578,396.7058866700632,3447.8528889781046,-28.158269010812077,Vision,Movement,2
0.309,0.00655827855037101,0.0078648011501586,75.54636208292115,63.69990268070424,0.2647332251142476,11.799078997808978,0.008370611955954593,0.004311297978216201,0.004353795020753728,0.0034319230945527982,-594.9412769147733,3585.1235011335693,619.9670749165781,396.6516015319994,3447.97594199275,-28.079799488176427,Vision,Movement,2
0.31,0.0065531488183474575,0.007858429956287707,75.54636208292115,63.69990268070424,0.26535247936523665,11.791142979126619,0.00838881317508425,0.004231785138932261,0.004473590687936414,0.0034842188099050353,-594.952761526839,3585.1358018112496,620.0000856108985,396.5973163939356,3448.098995007396,-28.001329965540776,Vision,Movement,2
0.311,0.006547510068199489,0.007851677178586598,75.54636208292115,63.69990268070424,0.2659713737653232,11.78317340348475,0.008406407768634343,0.004164509915666485,0.0045973797015945094,0.0035370358268201167,-594.9642461389047,3585.1481024889304,620.0330963052189,396.5430312558718,3448.2220480220412,-27.922860442905122,Vision,Movement,2
0.312,0.0065413347836129464,0.007844529907182065,75.54636208292115,63.69990268070424,0.266589901396806,11.7751702713604,0.008423621183864718,0.004110264037746023,0.004723141863945779,0.0035899079695307524,-594.9757307509703,3585.160403166611,620.0661069995393,396.48874611780803,3448.3451010366866,-27.844390920269472,Vision,Movement,2
0.313,0.006534595343291267,0.007836975443148174,75.54636208292115,63.69990268070424,0.26720805534389036,11.767133583771367,0.008440662647674109,0.004069706062398573,0.004849011617866509,0.0036423891154644776,-594.9872153630361,3585.172703844292,620.0991176938597,396.43446097974424,3448.468154051332,-27.76592139763382,Vision,Movement,2
0.314,0.006527263774229311,0.007829001415237954,75.54636208292115,63.69990268070424,0.26782582869041277,11.75906334228308,0.008457721581397966,0.004043356996752615,0.004973300138725766,0.0036940610900942895,-594.9986999751017,3585.185004521972,620.13212838818,396.36775350781767,3448.6071915152957,-27.672610803052297,Vision,Movement,2
0.315,0.006519311586280833,0.007820595926089668,75.54636208292115,63.69990268070424,0.26844321452266623,11.750959549009272,0.008474963270627496,0.004031595349905463,0.00509451464148462,0.003744540827350015,-595.0101845871674,3585.197305199653,620.1651390825004,396.29416336852313,3448.7550852577115,-27.571077424997384,Vision,Movement,2
0.316,0.006510710486414528,0.007811747818301298,75.54636208292115,63.69990268070424,0.2690602059247261,11.742822206616866,0.00849252400822904,0.004034651581936701,0.005211375010354256,0.003793486615010252,-595.0216691992331,3585.2096058773336,620.1981497768209,396.22057322922853,3448.9029790001277,-27.46954404694247,Vision,Movement,2
0.317,0.0065014321704542745,0.007802447275816818,75.54636208292115,63.69990268070424,0.26967679598391897,11.734651318301703,0.008510506072871826,0.004052602169295645,0.005322827789369993,0.003840603314570627,-595.0331538112987,3585.221906555014,620.2311604711413,396.146983089934,3449.0508727425436,-27.36801066888756,Vision,Movement,2
0.318,0.006491447922386554,0.007792686310623751,75.54636208292115,63.69990268070424,0.2702929777865157,11.726446887827816,0.008528972858831465,0.004085363703741153,0.005428057443443742,0.0038856465037951323,-595.0446384233644,3585.2342072326946,620.2641711654616,396.0733929506394,3449.1987664849594,-27.266477290832647,Vision,Movement,2
0.319,0.006480728649262534,0.007782458819031337,75.54636208292115,63.69990268070424,0.2709087444213112,11.718208919501059,0.008547944336290912,0.004132687547369666,0.0055264946435598684,0.003928425532811055,-595.0545105495432,3585.2447765485244,620.2924667145215,395.99980281134486,3449.3466602273757,-27.164943912777733,Vision,Movement,2
0.32,0.0064692450163713125,0.007771760688862308,75.54636208292115,63.69990268070424,0.27152408897772157,11.709937418180836,0.00856739289062616,0.004194155577383746,0.005617821202254595,0.003968805513625398,-595.0586584423114,3585.249199628017,620.30402376543,395.9262126720503,3449.4945539697915,-27.063410534722824,Vision,Movement,2
0.321,0.006456967610485166,0.00776058998277838,75.54636208292115,63.69990268070424,0.27213900454675843,11.701632389255458,0.0085872395237645,0.004269177495633348,0.00570197126854669,0.00400670830127156,-595.0628063350796,3585.253622707509,620.3155808163383,395.85262253275573,3449.6424477122077,-26.96187715666791,Vision,Movement,2
0.322,0.0064438671182872435,0.0077489471294435825,75.54636208292115,63.69990268070424,0.27275348421929924,11.69329383868189,0.008607350419375139,0.004356990093595975,0.005779128498788169,0.004042112571011934,-595.0669542278476,3585.258045787001,620.3271378672467,395.7790323934612,3449.7903414546236,-26.860343778613,Vision,Movement,2
0.323,0.006429914517676837,0.007736835096929337,75.54636208292115,63.69990268070424,0.27336752108913237,11.684921772958374,0.008627533964931653,0.004456658791651691,0.005849719118527887,0.004075053129109968,-595.0711021206158,3585.2624688664932,620.338694918155,395.7054422541666,3449.9382351970394,-26.758810400558087,Vision,Movement,2
0.324,0.006415081281997618,0.007724259495427968,75.54636208292115,63.69990268070424,0.27398110825098254,11.676516199131399,0.008647538441672438,0.004567081705505188,0.005914401001186361,0.004105619591252472,-595.075250013384,3585.266891945985,620.3502519690635,395.63185211487206,3450.0861289394556,-26.657277022503173,Vision,Movement,2
0.325,0.006399339597562821,0.00771122876181358,75.54636208292115,63.69990268070424,0.2745942388008178,11.668077124796238,0.008667050691744976,0.004686996424364814,0.005974049078040621,0.004133954544059932,-595.0793979061522,3585.271315025477,620.3618090199718,395.55826197557747,3450.2340226818715,-26.555743644448263,Vision,Movement,2
0.326,0.0063826625949068416,0.007697754557437261,75.54636208292115,63.69990268070424,0.2752069058381173,11.659604558101776,0.008685696116610853,0.004814989605583118,0.006029737543150587,0.004160251298044465,-595.0835457989202,3585.2757381049696,620.3733660708803,395.4846718362829,3450.3819164242877,-26.45421026639335,Vision,Movement,2
0.327,0.006365024594192726,0.007683851953871105,75.54636208292115,63.69990268070424,0.2758191024612646,11.651098507725239,0.008703040352563226,0.00494950942566014,0.006082719420405732,0.004184751345643952,-595.0876936916884,3585.2801611844616,620.3849231217886,395.41108169698833,3450.5298101667036,-26.352676888338436,Vision,Movement,2
0.328,0.006346401365194318,0.007669539399109136,75.54636208292115,63.69990268070424,0.2764308217729497,11.642558982912725,0.008718592947198076,0.0050888809227607155,0.006134404096546544,0.004207741626514368,-595.0918415844566,3585.2845842639535,620.396480172697,395.3374915576938,3450.6777039091194,-26.251143510283526,Vision,Movement,2
0.329,0.00632677040225161,0.007654838942810537,75.54636208292115,63.69990268070424,0.2770420568759206,11.633985993451116,0.008731813352200059,0.005231324298536647,0.006186333372872196,0.004229551656631649,-595.0959894772246,3585.289007343446,620.4080372236053,395.26390141839926,3450.8255976515356,-26.149610132228613,Vision,Movement,2
0.33,0.006306111214576771,0.007639776222831258,75.54636208292115,63.69990268070424,0.27765280087652167,11.62537954967568,0.008742119517435927,0.0053749762855530335,0.006240156436662867,0.004250550501564144,-595.1001373699928,3585.293430422938,620.4195942745138,395.190180429088,3450.9735882067616,-26.047835406832405,Vision,Movement,2
0.331,0.006284405632260496,0.0076243806205605665,75.54636208292115,63.69990268070424,0.2782630468828185,11.616739662474878,0.008748899244151549,0.0055179146392969605,0.006297603948924121,0.004271143483774262,-595.104285262761,3585.29785350243,620.4311513254221,395.11346046299565,3451.1237976334655,-25.940529195149796,Vision,Movement,2
0.332,0.006261638128297599,0.007608685884460024,75.54636208292115,63.69990268070424,0.27887278800555754,11.608066343264602,0.008751524239676015,0.0056581857031271785,0.006360461274293762,0.004291768417724896,-595.108433155529,3585.3022765819223,620.4427083763304,395.0367404969033,3451.2740070601694,-25.833222983467188,Vision,Movement,2
0.333,0.006237796156913863,0.007592730547636379,75.54636208292115,63.69990268070424,0.2794820173564691,11.599359604029324,0.008749366613132794,0.005793834835086516,0.0064305408196544565,0.004312891091630132,-595.1125810482972,3585.3066996614143,620.4542654272389,394.96002053081094,3451.4242164868733,-25.725916771784583,Vision,Movement,2
0.334,0.006212870508435154,0.007576558084934618,75.54636208292115,63.69990268070424,0.2800907280512755,11.590619457293416,0.008741817453435085,0.00592293931847286,0.006509653512174303,0.004334999713194114,-595.1167289410654,3585.3111227409063,620.4658224781472,394.8833005647186,3451.574425913577,-25.618610560101974,Vision,Movement,2
0.335,0.006186855680894086,0.007560216990588231,75.54636208292115,63.69990268070424,0.28069891320774204,11.581845916128842,0.008728307110052003,0.006043643202017027,0.00659957958104685,0.004358598134860818,-595.1208768338334,3585.3155458203987,620.4773795290556,394.8065805986262,3451.724635340281,-25.511304348419365,Vision,Movement,2
0.336,0.006159750268515776,0.007543761200724397,75.54636208292115,63.69990268070424,0.2813065659459913,11.573038994159905,0.00870832674470521,0.0061541933489725345,0.006702038960888955,0.004384197826208108,-595.1250247266016,3585.3199688998907,620.4889365799639,394.72986063253387,3451.874844766985,-25.40399813673676,Vision,Movement,2
0.337,0.006131557367168598,0.007527250411930564,75.54636208292115,63.69990268070424,0.2819136793907755,11.564198705537022,0.00868145057195256,0.006252975806483482,0.006818661753726828,0.004412308680481193,-595.1291726193698,3585.3243919793827,620.5004936308724,394.6531406664416,3452.025054193689,-25.29669192505415,Vision,Movement,2
0.338,0.00610228499679934,0.007510750309653142,75.54636208292115,63.69990268070424,0.28252024666723974,11.555325064978474,0.00864735798364073,0.00633855145701441,0.006950959211978562,0.0044434287991589215,-595.133320512138,3585.328815058875,620.5120506817807,394.5764207003492,3452.175263620393,-25.189385713371543,Vision,Movement,2
0.339,0.006071946540804953,0.007494332628418833,75.54636208292115,63.69990268070424,0.2831262609041307,11.546418087741163,0.00860585452031349,0.006409689819909802,0.007100295612935764,0.004478033433179929,-595.137468404906,3585.333238138367,620.5236077326891,394.49970073425686,3452.3254730470967,-25.082079501688934,Vision,Movement,2
0.34,0.006040561202213886,0.007478075604552069,75.54636208292115,63.69990268070424,0.2837317152342766,11.537477789628344,0.008556890487795775,0.006465399860962288,0.0072678612163065755,0.004516563306278232,-595.1416162976742,3585.337661217859,620.5351647835975,394.4229807681645,3452.4756824738006,-24.97477329000633,Vision,Movement,2
0.341,0.006008154476466587,0.007462064438173095,75.54636208292115,63.69990268070424,0.28433660279320494,11.528504186994343,0.008500575981499182,0.006504956764701307,0.007454646349766426,0.004559412610593013,-595.1457641904424,3585.3420842973514,620.5467218345059,394.34626080207215,3452.6258919005045,-24.86746707832372,Vision,Movement,2
0.342,0.005974758640496898,0.007446391671478169,75.54636208292115,63.69990268070424,0.28494091671979727,11.519497296717851,0.00843719119767008,0.00652792376767524,0.0076614166646366945,0.004606917042627721,-595.1499120832104,3585.3465073768434,620.5582788854142,394.2695408359798,3452.7761013272084,-24.76016086664111,Vision,Movement,2
0.343,0.005940413257712762,0.007431157633325375,75.54636208292115,63.69990268070424,0.28554465015672664,11.510457136244318,0.008367191145175742,0.0065341682556592905,0.007888689776446545,0.0046593423323243125,-595.1540599759786,3585.3509304563354,620.5698359363226,394.19282086988744,3452.9263107539123,-24.652854654958503,Vision,Movement,2
0.34400000000000003,0.00590516569837414,0.0074164703872205175,75.54636208292115,63.69990268070424,0.28614779624879305,11.501383723556097,0.008291204157874052,0.006523871347951617,0.008136713774200121,0.004716873778810768,-595.1582078687468,3585.355353535828,620.581392987231,394.1161009037951,3453.076520180616,-24.545548443275898,Vision,Movement,2
0.34500000000000003,0.005869071674749203,0.007402445757365601,75.54636208292115,63.69990268070424,0.28675034814589273,11.492277077179608,0.008210023887386349,0.00649753019351583,0.008405448293789789,0.004779607295657613,-595.1623557615148,3585.35977661532,620.5929500381393,394.03938093770273,3453.22672960732,-24.43824223159329,Vision,Movement,2
0.34600000000000003,0.005832195790309458,0.007389207705458725,75.54636208292115,63.69990268070424,0.28735229900109593,11.48313721618562,0.008124594714344988,0.0064559523479178005,0.008694548940534452,0.004847542385572325,-595.166503654283,3585.3641996948118,620.6045070890477,393.9626609716104,3453.376939034024,-24.33093601991068,Vision,Movement,2
0.34700000000000003,0.005794612102093752,0.00737688870964777,75.54636208292115,63.69990268070424,0.287953641970969,11.473964160193919,0.00803599078600943,0.0064002419827877115,0.00900335577726423,0.004920577345039297,-595.1706515470512,3585.368622774304,620.616064139956,393.885941005518,3453.527148460728,-24.223629808228075,Vision,Movement,2
0.34800000000000003,0.0057564046952326715,0.007365630077126107,75.54636208292115,63.69990268070424,0.2885543702178069,11.464757929346034,0.007945389240594548,0.006331778201484974,0.009330886407285006,0.004998506888730828,-595.1747994398193,3585.373045853796,620.6276211908645,393.80922103942567,3453.6773578874318,-24.116323596545467,Vision,Movement,2
0.34900000000000003,0.005717668268478905,0.007355581785827919,75.54636208292115,63.69990268070424,0.28915447690546464,11.455518544348347,0.007854038609983226,0.006252186182862237,0.009675833961030025,0.005081022297891691,-595.1789473325874,3585.377468933288,620.6391782417728,393.72103933625084,3453.8339931556734,-23.9910192242385,Vision,Movement,2
0.35000000000000003,0.005678508729429532,0.007346902270863459,75.54636208292115,63.69990268070424,0.28975395520252906,11.446246026441562,0.007763223779485734,0.006163302115204391,0.010036570163083538,0.005167714132482155,-595.1830952253556,3585.3818920127806,620.6507352926812,393.61291120725673,3454.001811071941,-23.834393336423428,Vision,Movement,2
0.35100000000000003,0.0056390437979644955,0.007339758873746803,75.54636208292115,63.69990268070424,0.29035279828279115,11.436940397408582,0.0076742290801050704,0.00606713296193813,0.010411153599492538,0.005258077473971781,-595.1872431181238,3585.3863150922725,620.6622923435896,393.5047830782627,3454.1696289882093,-23.677767448608353,Vision,Movement,2
0.352,0.005599403616248608,0.007334328394230655,75.54636208292115,63.69990268070424,0.29095099932388735,11.427601679579183,0.00758830103448417,0.005965812128234358,0.010797343284374806,0.005351519574732003,-595.191176304337,3585.3891738630955,620.6756467751339,393.39665494926857,3454.337446904477,-23.52114156079329,Vision,Movement,2
0.353,0.005559731363459918,0.007330797520317812,75.54636208292115,63.69990268070424,0.2915485515079506,11.418229895802245,0.0075066120836950094,0.00586155215779669,0.011192617546784526,0.005447369680555591,-595.1946391921874,3585.3886061348703,620.6929382321254,393.28852682027446,3454.505264820745,-23.364515672978214,Vision,Movement,2
