Time,Amplitude_Envelope_P1,Amplitude_Envelope_P2,Filtered_ECG_P1,Filtered_ECG_P2,Filtered_Respiration_P1,Filtered_Respiration_P2,Filtered_EMG_Bicep_P1,Filtered_EMG_Tricep_P1,Filtered_EMG_Bicep_P2,Filtered_EMG_Tricep_P2,right_index_x_P1,right_index_y_P1,right_index_z_P1,right_index_x_P2,right_index_y_P2,right_index_z_P2,ConditionVision,ConditionMovement,Trial
0.0,0.0096603147746964,0.0140545274925488,65.08768757909962,61.20178041543026,0.1762517663698833,6.073129093611036,0.0021662695592442,0.0029338610387756,0.0028015334665888,0.0022239620289055,-563.4835208465896,3675.843468496318,-59.72245356190644,641.6991348459992,3449.2042397976547,-409.6735668488595,Vision,NoMovement,3
0.001,0.009662446380013645,0.014056089462212425,65.08768757909962,61.20178041543026,0.17589984765100658,6.07687288194439,0.00219231052171955,0.002884692739643024,0.0028531444816374965,0.0022436558039119676,-563.6235981754024,3676.1487166694355,-59.77177794833572,642.0493825775712,3450.421538059599,-409.84375915275524,Vision,NoMovement,3
0.002,0.009664596979393845,0.014057646038604467,65.08768757909962,61.20178041543026,0.175545774010443,6.080641701789092,0.00222213744061665,0.0028323026747014723,0.0029053172180621128,0.002262414533432157,-563.7636755042151,3676.4539648425534,-59.821102334765,642.3996303091433,3451.638836321543,-410.013951456651,Vision,NoMovement,3
0.003,0.009666759723252167,0.014059192219019774,65.08768757909962,61.20178041543026,0.17518954333455372,6.08443561120794,0.00225576147010821,0.0027769393686707428,0.0029576680570310094,0.002280011506001865,-563.903752833028,3676.759213015671,-59.87042672119428,642.7498780407152,3452.856134583487,-410.18414376054676,Vision,NoMovement,3
0.004,0.00966892800775299,0.014060723427547585,65.08768757909962,61.20178041543026,0.17483115355647985,6.088254667978574,0.0022931486379314334,0.002718897126021447,0.0030098010117331664,0.0022962295519603306,-564.0438301618408,3677.0644611887888,-59.91975110762356,643.1001257722872,3454.073432845431,-410.3543360644425,Vision,NoMovement,3
0.005,0.009671095870559972,0.014062235115013528,65.08768757909962,61.20178041543026,0.17447060265765207,6.092098929570424,0.0023342177824929055,0.0026585138765299414,0.003061312579128329,0.0023108656447169973,-564.1839074906536,3677.369709361906,-59.96907549405284,643.4503735038593,3455.290731107375,-410.5245283683383,Vision,NoMovement,3
0.006,0.00967325741068468,0.014063722874669742,65.08768757909962,61.20178041543026,0.17410788866768812,6.095968453156242,0.0023788392843433984,0.0025961680417107254,0.003111796602167872,0.002323735510248793,-564.3239848194663,3677.674957535024,-60.01839988048212,643.8006212354313,3456.508029369319,-410.69472067223404,Vision,NoMovement,3
0.007,0.009675407345140842,0.014065182591336762,65.08768757909962,61.20178041543026,0.17374300966428036,6.099863295606361,0.002426834716562828,0.0025322744624859546,0.003160849002417446,0.002334678107592934,-564.377011054679,3677.787628122205,-60.032917794167254,644.1508689670034,3457.7253276312626,-410.8649129761298,Vision,NoMovement,3
0.008,0.009677540409162817,0.014066611034486606,65.08768757909962,61.20178041543026,0.17337596377474224,6.103783513482846,0.0024779775075988403,0.0024672794897282226,0.003208072274938038,0.002343559829553306,-564.4122151688647,3677.86087196698,-60.04030971845804,644.5011166985754,3458.9426258932067,-411.03510528002556,Vision,NoMovement,3
0.009000000000000001,0.00967965122457737,0.014068005892484602,65.08768757909962,61.20178041543026,0.17300674917423342,6.107729163051493,0.002531994661130214,0.0024016553610791587,0.003253079689722975,0.002350278269052095,-564.4474192830504,3677.934115811755,-60.04770164274883,644.7060663994588,3459.662275154832,-411.1458981411643,Vision,NoMovement,3
0.01,0.009681734864563269,0.014069365295107904,65.08768757909962,61.20178041543026,0.1726353640873032,6.1117003002581285,0.0025885695351503687,0.002335893987628895,0.0032954992107840767,0.0023547654047929192,-564.4826233972362,3678.0073596565294,-60.05509356703961,644.8484976105525,3460.1677971925865,-411.2311327518718,Vision,NoMovement,3
0.011,0.009683786830401003,0.014070687412419267,65.08768757909962,61.20178041543026,0.17226180678777472,6.115696980740586,0.0026473456762168552,0.0022705002743110174,0.003334977203088342,0.0023569900916937296,-564.517827511422,3678.0806035013043,-60.0624854913304,644.9909288216463,3460.673319230341,-411.31636736257934,Vision,NoMovement,3
0.012,0.009685803368892357,0.014071970312704766,65.08768757909962,61.20178041543026,0.17188607559895827,6.119719259822874,0.002707931717548735,0.0022059851189111528,0.0033711820192856537,0.002356959795418777,-564.5530316256077,3678.1538473460787,-60.069877415621185,645.1333600327401,3461.1788412680958,-411.40160197328686,Vision,NoMovement,3
0.013000000000000001,0.009687781159269257,0.01407321220912738,65.08768757909962,61.20178041543026,0.17150816889352435,6.123767192512875,0.002769907347674785,0.0021428582601846114,0.003403807546711024,0.0023547215562051407,-564.5882357397935,3678.2270911908536,-60.07726933991197,645.2757912438339,3461.68436330585,-411.4868365839944,Vision,NoMovement,3
0.014,0.0096897166646477,0.014074411389821993,65.08768757909962,61.20178041543026,0.1711280850950878,6.127840833496398,0.0028328303122139467,0.002081621157596131,0.0034325767634188213,0.0023503621724282678,-564.6234398539792,3678.300335035628,-60.08466126420276,645.4182224549277,3462.1898853436046,-411.57207119470195,Vision,NoMovement,3
0.015,0.009691606403563447,0.014075566216717116,65.08768757909962,61.20178041543026,0.1707458226763626,6.131940237149681,0.0028962443347221403,0.002022760068856232,0.0034572453170435835,0.0023440075711591425,-564.6586439681649,3678.373578880403,-60.092053188493544,645.5606536660215,3462.695407381359,-411.65730580540946,Vision,NoMovement,3
0.016,0.009693447315782061,0.0140766754803763,65.08768757909962,61.20178041543026,0.17036138016108884,6.136065457514916,0.002959687756201922,0.0019667394538145544,0.003477605112144727,0.0023358213298181546,-564.6938480823508,3678.4468227251773,-60.09944511278433,645.7030848771152,3463.2009294191134,-411.742540416117,Vision,NoMovement,3
0.017,0.009695237124515654,0.0140777387211843,65.08768757909962,61.20178041543026,0.16997475612215945,6.140216548312771,0.003022702629968554,0.0019139957831572393,0.003493487879461999,0.0023260023571316122,-564.7290521965365,3678.520066569952,-60.10683703707512,645.845516088209,3463.706451456868,-411.8277750268245,Vision,NoMovement,3
0.018000000000000002,0.009696974344908273,0.014078755566646907,65.08768757909962,61.20178041543026,0.16958594918497139,6.144393562936401,0.0030848439724443263,0.0018649317992263845,0.0035047686915951554,0.002314781807723539,-564.7642563107222,3678.5933104147266,-60.1142289613659,645.9879472993028,3464.2119734946227,-411.913009637532,Vision,NoMovement,3
0.019,0.009698658363988422,0.014079725316865212,65.08768757909962,61.20178041543026,0.16919495802554405,6.148596554445409,0.003145688879978348,0.0018199112645665276,0.003511369362606053,0.002302419347071207,-564.799460424908,3678.6665542595015,-60.12162088565669,646.1303785103966,3464.717495532377,-411.99824424823953,Vision,NoMovement,3
0.02,0.009700289096732258,0.014080647429426597,65.08768757909962,61.20178041543026,0.16880178137036295,6.152825575578774,0.003204845266482051,0.0017792542450285685,0.003513261609707335,0.002289198889099152,-564.8346645390938,3678.739798104276,-60.129012809947476,646.2728097214904,3465.2230175701316,-412.08347885894705,Vision,NoMovement,3
0.021,0.009701866709103692,0.014081521800407767,65.08768757909962,61.20178041543026,0.16840641799764525,6.157080678729725,0.0032619600398237814,0.001743232987334061,0.003510469785188717,0.0022754239174502086,-564.8698686532796,3678.813041949051,-60.13640473423826,646.4152409325842,3465.728539607886,-412.16871346965456,Vision,NoMovement,3
0.022,0.009703390655910988,0.014082348637356005,65.08768757909962,61.20178041543026,0.1680088667371925,6.161361915958717,0.0033167265583605985,0.0017120684616453202,0.003503072947996399,0.0022614124899100886,-564.9050727674653,3678.886285793825,-60.14379665852905,646.557672143678,3466.2340616456404,-412.2539480803621,Vision,NoMovement,3
0.023,0.00970485959800866,0.014083128685685814,65.08768757909962,61.20178041543026,0.16760912647059387,6.165669338987327,0.0033688911673173854,0.0016859276389462059,0.003491206061934574,0.0022474920131276585,-564.940276881651,3678.9595296386,-60.151188582819834,646.7001033547717,3466.739583683395,-412.3391826910696,Vision,NoMovement,3
0.024,0.009706272091868301,0.014083862861153809,65.08768757909962,61.20178041543026,0.16720719613107124,6.17000299919214,0.0034182585575204968,0.0016649215546092318,0.003475060163814392,0.0022339938542934503,-564.9754809958368,3679.0327734833745,-60.15858050711062,646.8425345658655,3467.2451057211497,-412.4244173017771,Vision,NoMovement,3
0.025,0.00970762663603109,0.01408455178661651,65.08768757909962,61.20178041543026,0.1668030747051305,6.174362947618084,0.003464695699983014,0.0016491041811716302,0.0034548814003238938,0.00222124783262972,-565.0106851100226,3679.1060173281494,-60.16597243140141,646.9799727027219,3467.734682047885,-412.50918065158663,Vision,NoMovement,3
0.026000000000000002,0.00970892181695215,0.014085196263265647,65.08768757909962,61.20178041543026,0.16639676123058603,6.178749234948776,0.0035081342251522558,0.0016384721066148896,0.003430968871772339,0.002209576616503208,-565.0458892242083,3679.1792611729243,-60.17336435569219,647.0711902167429,3468.0766497752347,-412.58958156431095,Vision,NoMovement,3
0.027,0.00971015649301527,0.014085797117455631,65.08768757909962,61.20178041543026,0.16598825479857493,6.183161911539674,0.003548571271171488,0.0016329649943053787,0.0034036712510220656,0.0021992900526268356,-565.0810933383941,3679.2525050176987,-60.18075627998298,647.1624077307641,3468.418617502584,-412.6699824770352,Vision,NoMovement,3
0.028,0.009711330130739071,0.014086355052053374,65.08768757909962,61.20178041543026,0.16557755455155737,6.1876010273721915,0.0035860689340455345,0.0016324667779172234,0.00337338217512472,0.00219067948422014,-565.1162974525798,3679.3257488624736,-60.188148204273766,647.2536252447853,3468.760585229933,-412.75038338975946,Vision,NoMovement,3
0.029,0.009712442119218253,0.0140868709279804,65.08768757909962,61.20178041543026,0.1651646596868389,6.192066632087271,0.0036207524723739434,0.0016368075172102446,0.0033405344289975675,0.0021840121673655224,-565.1515015667655,3679.398992707248,-60.19554012856455,647.3448427588065,3469.102552957282,-412.8307843024838,Vision,NoMovement,3
0.03,0.009713490751630579,0.014087346304965529,65.08768757909962,61.20178041543026,0.16474956945455085,6.196558774979264,0.003652807391390893,0.0016457658157120907,0.003305592966724756,0.002179525947583666,-565.1867056809514,3679.472236552023,-60.20293205285534,647.4360602728276,3469.4445206846317,-412.91118521520804,Vision,NoMovement,3
0.031,0.00971447334854766,0.014087782986718094,65.08768757909962,61.20178041543026,0.16433228315746545,6.2010775049734885,0.0036824754972831874,0.0016590716949416563,0.0032690468548792185,0.0021774243852756567,-565.2237729487654,3679.549047037572,-60.209454622267096,647.5272777868488,3469.786488411981,-412.99158612793235,Vision,NoMovement,3
0.032,0.00971538723876443,0.014088182691616689,65.08768757909962,61.20178041543026,0.16391280015231197,6.205622870640107,0.0037100500070091857,0.0016764098369313602,0.0032314002870951946,0.0021778725183786026,-565.2713731646511,3679.646020778317,-60.2110624762962,647.61849530087,3470.12845613933,-413.0719870406566,Vision,NoMovement,3
0.033,0.009716230134848455,0.014088546795938984,65.08768757909962,61.20178041543026,0.16349111984959452,6.210194920187842,0.0037358698123667175,0.001697423137575955,0.0031931629015045605,0.0021809934385899395,-565.3189733805369,3679.7429945190615,-60.212670330325295,647.7097128148912,3470.470423866679,-413.1523879533809,Vision,NoMovement,3
0.034,0.009717000235386328,0.014088876570831771,65.08768757909962,61.20178041543026,0.16306724171341241,6.214793701461703,0.003760313002765133,0.0017217165369351065,0.003154839699416386,0.0021868658420812646,-565.3665735964227,3679.839968259806,-60.2142781843544,647.8009303289123,3470.8123915940287,-413.2327888661052,Vision,NoMovement,3
0.035,0.009717695479473933,0.014089173709262711,65.08768757909962,61.20178041543026,0.16264116526317132,6.219419261936662,0.003783789736879473,0.0017488610988083898,0.003116920895373951,0.002195522685782993,-565.4141738123085,3679.9369420005505,-60.215886038383495,647.8921478429335,3471.154359321378,-413.31318977882944,Vision,NoMovement,3
0.036000000000000004,0.009718313296477307,0.014089439737811342,65.08768757909962,61.20178041543026,0.16221289007148337,6.224071648731989,0.0038067345362725593,0.0017783983114980806,0.0030798720289699146,0.0022069510259146554,-565.4617740281942,3680.033915741295,-60.21749389241259,647.9833653569547,3471.496327048727,-413.39359069155375,Vision,NoMovement,3
0.037,0.009718851583558785,0.014089675951305057,65.08768757909962,61.20178041543026,0.16178241576589092,6.228750908584025,0.0038295980663684663,0.001809844591025914,0.0030441246479185214,0.0022210930467100034,-565.50937424408,3680.1308894820395,-60.219101746441694,648.0745828709759,3471.838294776076,-413.473991604278,Vision,NoMovement,3
0.038,0.009719308509082446,0.01408988328718932,65.08768757909962,61.20178041543026,0.16134974202904348,6.233457087860629,0.003852838467459959,0.001842695994572047,0.0030100678279031704,0.0022378482232286883,-565.5569744599658,3680.227863222784,-60.22070960047079,648.165800384997,3472.1802625034256,-413.5543925170023,Vision,NoMovement,3
0.039,0.009719682571620399,0.01409006277409639,65.08768757909962,61.20178041543026,0.1609148685965787,6.238190232554731,0.0038769123025087534,0.0018764331788569232,0.00297804074615798,0.0022570765087090907,-565.6045746758516,3680.3248369635285,-60.222317454499894,648.2570178990181,3472.5222302307748,-413.6347934297266,Vision,NoMovement,3
0.04,0.009719972226398966,0.014090215167269472,65.08768757909962,61.20178041543026,0.16047779526274894,6.242950388277941,0.003902265223009524,0.001910526646578596,0.0029483264952784214,0.002278602395168711,-565.6521748917374,3680.4218107042734,-60.22392530852899,648.3482354130393,3472.864197958124,-413.7151943424509,Vision,NoMovement,3
0.041,0.009720175001606128,0.014090340691460715,65.08768757909962,61.20178041543026,0.16003852187435808,6.247737600275311,0.003929322517231489,0.0019444423097660852,0.0029211473192158185,0.0023022196689889245,-565.6997751076232,3680.518784445018,-60.225533162558094,648.4394529270605,3473.206165685473,-413.79559525517516,Vision,NoMovement,3
0.042,0.009720288317975223,0.014090439463649452,65.08768757909962,61.20178041543026,0.15959704833446958,6.252551913397448,0.003958479740497564,0.0019776473639778517,0.0028966614508951502,0.0023276966742392996,-565.747375323509,3680.6157581857624,-60.22714101658719,648.5034845466984,3473.456045834452,-413.86486630377823,Vision,NoMovement,3
0.043000000000000003,0.00972031021769043,0.014090511907492458,65.08768757909962,61.20178041543026,0.15915337460180473,6.257393372115437,0.0039900935973874,0.002009616442280778,0.0028749617077798726,0.0023547819026047685,-565.7949755393947,3680.712731926507,-60.22874887061629,648.5398724263291,3473.6122875311344,-413.92282004695284,Vision,NoMovement,3
0.044,0.009720239118111382,0.014090558586815285,65.08768757909962,61.20178041543026,0.15870750069092052,6.262262020514323,0.004024473153261215,0.002039838002948466,0.0028560759594615315,0.0023832097377679594,-565.8425757552806,3680.8097056672514,-60.23035672464539,648.5762603059599,3473.7685292278165,-413.98077379012744,Vision,NoMovement,3
0.045,0.009720073881698158,0.014090580042592633,65.08768757909962,61.20178041543026,0.15825942667200124,6.26715790229085,0.004061871364737608,0.002067820900924746,0.002839969519703322,0.0024127061921424063,-565.8901759711663,3680.906679407996,-60.23196457867449,648.6126481855906,3473.924770924499,-414.03872753330205,Vision,NoMovement,3
0.046,0.009719813801919556,0.014090576829333125,65.08768757909962,61.20178041543026,0.15780915267263199,6.272081060746958,0.004102476911869719,0.002093101083214524,0.00282654943317076,0.002442994489852446,-565.9154466210957,3680.959081907966,-60.22874554779711,648.6490360652213,3474.0810126211813,-414.09668127647666,Vision,NoMovement,3
0.047,0.00971945875749945,0.014090549117685893,65.08768757909962,61.20178041543026,0.15735667887556745,6.277031538805098,0.0041464064324503854,0.0021152483227657405,0.0028156705227341105,0.0024738003815308056,-565.9334232134671,3680.9969250028726,-60.22394979230259,648.685423944852,3474.2372543178635,-414.15463501965127,Vision,NoMovement,3
0.048,0.009719008968198396,0.014090497033555494,65.08768757909962,61.20178041543026,0.15690200552052383,6.28200937897955,0.004193697458394138,0.002133872865527368,0.002807142952670547,0.0025048571151227703,-565.9513998058386,3681.0347680977793,-60.219154036808064,648.7218118244828,3474.3934960145457,-414.2125887628258,Vision,NoMovement,3
0.049,0.009718464915012088,0.014090421438348337,65.08768757909962,61.20178041543026,0.1564451329043374,6.287014623391902,0.004244302530678043,0.0021486318296878547,0.002800740976194745,0.0025359100104169626,-565.96937639821,3681.072611192686,-60.21435828131354,648.7581997041135,3474.5497377112283,-414.2705425060004,Vision,NoMovement,3
0.05,0.009717826250680225,0.01409032315252808,65.08768757909962,61.20178041543026,0.15598606137872292,6.292047313764359,0.004298085023225758,0.0021592351752104926,0.0027962124994350833,0.002566720575491234,-565.9873529905814,3681.1104542875923,-60.20956252581902,648.7945875837443,3474.7059794079105,-414.32849624917503,Vision,NoMovement,3
0.051000000000000004,0.009717092412624853,0.014090202746723844,65.08768757909962,61.20178041543026,0.1555247913561596,6.297107491413179,0.004354817122634649,0.0021654510607123554,0.00279328910120519,0.0025970700758019987,-566.0053295829528,3681.148297382499,-60.20476677032449,648.830975463375,3474.8622211045927,-414.38644999234964,Vision,NoMovement,3
0.052000000000000005,0.009716262989274712,0.0140900607497114,65.08768757909962,61.20178041543026,0.15506132330349245,6.3021951972644255,0.004414180246676381,0.0021671104212214365,0.0027916961661399228,0.002626762442016985,-566.0233061753243,3681.186140477406,-60.19997101482996,648.8673633430058,3475.018462801275,-414.44440373552425,Vision,NoMovement,3
0.053,0.009715337789443897,0.014089897393575898,65.08768757909962,61.20178041543026,0.1545956577458113,6.307310471824603,0.0044757679882312645,0.0021641106304542243,0.002791162793572057,0.0026556263977904437,-566.0412827676956,3681.2239835723126,-60.19517525933544,648.9037512226364,3475.1747044979575,-414.50235747869885,Vision,NoMovement,3
0.054,0.009714317329700503,0.014089712316215206,65.08768757909962,61.20178041543026,0.15412779526579393,6.312453355196641,0.004539091501015516,0.002156418154460269,0.0027914311435906784,0.002683516713026288,-566.059259360067,3681.2618266672193,-60.190379503840916,648.9401391022672,3475.3309461946396,-414.56031122187346,Vision,NoMovement,3
0.055,0.00971320211941342,0.014089504727005632,65.08768757909962,61.20178041543026,0.1536577365038684,6.317623887073084,0.00460358709610055,0.0021440701408045027,0.002792264894968277,0.0027103145346315835,-566.0772359524384,3681.299669762126,-60.18558374834639,648.9765269818979,3475.487187891322,-414.61826496504807,Vision,NoMovement,3
0.056,0.009711992478409037,0.014089273603746472,65.08768757909962,61.20178041543026,0.15318548215797517,6.322822106729452,0.004668625707684204,0.0021271748990844544,0.0027934565228485,0.0027359268091153984,-566.0952125448099,3681.337512857033,-60.18078799285187,649.0129148615287,3475.643429588004,-414.6762187082227,Vision,NoMovement,3
0.057,0.009710689337459314,0.014089017434323722,65.08768757909962,61.20178041543026,0.1527110329854025,6.328048053040377,0.00473352382311195,0.0021059112116065936,0.0027948331533821573,0.0027602848828251997,-566.1131891371813,3681.3753559519396,-60.17599223735734,649.0493027411594,3475.7996712846866,-414.7341724513973,Vision,NoMovement,3
0.058,0.009709293485317214,0.014088734605317272,65.08768757909962,61.20178041543026,0.1522343898004209,6.333301764445143,0.004797555476184773,0.0020805263948903362,0.002796260820706752,0.0027833424364334925,-566.1311657295527,3681.4131990468463,-60.171196481862815,649.0856906207902,3475.955912981369,-414.7921261945719,Vision,NoMovement,3
0.059000000000000004,0.009707805709421143,0.01408842318753273,65.08768757909962,61.20178041543026,0.1517555534761444,6.338583278987231,0.00485996496508951,0.0020513330512816094,0.0027976470451497116,0.002805072953300402,-566.149142321924,3681.4510421417526,-60.166400726368295,649.1220785004209,3476.112154678051,-414.8500799377465,Vision,NoMovement,3
0.06,0.009706227894764833,0.014088080944339543,65.08768757909962,61.20178041543026,0.15127452494466592,6.343892634260631,0.004919980051796465,0.002018704514186889,0.002798941759976482,0.0028254669062435906,-566.1671189142954,3681.4888852366594,-60.16160497087377,649.1584663800516,3476.268396374733,-414.9080336809211,Vision,NoMovement,3
0.061,0.009704561715451173,0.014087705836089336,65.08768757909962,61.20178041543026,0.15079130519469666,6.349229867450209,0.0049768254715010975,0.0019830690743665802,0.002800136711919117,0.0028445287890343438,-566.1850955066669,3681.526728331566,-60.15680921537924,649.1700553707062,3476.3397437050817,-414.9533892861266,Vision,NoMovement,3
0.062,0.009702808279322815,0.01408729603110892,65.08768757909962,61.20178041543026,0.15030589527770424,6.35459501532473,0.005029736584832971,0.0019449031336208585,0.002801263528919574,0.0028622740535627906,-566.1970479942687,3681.551529869899,-60.151541793673424,649.1761617803672,3476.392322443024,-414.9959596733391,Vision,NoMovement,3
0.063,0.009700969273645723,0.014086849688378991,65.08768757909962,61.20178041543026,0.1498182963011817,6.359988114210903,0.00507797294387051,0.0019047234377861924,0.002802390684036022,0.0028787259816488026,-566.1949845281486,3681.5459883347958,-60.14517697209782,649.1822681900283,3476.444901180966,-415.0385300605515,Vision,NoMovement,3
0.064,0.009699046969651915,0.014086365320827942,65.08768757909962,61.20178041543026,0.1493285094326939,6.365409200010325,0.005120831455018733,0.001863078521083761,0.0028036195872063103,0.0028939125228888106,-566.1929210620284,3681.540446799693,-60.13881215052222,649.1883745996893,3476.497479918908,-415.081100447764,Vision,NoMovement,3
0.065,0.009697045468964086,0.014085841957355169,65.08768757909962,61.20178041543026,0.14883653589916512,6.370858308192529,0.005157658795493831,0.0018205394802110445,0.0028050800079817894,0.002907863146316903,-566.1908575959083,3681.5349052645906,-60.132447328946625,649.1944810093503,3476.5500586568505,-415.12367083497645,Vision,NoMovement,3
0.066,0.009694970084063143,0.01408527857723854,65.08768757909962,61.20178041543026,0.1483423769870243,6.37633547379276,0.005187862789832531,0.0017776902264183935,0.0028069249877559492,0.0029206057651460274,-566.1887941297881,3681.5293637294876,-60.126082507371024,649.2005874190113,3476.6026373947925,-415.16624122218894,Vision,NoMovement,3
0.067,0.009692826865039438,0.014084674194647559,65.08768757909962,61.20178041543026,0.14784603404193714,6.381840731405165,0.005210922572882003,0.0017351174152011417,0.0028093253649353928,0.002932163798856428,-566.1867306636681,3681.523822194385,-60.11971768579543,649.2066938286723,3476.655216132735,-415.2088116094014,Vision,NoMovement,3
0.068,0.009690622282012399,0.014084028172296705,65.08768757909962,61.20178041543026,0.14734750847069947,6.387374115200002,0.005226397513862875,0.0016934002923081166,0.002812464027505793,0.0029425534507399906,-566.1846671975479,3681.518280659282,-60.11335286421983,649.2128002383333,3476.707794870677,-415.2513819966138,Vision,NoMovement,3
0.069,0.009688363363653087,0.014083339957639612,65.08768757909962,61.20178041543026,0.14684680173873874,6.392935658892139,0.00523393501232423,0.0016531006993019562,0.0028165300214771844,0.002951781311658301,-566.1826037314278,3681.5127391241795,-60.106988042644225,649.2189066479943,3476.760373608619,-415.2939523838263,Vision,NoMovement,3
0.07,0.009686057425099232,0.014082608980955072,65.08768757909962,61.20178041543026,0.14634391537204236,6.398525395758592,0.00523327735709385,0.0016147534607870169,0.0028217126615077345,0.0029598424471188275,-566.1805402653076,3681.507197589077,-60.10062322106863,649.2250130576554,3476.8129523465614,-415.33652277103874,Vision,NoMovement,3
0.07100000000000001,0.009683712247652534,0.014081834862188437,65.08768757909962,61.20178041543026,0.14583885095726717,6.404143358631383,0.0052242678298395325,0.0015788573391306965,0.0028281957888995324,0.0029667191610721023,-566.1784767991875,3681.501656053974,-60.09425839949303,649.2311194673164,3476.8655310845033,-415.37909315825124,Vision,NoMovement,3
0.07200000000000001,0.009681335012982921,0.014081017484980475,65.08768757909962,61.20178041543026,0.14533161013926232,6.409789579890661,0.005206856127470762,0.0015458667107221312,0.0028361522949824874,0.0029723806296420153,-566.1764133330674,3681.4961145188713,-60.087893577917434,649.2372258769775,3476.9181098224453,-415.4216635454637,Vision,NoMovement,3
0.073,0.009678932299726219,0.014080157439284025,65.08768757909962,61.20178041543026,0.14482219462745227,6.415464091482362,0.005181103010606667,0.0015161841026822287,0.0028457389867163813,0.002976783549026634,-566.1743498669473,3681.4905729837683,-60.08152875634183,649.2433322866385,3476.9706885603878,-415.4642339326761,Vision,NoMovement,3
0.074,0.00967651120165514,0.014079255830168886,65.08768757909962,61.20178041543026,0.14431060618877697,6.421166924886043,0.005147183911562196,0.0014901537291817986,0.002857091839210675,0.0029798738599663413,-566.1722864008271,3681.4850314486657,-60.07516393476624,649.2494386962995,3477.0232672983298,-415.5068043198886,Vision,NoMovement,3
0.075,0.009674079353267306,0.014078314140971288,65.08768757909962,61.20178041543026,0.14379684665190284,6.426898111132899,0.005105391110293316,0.0014680561728373969,0.002870321674896827,0.0029815895260941225,-566.170222934707,3681.479489913563,-60.068799113190636,649.2555451059606,3477.075846036272,-415.54937470710104,Vision,NoMovement,3
0.076,0.009671644705486064,0.014077333812679418,65.08768757909962,61.20178041543026,0.14328091790645273,6.4326576807985125,0.005056134042762372,0.001450104338120836,0.0028855103225010597,0.002981864273196932,-566.1681594685869,3681.47394837846,-60.062434291615034,649.2616515156216,3477.128424774214,-415.59194509431353,Vision,NoMovement,3
0.077,0.009669216085970267,0.014076316232853912,65.08768757909962,61.20178041543026,0.1427628219031333,6.438445663995914,0.004999937366602534,0.0014364407673488474,0.0029027073156857553,0.002980632136528788,-566.1660960024667,3681.4684068433576,-60.05606947003944,649.2647581445228,3477.1680133524646,-415.63073298896444,Vision,NoMovement,3
0.078,0.009666802036818046,0.014075262793973009,65.08768757909962,61.20178041543026,0.14224256065343654,6.444262090393705,0.004937436543621387,0.0014271363623486514,0.002921927180735391,0.002977832594847547,-566.1640325363467,3681.462865308255,-60.04970464846384,649.2570582361975,3477.160805629407,-415.6558946722517,Vision,NoMovement,3
0.079,0.009664410416536675,0.014074174624122195,65.08768757909962,61.20178041543026,0.1417201362315872,6.450106989183212,0.004869370844181377,0.0014221905109347,0.002943147351432083,0.002973415986346522,-566.1592328403733,3681.446157468772,-60.043298111035575,649.2493583278722,3477.15359790635,-415.681056355539,Vision,NoMovement,3
0.08,0.009662048346975337,0.014073052565781478,65.08768757909962,61.20178041543026,0.14119555077191343,6.455980389097012,0.00479657378190369,0.0014215325801285273,0.002966306756202804,0.002967348823889986,-566.1539405202835,3681.4274392752163,-60.03688406318744,649.2416584195469,3477.1463901832926,-415.70621803882625,Vision,NoMovement,3
0.081,0.009659722236034486,0.014071897616784724,65.08768757909962,61.20178041543026,0.14066880647082847,6.461882318401584,0.004719961052626504,0.001425024705135332,0.0029913051427286684,0.00295961859329524,-566.1486482001937,3681.4087210816606,-60.03047001533931,649.2339585112214,3477.139182460235,-415.7313797221135,Vision,NoMovement,3
0.082,0.009657437811753463,0.014070710993518082,65.08768757909962,61.20178041543026,0.14013990558648565,6.467812804890301,0.004640516099837702,0.0014324657680016043,0.0030180032226787756,0.0029502376556945664,-566.143355880104,3681.3900028881053,-60.02405596749118,649.2262586028961,3477.131974737178,-415.7565414054008,Vision,NoMovement,3
0.083,0.009655200158035199,0.014069493841640211,65.08768757909962,61.20178041543026,0.1396088504384648,6.473771875902011,0.0045592734943252135,0.0014435964230449503,0.0030462237181159307,0.0029392459790492714,-566.1380635600142,3681.3712846945496,-60.01764191964305,649.2185586945708,3477.1247670141206,-415.78170308868806,Vision,NoMovement,3
0.084,0.00965301375015312,0.01406824730789793,65.08768757909962,61.20178041543026,0.1390756434097444,6.479759558287503,0.004477300414517093,0.0014581049971095854,0.0030757533676326067,0.0029267125640738342,-566.1327712399244,3681.352566500994,-60.011227871794915,649.2108587862454,3477.117559291063,-415.80686477197537,Vision,NoMovement,3
0.085,0.00965088248959848,0.014066972761460097,65.08768757909962,61.20178041543026,0.13854028694401185,6.485775878428562,0.004395676649177464,0.0014756340866230696,0.003106345906874611,0.002912735565010384,-566.1274789198346,3681.333848307438,-60.00481382394678,649.20315887792,3477.1103515680056,-415.8320264552626,Vision,NoMovement,3
0.08600000000000001,0.009648809738143317,0.014065671457668657,65.08768757909962,61.20178041543026,0.13800278354767298,6.4918208622306075,0.004315473694085428,0.0014957876949889192,0.003137725970615345,0.0028974412019717273,-566.1221865997449,3681.315130113883,-59.99839977609865,649.1954589695947,3477.1031438449486,-415.85718813854993,Vision,NoMovement,3
0.08700000000000001,0.00964679835104641,0.01406434426625877,65.08768757909962,61.20178041543026,0.1374631357894986,6.497894535120525,0.0042377336239098435,0.0015181387942954894,0.0031695937809735958,0.0028809816077521497,-566.1168942796551,3681.296411920327,-59.99198572825052,649.1877590612694,3477.095936121891,-415.8823498218372,Vision,NoMovement,3
0.088,0.009644850709351142,0.014062992161292797,65.08768757909962,61.20178041543026,0.1369213463007324,6.503996922039593,0.004163448465992273,0.0015422372320016246,0.003201630406461334,0.002863531772589832,-566.1116019595653,3681.2776937267713,-59.985571680402394,649.180059152944,3477.0887283988336,-415.90751150512443,Vision,NoMovement,3
0.089,0.009642968751226232,0.014061616461894596,65.08768757909962,61.20178041543026,0.13637741777476073,6.51012804746249,0.004093540774749476,0.0015676179198084257,0.0032335033237860028,0.002845285773143337,-566.1063096394755,3681.2589755332156,-59.97915763255426,649.1723592446186,3477.0815206757766,-415.93267318841174,Vision,NoMovement,3
0.09,0.009641154002315322,0.014060219008541536,65.08768757909962,61.20178041543026,0.13583135296911247,6.51628793535804,0.004028846025664221,0.0015938092356935884,0.0032648720008854413,0.0028264524965865814,-566.1010173193857,3681.2402573396603,-59.97274358470613,649.1646593362933,3477.074312952719,-415.957834871699,Vision,NoMovement,3
0.091,0.009639407605064073,0.01405880171235315,65.08768757909962,61.20178041543026,0.13528315470269758,6.522476609235276,0.003970097338807014,0.0016203415506478337,0.0032953932490105563,0.002807251074157185,-566.095724999296,3681.2215391461045,-59.966329536858,649.1569594279679,3477.0671052296616,-415.9829965549863,Vision,NoMovement,3
0.092,0.009637730346999841,0.014057366054199365,65.08768757909962,61.20178041543026,0.13473282585784954,6.528694092081866,0.00391791292678138,0.0016467557637426871,0.003324726153128087,0.0027879062117536673,-566.0904326792062,3681.202820952549,-59.959915489009866,649.1492595196426,3477.0598975066046,-416.00815823827355,Vision,NoMovement,3
0.093,0.009636122687948272,0.014055913186154047,65.08768757909962,61.20178041543026,0.1341803693799392,6.534940406411534,0.0038727865435333113,0.0016726116967666204,0.0033525364836633847,0.0027686435539909047,-566.0851403591164,3681.184102758993,-59.953501441161734,649.1415596113172,3477.052689783547,-416.03331992156086,Vision,NoMovement,3
0.094,0.009634584786171728,0.014054444528133623,65.08768757909962,61.20178041543026,0.13362578827703028,6.541215574256202,0.0038350811031517495,0.001697496165745269,0.003378500599928743,0.002749685166848585,-566.0798480390266,3681.1653845654378,-59.9470873933136,649.1352645216152,3477.041047847664,-416.05692007774627,Vision,NoMovement,3
0.095,0.00963311652342538,0.014052961924465196,65.08768757909962,61.20178041543026,0.1330690856219011,6.547519617136528,0.0038050255373327613,0.001721030529503666,0.003402308955519188,0.0027312451845829147,-566.0777666888638,3681.1522445084934,-59.940431748148946,649.1298466230593,3477.0266371185958,-416.07954519151343,Vision,NoMovement,3
0.096,0.009631717528925296,0.014051467512564605,65.08768757909962,61.20178041543026,0.13251026454922463,6.553852556082051,0.0037827148571289663,0.0017428775265730173,0.003423669367305055,0.0027135256517558768,-566.080618702063,3681.1476747513075,-59.93340491067268,649.1244287245032,3477.012226389528,-416.1021703052806,Vision,NoMovement,3
0.097,0.009630387202233479,0.014049963714607192,65.08768757909962,61.20178041543026,0.13194932825763675,6.560214411623623,0.003768113270035211,0.0017627472400608933,0.0034423101971550168,0.002696712605774098,-566.0834707152621,3681.143104994121,-59.92637807319641,649.1190108259473,3476.99781566046,-416.12479541904776,Vision,NoMovement,3
0.098,0.009629124735062047,0.014048452810052865,65.08768757909962,61.20178041543026,0.13138628000933164,6.566605203791288,0.003761060081073258,0.0017804020623701756,0.0034579835383138752,0.0026809724773985185,-566.0863227284613,3681.1385352369352,-59.91935123572015,649.1135929273912,3476.9834049313927,-416.1474205328149,Vision,NoMovement,3
0.099,0.00962792913200971,0.014046936560234403,65.08768757909962,61.20178041543026,0.13082112312970276,6.573024952107082,0.003761278006801396,0.0017956605657309522,0.003470468421428755,0.0026664489119491218,-566.0891747416604,3681.133965479749,-59.91232439824388,649.1081750288353,3476.9689942023247,-416.1700456465821,Vision,NoMovement,3
0.1,0.009626799230239609,0.014045416255442101,65.08768757909962,61.20178041543026,0.1302538610093869,6.5794736756051835,0.003768383473408482,0.001808400228213856,0.003479573974847025,0.0026532601130508458,-566.0920267548596,3681.129395722563,-59.905297560767615,649.1027571302792,3476.9545834732567,-416.19267076034924,Vision,NoMovement,3
0.101,0.009625733718116336,0.014043893153564609,65.08768757909962,61.20178041543026,0.12968449710138463,6.585951392796128,0.0037818984472344592,0.0018185590065609388,0.003485142398203188,0.0026414967881741966,-566.0948787680587,3681.1248259653767,-59.89827072329135,649.0973392317231,3476.940172744189,-416.2152958741164,Vision,NoMovement,3
0.10200000000000001,0.009624731152818923,0.014042368693452137,65.08768757909962,61.20178041543026,0.12911303492315448,6.5924581216875655,0.0038012633300169457,0.0018261357632048797,0.0034870515516783095,0.0026312207418523422,-566.0977307812578,3681.1202562081908,-59.891243885815086,649.0919213331672,3476.925762015121,-416.23792098788357,Vision,NoMovement,3
0.10300000000000001,0.009623789976951107,0.014040844702940397,65.08768757909962,61.20178041543026,0.1285394780561897,6.598993879776455,0.0038258504351319595,0.0018311895366638561,0.0034852169424246108,0.0026224641251201713,-566.1005827944571,3681.1156864510044,-59.88421704833882,649.0865034346111,3476.9113512860536,-416.26054610165073,Vision,NoMovement,3
0.10400000000000001,0.009622908534170744,0.014039323608978384,65.08768757909962,61.20178041543026,0.12796383014564464,6.605558684041812,0.003854977571350086,0.00183383760686193,0.003479592922284478,0.0026152293160527783,-566.1034348076562,3681.1111166938185,-59.87719021086255,649.0810855360552,3476.8969405569856,-416.2831712154179,Vision,NoMovement,3
0.105,0.009622085083861828,0.014037808446766666,65.08768757909962,61.20178041543026,0.12738609490239947,6.612152550965312,0.0038879213282841866,0.0018342522869336357,0.003470173000995903,0.0026094893949156245,-566.1062868208553,3681.106546936632,-59.87016337338629,649.0756676374991,3476.8825298279176,-416.30579632918506,Vision,NoMovement,3
0.106,0.009621317814877418,0.014036302653532683,65.08768757909962,61.20178041543026,0.12680627610012213,6.618775496494854,0.003923929789376615,0.0018326564004665347,0.0034569893019651215,0.0026051891905605035,-566.1091388340545,3681.1019771794463,-59.86313653591002,649.0702497389432,3476.86811909885,-416.3284214429522,Vision,NoMovement,3
0.107,0.00962060485837749,0.014034810030572656,65.08768757909962,61.20178041543026,0.1262243775773882,6.625427536065843,0.0039622345683220875,0.0018293174792623238,0.0034401112889301585,0.00260224688591556,-566.1119908472537,3681.09740742226,-59.856109698433755,649.0648318403871,3476.853708369782,-416.3510465567194,Vision,NoMovement,3
0.108,0.0096199442997921,0.014033334588115938,65.08768757909962,61.20178041543026,0.12564040323725129,6.632108684593269,0.004002062230590311,0.0018245408196835406,0.0034196439313250015,0.0026005561557990615,-566.1148428604528,3681.092837665074,-59.84908286095749,649.059413941831,3476.8392976407144,-416.37367167048654,Vision,NoMovement,3
0.109,0.009619334189937743,0.014031880151348288,65.08768757909962,61.20178041543026,0.12505435704731102,6.638818956464421,0.00404264526456422,0.0018186616377019358,0.003395725460811926,0.0025999887795953823,-566.117694873652,3681.0882679078877,-59.84205602348123,649.0539960432751,3476.8248869116464,-416.3962967842537,Vision,NoMovement,3
0.11,0.009618772555317831,0.01403045017380696,65.08768757909962,61.20178041543026,0.12446624303932133,6.645558365559948,0.004083232779570721,0.0018120366370233372,0.0033685248377361065,0.00260039765394376,-566.1205468868511,3681.083698150702,-59.83502918600496,649.0486361578292,3476.8106287201126,-416.4190201623144,Vision,NoMovement,3
0.111,0.009618257407635892,0.014029047720231095,65.08768757909962,61.20178041543026,0.1238760653112793,6.652326925216766,0.004123101048773159,0.001805035332834227,0.003338239015297548,0.0026016201317975397,-566.1233989000502,3681.0791283935155,-59.82800234852869,649.0473811395955,3476.807163715163,-416.4486964838768,Vision,NoMovement,3
0.112,0.009617786752554735,0.014027675482161819,65.08768757909962,61.20178041543026,0.12328382802443205,6.659124648249844,0.004161563923244949,0.0017980314577353156,0.003305090058722166,0.0026034816127077426,-566.1313466691927,3681.0894098917793,-59.820817551980234,649.0461261213617,3476.8036987102137,-416.47837280543916,Vision,NoMovement,3
0.113,0.00961735859772987,0.014026335798465052,65.08768757909962,61.20178041543026,0.12268953540588419,6.665951546944197,0.0041979830337736295,0.0017913947339498544,0.003269322152200686,0.0026057992894763255,-566.1396134454376,3681.1006211158815,-59.81362286679769,649.044871103128,3476.800233705264,-416.5080491270016,Vision,NoMovement,3
0.114,0.009616970960150094,0.014025030676488248,65.08768757909962,61.20178041543026,0.1220931917456291,6.67280763304754,0.0042317775793593625,0.0017854832418689377,0.003231198513182559,0.002608385929329451,-566.1478802216824,3681.1118323399837,-59.80642818161513,649.0436160848943,3476.7967687003143,-416.53772544856395,Vision,NoMovement,3
0.115,0.009616621872815492,0.014023761812896818,65.08768757909962,61.20178041543026,0.12149480140128868,6.679692917791826,0.004262433395958279,0.0017806365582544881,0.0031909982298087055,0.0026110535601583844,-566.1561469979273,3681.1230435640864,-59.799233496432585,649.0423610666606,3476.793303695365,-416.56740177012637,Vision,NoMovement,3
0.116,0.009616309390784146,0.014022530614002316,65.08768757909962,61.20178041543026,0.12089436879500624,6.686607411855489,0.004289510952690355,0.0017771697820876823,0.0031490130332170224,0.002613616961267588,-566.1644137741721,3681.1342547881886,-59.79203881125004,649.0411060484269,3476.7898386904153,-416.5970780916888,Vision,NoMovement,3
0.117,0.009616031596617836,0.014021338215533185,65.08768757909962,61.20178041543026,0.12029189841301147,6.693551125385756,0.004312651951189084,0.0017753685203236464,0.003105544014106784,0.0026158969144578033,-566.172680550417,3681.145466012291,-59.78484412606749,649.0398510301932,3476.786373685466,-416.62675441325115,Vision,NoMovement,3
0.11800000000000001,0.00961578660525694,0.014020185501819993,65.08768757909962,61.20178041543026,0.1196873948072625,6.700524067990714,0.004331584297728818,0.0017754848719307552,0.0030608983089248087,0.0026177232243313206,-566.1809473266618,3681.1566772363935,-59.77764944088494,649.0385960119595,3476.7829086805164,-416.65643073481357,Vision,NoMovement,3
0.11900000000000001,0.00961557256835524,0.014019073124377241,65.08768757909962,61.20178041543026,0.11908086259497772,6.707526248737287,0.004346125329881823,0.0017777344183833631,0.003015385803338195,0.00261893753930082,-566.1892141029067,3681.1678884604958,-59.77045475570239,649.0373409937258,3476.7794436755667,-416.686107056376,Vision,NoMovement,3
0.12,0.00961538767810253,0.01401800151986617,65.08768757909962,61.20178041543026,0.11847230645867973,6.714557676143848,0.004356183257770457,0.001782294188548685,0.002969315909375802,0.0026193959957484434,-566.1974808791515,3681.179099684598,-59.76326007051984,649.0360859754921,3476.7759786706174,-416.71578337793835,Vision,NoMovement,3
0.121,0.0096152301705655,0.014016970927431005,65.08768757909962,61.20178041543026,0.11786173114577188,6.721618358202127,0.004361756792295405,0.0017893015166173787,0.0029229944620135,0.0026189716905091324,-566.2057476553963,3681.1903109087,-59.756065385337294,649.0348309572584,3476.7725136656677,-416.74545969950077,Vision,NoMovement,3
0.122,0.009615098328573742,0.01401598140539921,65.08768757909962,61.20178041543026,0.11724914147066778,6.728708302333276,0.004362932890203397,0.0017988536709131477,0.0028767207719018807,0.0026175569806742077,-566.2140144316412,3681.201522132803,-59.74887070015475,649.0335759390247,3476.7690486607185,-416.77513602106313,Vision,NoMovement,3
0.123,0.009614990484179142,0.014015032847343172,65.08768757909962,61.20178041543026,0.1166345423116762,6.735827515440482,0.0043598825054128616,0.001811008111917807,0.0028307848733945596,0.002615065608652848,-566.222281207886,3681.212733356905,-59.74167601497219,649.032320920791,3476.7655836557688,-416.80481234262555,Vision,NoMovement,3
0.124,0.009614905020715056,0.014014124997502712,65.08768757909962,61.20178041543026,0.11601793861366651,6.742976003839599,0.004352854263242207,0.0018257832342008964,0.002785465019965643,0.002611434636059887,-566.2305479841309,3681.2239445810073,-59.734481329789645,649.0310659025573,3476.762118650819,-416.834488664188,Vision,NoMovement,3
0.125,0.009614840374481015,0.014013257465569091,65.08768757909962,61.20178041543026,0.1153993353849867,6.750153773313763,0.004342166100769294,0.0018431594514308016,0.002741025474764973,0.002606626138262758,-566.2388147603757,3681.23515580511,-59.7272866446071,649.0298108843235,3476.75865364587,-416.86416498575034,Vision,NoMovement,3
0.126,0.009614795036079288,0.014012429740835063,65.08768757909962,61.20178041543026,0.11477873770233367,6.757360829104653,0.004328195115314157,0.0018630804962075462,0.002697714624106305,0.002600628577081058,-566.2470815366206,3681.2463670292123,-59.72009195942455,649.0285558660898,3476.75518864092,-416.89384130731275,Vision,NoMovement,3
0.127,0.009614767551426049,0.014011641205717006,65.08768757909962,61.20178041543026,0.11415615070751338,6.764597175879606,0.00431136605587191,0.0018854548336256298,0.002655763405135346,0.00259345774755203,-566.2553483128654,3681.2575782533145,-59.712897274242,649.026151520974,3476.752777811354,-416.9249056527684,Vision,NoMovement,3
0.128,0.00961475652246147,0.014010891148656415,65.08768757909962,61.20178041543026,0.1135315796069705,6.7718628177550615,0.004292139003214579,0.0019101571234184556,0.0026153840130020553,0.002585157196232538,-566.2625205893663,3681.2691505979446,-59.70618774575462,649.0221086725587,3476.751869835215,-416.9579487927378,Vision,NoMovement,3
0.129,0.009614760607582658,0.014010178776411747,65.08768757909962,61.20178041543026,0.11290502967346225,6.779157758288257,0.004270996791852303,0.0019370297074133539,0.0025767688521341407,0.002575798041003053,-566.2685441391939,3681.2811019548,-59.699987411024004,649.0180658241435,3476.750961859076,-416.9909919327072,Vision,NoMovement,3
0.13,0.009614778521818126,0.014009503225750135,65.08768757909962,61.20178041543026,0.1122765062455492,6.786482000469772,0.00424843266727697,0.0019658841401228606,0.0025400897143324076,0.002565478183282751,-566.2745676890215,3681.2930533116546,-59.69378707629338,649.0140229757283,3476.750053882937,-417.0240350726765,Vision,NoMovement,3
0.131,0.009614809036767836,0.014008863574552069,65.08768757909962,61.20178041543026,0.11164601472761553,6.793835546746551,0.004224938589259821,0.001996502805915089,0.0025054971911124373,0.002554320972934259,-566.2805912388491,3681.3050046685094,-59.68758674156276,649.0099801273129,3476.7491459067983,-417.0570782126459,Vision,NoMovement,3
0.132,0.009614850980327544,0.014008258852342113,65.08768757909962,61.20178041543026,0.11101356058941311,6.801218398982075,0.004200994505085898,0.0020286406679409577,0.0024731203448739637,0.0025424734317321656,-566.2866147886767,3681.316956025364,-59.68138640683214,649.0059372788977,3476.7482379306593,-417.09012135261526,Vision,NoMovement,3
0.133,0.009614903236215644,0.014007688050261207,65.08768757909962,61.20178041543026,0.11037914936822872,6.808630558480331,0.00417705882618311,0.002062027187296763,0.0024430666668449658,0.0025301041401662415,-566.2926383385043,3681.328907382219,-59.675186072101525,649.0018944304824,3476.7473299545204,-417.12316449258464,Vision,NoMovement,3
0.134,0.009614964743322883,0.0140071501304936,65.08768757909962,61.20178041543026,0.10974278666564839,6.816072025977411,0.004153560250511594,0.0020963684624331767,0.002415422348123862,0.0025174008542993365,-566.2986618883319,3681.3408587390736,-59.6689857373709,648.9978515820671,3476.746421978381,-417.15620763255396,Vision,NoMovement,3
0.135,0.009615034494900507,0.014006644035165763,65.08768757909962,61.20178041543026,0.1091044781502788,6.823542801634025,0.0041308909977548,0.002131349668478623,0.0023902528825493785,0.002504567873261255,-566.3046854381596,3681.352810095929,-59.66278540264028,648.9938087336519,3476.745514002242,-417.18925077252334,Vision,NoMovement,3
0.136,0.00961511153760456,0.014006168694732424,65.08768757909962,61.20178041543026,0.10846422955455354,6.831042885058982,0.004109401464675846,0.0021666379044532943,0.0023676040053938934,0.0024918231432332696,-566.3107089879871,3681.3647614527836,-59.65658506790966,648.9897658852366,3476.744606026103,-417.2222939124927,Vision,NoMovement,3
0.137,0.009615194970410803,0.014005723035867605,65.08768757909962,61.20178041543026,0.10782204667972871,6.838572275268726,0.004089396246640442,0.002201885554495477,0.0023475029511869617,0.002479395059821116,-566.3167325378148,3681.3767128096383,-59.65038473317904,648.9857230368214,3476.743698049964,-417.25533705246204,Vision,NoMovement,3
0.138,0.00961528394341672,0.014005305988875252,65.08768757909962,61.20178041543026,0.10717793539251123,6.846130970711816,0.00407113139624888,0.0022367342377752294,0.002329959998532972,0.0024675189197588547,-566.3227560876423,3681.388664166493,-59.644184398448424,648.9816801884061,3476.7427900738253,-417.2883801924314,Vision,NoMovement,3
0.139,0.009615377656543415,0.014004916494637778,65.08768757909962,61.20178041543026,0.10653190162455539,6.853718969260668,0.0040548127396263815,0.0022708193662303987,0.002314970269168026,0.00245643298764431,-566.32877963747,3681.400615523348,-59.6379840637178,648.9776373399908,3476.7418820976864,-417.3214233324008,Vision,NoMovement,3
0.14,0.009615475358150702,0.014004553511118805,65.08768757909962,61.20178041543026,0.10588395137416368,6.8613362682096835,0.0040405950848101885,0.002303775267910518,0.0023025157473021596,0.002446374179673988,-566.3348031872976,3681.4125668802026,-59.63178372898718,648.9735944915756,3476.7409741215474,-417.3544664723702,Vision,NoMovement,3
0.14100000000000001,0.00961557634357919,0.014004216019435908,65.08768757909962,61.20178041543026,0.10523409070573791,6.86898286426772,0.004028582228906812,0.0023352407690728164,0.0022925674684096424,0.0024375734087504018,-566.3408267371252,3681.424518237058,-59.62558339425656,648.9695516431603,3476.7400661454085,-417.3875096123395,Vision,NoMovement,3
0.14200000000000002,0.00961567995362857,0.014003903029520955,65.08768757909962,61.20178041543026,0.10458232574977412,6.876658753582119,0.004018827737512018,0.0023648650644560038,0.0022850877973612333,0.0024302506784189158,-566.3468502869528,3681.4364695939125,-59.61938305952594,648.965508794745,3476.7391581692696,-417.4205527523089,Vision,NoMovement,3
0.14300000000000002,0.009615785572986278,0.014003613585381955,65.08768757909962,61.20178041543026,0.10392866270237462,6.884363931697498,0.00401133647570147,0.0023923136549056363,0.0022800326937837275,0.0024246100617535383,-566.3528738367804,3681.4484209507673,-59.61318272479532,648.9614659463298,3476.7382501931306,-417.45359589227826,Vision,NoMovement,3
0.14400000000000002,0.009615892628613771,0.01400334676998401,65.08768757909962,61.20178041543026,0.10327310782744885,6.8920983935808575,0.0040060668286074205,0.0024172741071355687,0.0022773538562212603,0.0024208347467357966,-566.3587252892755,3681.4599981829256,-59.60708114700883,648.9580635643891,3476.737089071397,-417.48320513785876,Vision,NoMovement,3
0.145,0.009616000588102086,0.014003101709762851,65.08768757909962,61.20178041543026,0.1026156674533617,6.899862133613007,0.004002933528647085,0.0024394613975156016,0.0022770006407558346,0.0024190823550282285,-566.3597950709733,3681.4611804768856,-59.603723500164335,648.9548108342689,3476.7358687994956,-417.51201201740326,Vision,NoMovement,3
0.146,0.00961610895800489,0.014002877578785091,65.08768757909962,61.20178041543026,0.10195634797570495,6.907655145581011,0.004001811056384641,0.0024586226335392663,0.0022789216562006287,0.002419480736313764,-566.3608648526709,3681.4623627708456,-59.60036585331984,648.9515581041486,3476.734648527595,-417.5408188969477,Vision,NoMovement,3
0.147,0.009616217282157044,0.014002673602570072,65.08768757909962,61.20178041543026,0.10129515585399665,6.915477422702685,0.004002537681836624,0.0024745410002842754,0.0022830659480259597,0.002422124407192028,-566.3619346343687,3681.463545064805,-59.59700820647535,648.9483053740285,3476.7334282556935,-417.56962577649216,Vision,NoMovement,3
0.148,0.00961632513998674,0.014002489061584527,65.08768757909962,61.20178041543026,0.10063209761679433,6.923328957584759,0.004004920293878427,0.0024870388484875025,0.0022893836978143097,0.0024270717491913295,-566.3630044160665,3681.4647273587652,-59.59365055963085,648.9450526439082,3476.7322079837927,-417.5984326560366,Vision,NoMovement,3
0.149,0.009616432144828733,0.014002323294424399,65.08768757909962,61.20178041543026,0.09996717985819524,6.931209742248505,0.004008740172000573,0.0024959799213111282,0.002297826378579181,0.002434343017659249,-566.3640741977642,3681.4659096527253,-59.59029291278636,648.941799913788,3476.7309877118914,-417.6272395355811,Vision,NoMovement,3
0.15,0.009616537942243895,0.014002175700691526,65.08768757909962,61.20178041543026,0.0993004092372991,6.939119768121336,0.004013759781643464,0.002501270787586265,0.0023083463163172855,0.00244391915231459,-566.365143979462,3681.467091946685,-59.58693526594187,648.9385471836678,3476.7297674399906,-417.65604641512556,Vision,NoMovement,3
0.151,0.009616642208352637,0.014002045743579768,65.08768757909962,61.20178041543026,0.0986317924799349,6.947059026034998,0.004019730554953622,0.0025028615948723717,0.0023208956329015843,0.002455741329427704,-566.3662137611598,3681.468274240645,-59.58357761909737,648.9352944535475,3476.7285471680893,-417.68485329467,Vision,NoMovement,3
0.152,0.009616744648187127,0.01400193295217588,65.08768757909962,61.20178041543026,0.09796133637807089,6.955027506218006,0.0040264014981304065,0.002500746263264664,0.0023354246019945844,0.002469711171521287,-566.3672835428574,3681.469456534605,-59.58021997225288,648.9320417234273,3476.7273268961885,-417.7136601742145,Vision,NoMovement,3
0.153,0.00961684499406662,0.014001836923486657,65.08768757909962,61.20178041543026,0.0972890477897838,6.963025198320427,0.0040335283716687025,0.002494962210818652,0.0023518795205315374,0.002485691548683174,-566.3683533245552,3681.470638828565,-59.576862325408385,648.9287889933071,3476.7261066242872,-417.74246705375896,Vision,NoMovement,3
0.154,0.009616943004001979,0.014001757324197799,65.08768757909962,61.20178041543026,0.09661493363873956,6.971052091365515,0.004040883114956681,0.002485589649557505,0.0023702002434235346,0.0025035079523615805,-566.369423106253,3681.4718211225245,-59.573504678563886,648.9255362631868,3476.7248863523864,-417.7712739333034,Vision,NoMovement,3
0.155,0.00961703846013208,0.014001693892171171,65.08768757909962,61.20178041543026,0.09593900091642346,6.979108173808757,0.00404826310808851,0.0024727504451490063,0.002390317532372994,0.002522950462373827,-566.3704928879507,3681.4730034164845,-59.570147031719394,648.9222835330667,3476.723666080485,-417.8000808128479,Vision,NoMovement,3
0.156,0.009617131167197122,0.014001646437686277,65.08768757909962,61.20178041543026,0.09526125667867612,6.987193433460983,0.004055499779068202,0.00245660651405132,0.0024121503459252737,0.0025437763382212264,-566.3715626696485,3681.4741857104445,-59.5667893848749,648.9190308029464,3476.7224458085843,-417.82888769239236,Vision,NoMovement,3
0.157,0.009617220951051341,0.014001614844429423,65.08768757909962,61.20178041543026,0.09458170804851079,6.995307857550211,0.004062466016160131,0.002437357739536911,0.002435603180944842,0.0025657132584704957,-566.3726324513462,3681.4753680044046,-59.56343173803041,648.9157780728261,3476.721225536683,-417.8576945719368,Vision,NoMovement,3
0.158,0.009617307657218698,0.014001599070233307,65.08768757909962,61.20178041543026,0.09390036221271135,7.003451432712044,0.004069081896286045,0.0024152394099852354,0.0024605635809284475,0.0025884632128402633,-566.373702233044,3681.476550298364,-59.56007409118591,648.912525342706,3476.7200052647822,-417.8865014514813,Vision,NoMovement,3
0.159,0.00961739114949369,0.014001599147569694,65.08768757909962,61.20178041543026,0.0932172264270535,7.011624144953554,0.004075318407696994,0.00239051921405737,0.002486899954691206,0.002611707024419396,-566.3747720147417,3681.477732592324,-59.55671644434142,648.9092726125857,3476.718784992881,-417.91530833102576,Vision,NoMovement,3
0.16,0.009617471308590836,0.014001615183795313,65.08768757909962,61.20178041543026,0.09253230801268203,7.019825979680061,0.0040811990643353545,0.002363493855213634,0.0025144598795970355,0.0026351094435632474,-566.3758417964394,3681.478914886284,-59.55335879749693,648.9099530681955,3476.720613472858,-417.94326803661755,Vision,NoMovement,3
0.161,0.009617548030843278,0.014001647361150152,65.08768757909962,61.20178041543026,0.09184561435554085,7.028056921686303,0.004086799475440607,0.0023344853589327415,0.0025430690824044524,0.002658324717469874,-566.3769115781372,3681.4800971802442,-59.55000115065243,648.9255261092158,3476.7339857244383,-417.96802000900925,Vision,NoMovement,3
0.162,0.009617621226954063,0.014001695936507184,65.08768757909962,61.20178041543026,0.09115715290812106,7.03631695514886,0.004092244996679585,0.0023038371315378717,0.0025725312919028585,0.002681002507702644,-566.377981359835,3681.481279474204,-59.546643503807935,648.941099150236,3476.747357976019,-417.992771981401,Vision,NoMovement,3
0.163,0.009617690820800632,0.014001761240870164,65.08768757909962,61.20178041543026,0.09046693118880761,7.044606063652105,0.004097706580685206,0.002271909805142738,0.002602629129033735,0.002702794003406089,-566.3790511415327,3681.482461768164,-59.54328585696344,648.9566721912564,3476.760730227599,-418.0175239537927,Vision,NoMovement,3
0.164,0.0096177567482939,0.014001843678615487,65.08768757909962,61.20178041543026,0.08977495678133221,7.0529242301444,0.004103394933057547,0.002239076884792612,0.0026331261371983247,0.002723358062826748,-566.3801209232305,3681.483644062124,-59.539928210118944,648.9722452322767,3476.7741024791794,-418.0422759261844,Vision,NoMovement,3
0.165,0.009617818956294244,0.014001943726474007,65.08768757909962,61.20178041543026,0.08908123733702582,7.061271436965412,0.004109553112799885,0.0022057202048723352,0.002663769968247046,0.002742367210850903,-566.3811907049283,3681.484826356084,-59.53657056327445,648.987818273297,3476.7874747307596,-418.06702789857616,Vision,NoMovement,3
0.166,0.009617877401583971,0.014002061932243922,65.08768757909962,61.20178041543026,0.08838578057123406,7.069647665837199,0.004116447806070775,0.0021722251999157396,0.0026942966389979185,0.0027595133201262926,-566.3822604866259,3681.4860086500435,-59.53321291642996,649.0033913143172,3476.80084698234,-418.09177987096786,Vision,NoMovement,3
0.167,0.009617932049897806,0.014002198913231227,65.08768757909962,61.20178041543026,0.08768859426567933,7.07805289785663,0.004124359629906487,0.0021389759997986657,0.002724435677743173,0.002774512810296548,-566.3833302683237,3681.4871909440035,-59.52985526958547,649.0189643553376,3476.8142192339205,-418.1165318433596,Vision,NoMovement,3
0.168,0.00961798287501215,0.014002355354405117,65.08768757909962,61.20178041543026,0.08698968626778802,7.086487113521782,0.004133572948303861,0.0021063503701299695,0.0027539159065070526,0.002787111217297451,-566.3844000500214,3681.4883732379635,-59.52649762274097,649.0345373963579,3476.8275914855008,-418.1412838157513,Vision,NoMovement,3
0.169,0.009618029857893565,0.014002532006261191,65.08768757909962,61.20178041543026,0.0862890644901297,7.094950292687554,0.004144365756648117,0.0020747145472446546,0.0027824715665758716,0.002797087017491296,-566.3854698317192,3681.4895555319235,-59.52313997589648,649.0501104373782,3476.840963737081,-418.166035788143,Vision,NoMovement,3
0.17,0.009618072985906544,0.014002729682381974,65.08768757909962,61.20178041543026,0.08558673691267993,7.103442414593496,0.0041570001763608245,0.0020444180605803824,0.002809848493456486,0.0028042546372929428,-566.386539613417,3681.490737825883,-59.519782329051985,649.0656834783986,3476.854335988661,-418.19078776053476,Vision,NoMovement,3
0.171,0.00961811225208136,0.014002949256681173,65.08768757909962,61.20178041543026,0.08488271157918713,7.111963457855136,0.00417171400271636,0.0020157886754388205,0.002835810065006045,0.0028084666273301474,-566.3872136882567,3681.488787829859,-59.51567701167268,649.0812565194188,3476.8677082402414,-418.21553973292646,Vision,NoMovement,3
0.17200000000000001,0.009618147654442055,0.014003191660320645,65.08768757909962,61.20178041543026,0.08417699659955082,7.120513400462362,0.004188713603414042,0.0019891276101027967,0.0028601426682350337,0.002809615031553619,-566.3869570874011,3681.4794709002094,-59.509813223898725,649.0968295604391,3476.881080491822,-418.2402917053182,Vision,NoMovement,3
0.17300000000000001,0.009618179195394082,0.014003457878285771,65.08768757909962,61.20178041543026,0.08346960014915444,7.129092219771835,0.004208168317237879,0.0019647051780005103,0.0028826604522717483,0.0028076320417789857,-566.3867004865455,3681.4701539705593,-59.50394943612477,649.1124026014594,3476.8944527434023,-418.2650436777099,Vision,NoMovement,3
0.17400000000000002,0.009618206881173279,0.014003748945605196,65.08768757909962,61.20178041543026,0.08276053046878504,7.1376998925339485,0.004230206370230872,0.0019427569888428931,0.002903209176583509,0.0028024900868057396,-566.3864438856899,3681.4608370409096,-59.498085648350816,649.1279756424798,3476.9078249949825,-418.2897956501016,Vision,NoMovement,3
0.17500000000000002,0.00961823072135323,0.014004065943198757,65.08768757909962,61.20178041543026,0.08204979586405578,7.146336394847722,0.004254912212590176,0.001923480815413737,0.0029216690368946995,0.0027942015305421025,-566.3861872848344,3681.4515201112595,-59.49222186057686,649.1435486835001,3476.9211972465628,-418.31454762249336,Vision,NoMovement,3
0.176,0.009618250728414917,0.014004409993338638,65.08768757909962,61.20178041543026,0.08133740470767899,7.155001702189255,0.004282325075162648,0.0019070341992997466,0.0029379564446854202,0.0027828181244458905,-566.3859306839788,3681.44220318161,-59.48635807280291,649.1591217245203,3476.9345694981434,-418.33929959488506,Vision,NoMovement,3
0.177,0.00961826691737407,0.014004782254705592,65.08768757909962,61.20178041543026,0.0806233654357784,7.163695789402672,0.004312438450001568,0.0018935328339796868,0.002952024819264624,0.0027684302875935723,-566.3856740831233,3681.4328862519596,-59.48049428502895,649.1922190493281,3476.9645016583045,-418.36465554202283,Vision,NoMovement,3
0.178,0.009618279305470134,0.014005183917024135,65.08768757909962,61.20178041543026,0.0799076865502831,7.172418630692529,0.004345200131348379,0.0018830497375317149,0.0029638645025696587,0.0027511662012886834,-566.3854174822677,3681.42356932231,-59.474630497255,649.2366502604258,3477.0051439920226,-418.3904021117491,Vision,NoMovement,3
0.179,0.009618287911913518,0.01400561619525752,65.08768757909962,61.20178041543026,0.0791903766182136,7.181170199651215,0.004380512445667399,0.0018756152164388015,0.002973501913223723,0.0027311906321033142,-566.3851608814122,3681.41425239266,-59.468766709481045,649.2810814715235,3477.045786325741,-418.4161486814753,Vision,NoMovement,3
0.18,0.009618292757692345,0.014006080323344414,65.08768757909962,61.20178041543026,0.07847144427109083,7.189950469213275,0.004418232363840665,0.0018712176250074706,0.0029809980263746003,0.002708703357963242,-566.3849042805565,3681.40493546301,-59.462902921707084,649.3255126826213,3477.086428659459,-418.4418952512016,Vision,NoMovement,3
0.181,0.0096182938654387,0.01400657754745881,65.08768757909962,61.20178041543026,0.07775089820721837,7.198759411684378,0.0044581712990000525,0.0018698049201407731,0.0029864462260550412,0.002683937072925089,-566.384647679701,3681.39561853336,-59.45703913393313,649.3699438937191,3477.1270709931778,-418.4676418209278,Vision,NoMovement,3
0.182,0.009618291259352678,0.014007109118773077,65.08768757909962,61.20178041543026,0.07702874718794804,7.207596998732533,0.004500094496358143,0.0018712869813643847,0.0029899695480183094,0.002657154680583334,-566.3843910788454,3681.38630160371,-59.451175346159175,649.4143751048168,3477.167713326896,-418.493388390654,Vision,NoMovement,3
0.183,0.009618284965185237,0.014007676285705354,65.08768757909962,61.20178041543026,0.07630500004008801,7.216463201386589,0.004543719988360819,0.0018755386181939337,0.002991717313590135,0.0026286459315786512,-566.3841344779898,3681.37698467406,-59.44531155838522,649.4588063159146,3477.208355660614,-418.51913496038026,Vision,NoMovement,3
0.184,0.00961827501027854,0.014008280285631452,65.08768757909962,61.20178041543026,0.0755796656551977,7.22535799002867,0.004588717152311306,0.0018824031447041397,0.0029918611389014764,0.0025987234064561065,-566.3838778771343,3681.36766774441,-59.43944777061127,649.5032375270123,3477.2489979943325,-418.54488153010647,Vision,NoMovement,3
0.185,0.009618261423664294,0.014008922336042512,65.08768757909962,61.20178041543026,0.07485275298948009,7.234281334421749,0.004634705005772607,0.0018916963789206652,0.00299059029617995,0.0025677178923884927,-566.3836212762787,3681.3583508147603,-59.43358398283731,649.54766873811,3477.2896403280506,-418.57062809983273,Vision,NoMovement,3
0.186,0.0096182442362187,0.0140096036251283,65.08768757909962,61.20178041543026,0.07412427106317465,7.243233203657194,0.00468125050808148,0.001903210919185365,0.002988106427623968,0.002535973251571748,-566.3833646754231,3681.34903388511,-59.42772019506336,649.5920999492077,3477.330282661769,-418.59637466955894,Vision,NoMovement,3
0.187,0.009618223480873891,0.014010325301767223,65.08768757909962,61.20178041543026,0.07339422896284804,7.252213566220021,0.004727867261056557,0.00191672055505039,0.0029846176823041786,0.0025038409152126403,-566.3831080745675,3681.3397169554605,-59.421856407289404,649.6365311603055,3477.3709249954873,-418.6221212392852,Vision,NoMovement,3
0.188,0.009618199192886076,0.014011088464905784,65.08768757909962,61.20178041543026,0.07266263583760743,7.261222389904937,0.004774015081967037,0.0019319846871834246,0.002980332446546149,0.002471674151819349,-566.3811593351306,3681.3212084738248,-59.41517604809913,649.6809623714033,3477.411567329206,-418.6478678090114,Vision,NoMovement,3
0.189,0.00961817141015867,0.014011894152307986,65.08768757909962,61.20178041543026,0.07192950090152314,7.270259641885259,0.004819100930985178,0.001948752659916586,0.0029754529289613167,0.0024398222437114524,-566.3789005893831,3681.301016064435,-59.40834608987776,649.725393582501,3477.452209662924,-418.6736143787376,Vision,NoMovement,3
0.19,0.00961814017362084,0.014012743328658364,65.08768757909962,61.20178041543026,0.07119483343287392,7.279325288702522,0.0048624816064455284,0.0019667679483324927,0.00297016891390638,0.0024086246768823417,-566.3766418436354,3681.2808236550454,-59.4015161316564,649.7698247935988,3477.492851996642,-418.6993609484639,Vision,NoMovement,3
0.191,0.00961810552766044,0.014013636873003147,65.08768757909962,61.20178041543026,0.07045864277352727,7.288419296227397,0.00490346848640108,0.0019857721767544056,0.0029646520063642693,0.002378405420131474,-566.3743830978877,3681.2606312456555,-59.39468617343504,649.8142560046965,3477.5334943303606,-418.7251075181901,Vision,NoMovement,3
0.192,0.009618067520610543,0.014014575565512763,65.08768757909962,61.20178041543026,0.06972093833123647,7.297541629689785,0.004941334447517308,0.002005508964770846,0.0029590506624368493,0.00234946736958225,-566.3721243521402,3681.2404388362656,-59.387856215213674,649.8586872157942,3477.5741366640787,-418.75085408791637,Vision,NoMovement,3
0.193,0.00961802620528939,0.014015560073554268,65.08768757909962,61.20178041543026,0.06898172957581089,7.306692253669572,0.004975322975619375,0.002025727595324107,0.002953486235854826,0.002322087069668794,-566.3698656063925,3681.220246426876,-59.381026256992314,649.9032126171277,3477.6149280950285,-418.7766096610173,Vision,NoMovement,3
0.194,0.009617981639592692,0.014016590937059321,65.08768757909962,61.20178041543026,0.06824102604155055,7.315871132089093,0.005004659394519066,0.0020461864877282876,0.002948050178931701,0.00229650986199648,-566.3676068606449,3681.2000540174863,-59.37419629877095,649.9645072442752,3477.6822641579956,-418.8039681563621,Vision,NoMovement,3
0.195,0.009617933887137307,0.014017668553179584,65.08768757909962,61.20178041543026,0.06749883732650296,7.325078228241924,0.005028564052324665,0.002066656458096998,0.00294280243319083,0.002272945627851887,-566.3653481148973,3681.1798616080964,-59.36736634054959,650.0258018714227,3477.7496002209627,-418.8313266517069,Vision,NoMovement,3
0.196,0.009617883017955431,0.014018793160219041,65.08768757909962,61.20178041543026,0.06675517309232817,7.334313504745434,0.005046267189737204,0.0020869237589760327,0.0029377709534554966,0.002251565270454247,-566.3630893691496,3681.1596691987065,-59.36053638232823,650.0870964985701,3477.81693628393,-418.8586851470517,Vision,NoMovement,3
0.197,0.009617829109239159,0.014019964820838567,65.08768757909962,61.20178041543026,0.06601004306366459,7.343576923571394,0.005057025093090824,0.0021067928902060392,0.0029329522530438315,0.002232498045066404,-566.360830623402,3681.139476789317,-59.35370642410686,650.1483911257176,3477.884272346897,-418.8860436423965,Vision,NoMovement,3
0.198,0.009617772246132405,0.014021183404528596,65.08768757909962,61.20178041543026,0.06526345703043121,7.352868446036672,0.005060137046763739,0.0021260891506748943,0.002928312848499747,0.0022158298133115985,-566.3585718776544,3681.119284379927,-59.3468764658855,650.2096857528651,3477.951608409864,-418.91340213774123,Vision,NoMovement,3
0.199,0.009617712522571627,0.014022448569348932,65.08768757909962,61.20178041543026,0.06451542484394941,7.362188032795716,0.0050549625651713755,0.002144660865353213,0.002923791504651808,0.002201602279115205,-566.3563131319067,3681.0990919705373,-59.34004650766414,650.2709803800126,3478.018944472831,-418.94076063308603,Vision,NoMovement,3
0.2,0.009617650042171178,0.01402375974293757,65.08768757909962,61.20178041543026,0.06376595641938984,7.371535643869786,0.0050409383813503515,0.0021623811901684904,0.0029193022059364306,0.0021898132490247484,-566.3540543861591,3681.0788995611474,-59.333216549442774,650.33227500716,3478.0862805357983,-418.9681191284308,Vision,NoMovement,3
0.201,0.00961758491915402,0.014025116102794628,65.08768757909962,61.20178041543026,0.06301506173497809,7.380911238598956,0.00501759466366495,0.0021791493856874685,0.002914737791591872,0.0021804179310173236,-566.3517956404115,3681.058707151758,-59.326386591221414,650.3935696343075,3478.153616598765,-418.9954776237756,Vision,NoMovement,3
0.202,0.009617517279325366,0.014026516555850499,65.08768757909962,61.20178041543026,0.062262750831347614,7.390314775673231,0.004984569912949675,0.002194891469501286,0.0029099741934093914,0.0021733312384065472,-566.3481324377343,3681.0384274490198,-59.320764991287746,650.454864261455,3478.220952661732,-419.0228361191204,Vision,NoMovement,3
0.203,0.009617447261087101,0.014027959717332996,65.08768757909962,61.20178041543026,0.06150903381384688,7.399746213123594,0.004941623980856016,0.0022095602136818207,0.0029048752101413005,0.0021684310147112792,-566.3427431944345,3681.018040465053,-59.31662843190422,650.5161588886025,3478.288288724699,-419.05019461446517,Vision,NoMovement,3
0.20400000000000001,0.009617375016491733,0.014029443888970865,65.08768757909962,61.20178041543026,0.06075392084862117,7.409205508320761,0.004888648680707261,0.0022231345320101437,0.0028992977379450322,0.002165562060248857,-566.3373539511348,3680.997653481086,-59.31249187252069,650.57745351575,3478.3556247876663,-419.07755310980997,Vision,NoMovement,3
0.20500000000000002,0.009617300712333313,0.014030967036634884,65.08768757909962,61.20178041543026,0.05999742216506933,7.418692617967686,0.004825675560514066,0.002235618364424782,0.0028930973476464475,0.002164540832298597,-566.331964707835,3680.9772664971197,-59.308355313137156,650.6387481428974,3478.4229608506334,-419.10491160515477,Vision,NoMovement,3
0.20600000000000002,0.009617224531272577,0.014032526767942817,65.08768757909962,61.20178041543026,0.05923954805506381,7.428207498129313,0.004752880559595901,0.0022470391859014433,0.0028861340579393016,0.0021651606953916277,-566.3265754645353,3680.9568795131527,-59.30421875375363,650.7000427700449,3478.4902969136006,-419.13227010049957,Vision,NoMovement,3
0.20700000000000002,0.00961714667299489,0.014034120312985746,65.08768757909962,61.20178041543026,0.058480308872789266,7.4377501041839365,0.004670585442480569,0.0022574462434165354,0.0028782781047434164,0.0021671975950565657,-566.3211862212355,3680.936492529186,-59.3000821943701,650.7613373971924,3478.5576329765677,-419.15962859584437,Vision,NoMovement,3
0.20800000000000002,0.009617067355396976,0.01403574452267868,65.08768757909962,61.20178041543026,0.057719715034081014,7.44732039085494,0.004579256051257639,0.0022669085799265592,0.002869415466576375,0.00217041601199756,-566.3157969779357,3680.916105545219,-59.29594563498657,650.8226320243399,3478.6249690395343,-419.1869870911891,Vision,NoMovement,3
0.209,0.009616986815799663,0.014037395973112899,65.08768757909962,61.20178041543026,0.05695777701873604,7.4569183122013785,0.004479497512069295,0.0022755128587148375,0.002859452900074141,0.0021745750383907097,-566.3104077346361,3680.8957185612526,-59.29180907560304,650.8839266514873,3478.6923051025015,-419.2143455865339,Vision,NoMovement,3
0.21,0.00961690531218334,0.014039071583655648,65.08768757909962,61.20178041543026,0.05619450536654949,7.466543821610531,0.004372046572408988,0.0022833609670690203,0.002848322281823316,0.002179434418125111,-566.3050184913363,3680.8753315772856,-59.28767251621951,650.9451292195545,3478.7715215077,-419.2411972683286,Vision,NoMovement,3
0.211,0.009616823124442888,0.014040769254124159,65.08768757909962,61.20178041543026,0.05542991067978167,7.476196871828069,0.004257761281467875,0.002290567358199504,0.002835984127409671,0.0021847604095049343,-566.2996292480366,3680.854944593319,-59.28353595683598,651.0061959299708,3478.868270516752,-419.2673010119724,Vision,NoMovement,3
0.212,0.009616740555656759,0.01404248686818267,65.08768757909962,61.20178041543026,0.054664003622325076,7.485877414908903,0.004137608289048142,0.002297256090022132,0.0028224302307077094,0.0021903313462508845,-566.2942400047368,3680.834557609352,-59.27939939745245,651.067262640387,3478.9650195258037,-419.2934047556161,Vision,NoMovement,3
0.213,0.009616657933367502,0.014044221877055993,65.08768757909962,61.20178041543026,0.053896794919031626,7.495585402249434,0.004012648134604593,0.002303557546219163,0.002807685407723317,0.002195942767440378,-566.2888507614371,3680.8141706253855,-59.275262838068926,651.1283293508033,3479.0617685348557,-419.3195084992599,Vision,NoMovement,3
0.214,0.009616575610867456,0.014045971233339194,65.08768757909962,61.20178041543026,0.05312829535802551,7.5053207845780845,0.0038840189730304665,0.002309604878051094,0.0027918083402717246,0.002201411953262717,-566.2834615181373,3680.7937836414185,-59.271126278685394,651.1893960612196,3479.1585175439072,-419.34561224290366,Vision,NoMovement,3
0.215,0.009616493968485604,0.01404773156018612,65.08768757909962,61.20178041543026,0.05235851578670394,7.515083511947892,0.0037529191970263388,0.0023155302640437067,0.002774891512061454,0.002206581671268433,-566.2780722748375,3680.773396657452,-59.26698971930186,651.2504627716359,3479.2552665529593,-419.3717159865474,Vision,NoMovement,3
0.216,0.009616413414869547,0.014049500023764816,65.08768757909962,61.20178041543026,0.05158746711421098,7.52487353376709,0.0036205893742805536,0.0023214611210281696,0.002757060232074077,0.0022113229514823356,-566.2726830315378,3680.753009673485,-59.262853159918336,651.3115294820522,3479.3520155620113,-419.39781973019115,Vision,NoMovement,3
0.217,0.009616334388257094,0.014051274373643667,65.08768757909962,61.20178041543026,0.05081516031062338,7.534690798749017,0.003488293839196258,0.002327516400301078,0.002738470758637886,0.0022155367859192474,-566.267293788238,3680.7326226895184,-59.258716600534804,651.3725961924683,3479.448764571063,-419.4239234738349,Vision,NoMovement,3
0.218,0.009616257357730244,0.01405305197253567,65.08768757909962,61.20178041543026,0.050041606406761655,7.544535254938541,0.003357302213973985,0.002333803072810194,0.002719307572850029,0.0022191547596995495,-566.2619045449383,3680.7122357055514,-59.25458004115128,651.4336629028846,3479.545513580115,-419.45002721747863,Vision,NoMovement,3
0.219,0.0096161828244457,0.014054829562287412,65.08768757909962,61.20178041543026,0.04926681649350405,7.554406849740779,0.0032288710891233696,0.00234041286751666,0.0026997798919514986,0.0022221387155906213,-566.2538095117676,3680.696091771942,-59.253470809723474,651.4947296133009,3479.642262589167,-419.4761309611224,Vision,NoMovement,3
0.22,0.009616111322834154,0.014056603364785583,65.08768757909962,61.20178041543026,0.04849080172410082,7.564305529832844,0.003104226059810019,0.0023474192965537745,0.0026801175421606216,0.002224479600472977,-566.2457021505066,3680.679967170472,-59.25237537137438,651.5557963237172,3479.7390115982184,-419.5022347047662,Vision,NoMovement,3
0.221,0.009616043421760622,0.014058369851128166,65.08768757909962,61.20178041543026,0.04771357331013316,7.574231241277948,0.002984544273105092,0.0023548749876293267,0.002660566318326122,0.0022261956449035505,-566.2375947892457,3680.663842569002,-59.25127993302527,651.6168630341334,3479.8357606072705,-419.5283384484099,Vision,NoMovement,3
0.222,0.009615979725636875,0.014060126066479639,65.08768757909962,61.20178041543026,0.04693514252399586,7.584183929433031,0.0028709376206189673,0.002362809343799025,0.0026413829576634467,0.0022273300118328325,-566.2294874279847,3680.6477179675326,-59.250184494676176,651.6779297445497,3479.932509616322,-419.55444219205367,Vision,NoMovement,3
0.223,0.009615920875478764,0.01406186908487123,65.08768757909962,61.20178041543026,0.046155520698027495,7.594163538990543,0.002764436740358253,0.002371226557493791,0.002622829850533182,0.0022279480472829757,-566.2213800667238,3680.6315933660626,-59.24908905632707,651.738996454966,3480.029258625374,-419.58054593569744,Vision,NoMovement,3
0.224,0.009615867549896686,0.014063596625742655,65.08768757909962,61.20178041543026,0.04537471922381344,7.6041700139693615,0.0026659760953759094,0.0023801040162804744,0.0026051696037295044,0.0022281342849790483,-566.2132727054627,3680.6154687645926,-59.247993617977976,651.8000631653823,3480.126007634426,-419.60664967934116,Vision,NoMovement,3
0.225,0.009615820466011255,0.014065306214811512,65.08768757909962,61.20178041543026,0.04459274955450011,7.614203297713814,0.00257638051653245,0.00238939115166701,0.002588659551877514,0.0022279893796400205,-566.2051653442018,3680.599344163123,-59.24689817962887,651.8611298757986,3480.2227566434776,-419.63275342298493,Vision,NoMovement,3
0.226,0.009615780380282478,0.01406699477321357,65.08768757909962,61.20178041543026,0.04380962320072126,7.624263332886364,0.002496353659478789,0.0023990087973306596,0.002573546291191592,0.002227627134897179,-566.1970579829408,3680.583219561653,-59.245802741279775,651.9221965862148,3480.3195056525296,-419.6588571666287,Vision,NoMovement,3
0.227,0.009615748089241656,0.014068659063937271,65.08768757909962,61.20178041543026,0.04302535173308655,7.634350061499095,0.0024264688021049877,0.0024088491358105917,0.002560060304439149,0.002227171739850861,-566.1889506216799,3680.5670949601836,-59.24470730293068,651.9749098469193,3480.437729903629,-419.6820880367861,Vision,NoMovement,3
0.228,0.009615724430114003,0.01407029651314664,65.08768757909962,61.20178041543026,0.04223994678129541,7.644463424862998,0.002367162312124531,0.0024187763227711575,0.002548410767386273,0.002226755259013513,-566.1808432604189,3680.5509703587136,-59.243611864581574,652.0255639700093,3480.561247833413,-419.70461073941266,Vision,NoMovement,3
0.229,0.00961571028131948,0.014071905242281593,65.08768757909962,61.20178041543026,0.041453420033429215,7.6546033636217885,0.002318729999184402,0.0024286278873126245,0.0025387806628057036,0.002226515368351397,-566.1727358991579,3680.5348457572436,-59.24251642623248,652.0762180930994,3480.6847657631965,-419.7271334420392,Vision,NoMovement,3
0.23,0.009615706562839749,0.014073484037002468,65.08768757909962,61.20178041543026,0.040665783238264946,7.6647698177423305,0.002281326451878652,0.0024382170131904343,0.002531322353271891,0.0022265933043553545,-566.1646285378969,3680.518721155774,-59.24142098788337,652.1268722161894,3480.8082836929807,-419.7496561446657,Vision,NoMovement,3
0.231,0.009615714236435742,0.014075032356687268,65.08768757909962,61.20178041543026,0.03987704820117083,7.6749627265073626,0.0022549673539579563,0.002447335792770326,0.0025261537591981832,0.002227131977437111,-566.1565211766359,3680.502596554304,-59.240325549534276,652.1775263392796,3480.9318016227644,-419.7721788472922,Vision,NoMovement,3
0.232,0.009615734305703373,0.014076550442690903,65.08768757909962,61.20178041543026,0.039087226786598844,7.685182028547396,0.0022395346727359646,0.0024557594997405814,0.0025233552625889026,0.002228274180671062,-566.148413815375,3680.486471952834,-59.23923011118517,652.2281804623696,3481.055319552548,-419.7947015499187,Vision,NoMovement,3
0.233,0.00961576781595135,0.014078039171461207,65.08768757909962,61.20178041543026,0.038296330917183485,7.695427661789518,0.0022347845071954975,0.002463251860733262,0.0025229674345841994,0.0022301608048999723,-566.140306454114,3680.4703473513646,-59.238134672836075,652.2788345854595,3481.178837482332,-419.81722425254526,Vision,NoMovement,3
0.234,0.00961581585388552,0.014079500157313454,65.08768757909962,61.20178041543026,0.037504372573023255,7.705699563491716,0.00224035728198479,0.002469571244053815,0.002524989678790155,0.0022329289694760454,-566.132199092853,3680.4542227498946,-59.23703923448697,652.3294887085497,3481.3023554121155,-419.8397469551718,Vision,NoMovement,3
0.23500000000000001,0.009615879547083742,0.014080935623076768,65.08768757909962,61.20178041543026,0.036711363793993014,7.715997670233747,0.002255789885964751,0.002474477636003012,0.002529379878712249,0.0022367100002830273,-566.1237785278175,3680.4406780486515,-59.236920970811525,652.3801428316397,3481.425873341899,-419.8622696577983,Vision,NoMovement,3
0.23600000000000002,0.009615960063244491,0.014082348359348821,65.08768757909962,61.20178041543026,0.03591731667561015,7.726321917916334,0.0022805292927795483,0.002477740231619797,0.002536055118567905,0.0022416272157264193,-566.1150936109517,3680.4293108478173,-59.23762746703572,652.4307969547298,3481.549391271683,-419.88479236042485,Vision,NoMovement,3
0.23700000000000002,0.009616058609190683,0.014083741722046931,65.08768757909962,61.20178041543026,0.035122243371530915,7.736672241753944,0.002313947165903972,0.0024791454206543285,0.0025448935136301257,0.0022477934997216214,-566.1064086940859,3680.4179436469835,-59.23833396325992,652.4814510778198,3481.6729092014666,-419.9073150630513,Vision,NoMovement,3
0.23800000000000002,0.009616176429612325,0.014085119629999024,65.08768757909962,61.20178041543026,0.034326156092672686,7.747048576307184,0.0023553549431903145,0.0024785049122744538,0.002555737146360462,0.0022553086558238806,-566.09772377722,3680.4065764461498,-59.239040459484116,652.5321052009099,3481.7964271312503,-419.92983776567786,Vision,NoMovement,3
0.23900000000000002,0.009616314805526625,0.014086485772874212,65.08768757909962,61.20178041543026,0.033529067106976104,7.757450855431048,0.0024040189220550312,0.0024756637218362088,0.002568396060941842,0.0022642565636772386,-566.0890388603542,3680.3952092453155,-59.23974695570831,652.5827593239999,3481.9199450610345,-419.9523604683044,Vision,NoMovement,3
0.24,0.009616475052438999,0.014087843139844588,65.08768757909962,61.20178041543026,0.03273098873867598,7.767879012309825,0.002459174929623777,0.0024705077298396152,0.002582653226590855,0.002274702194611496,-566.0803539434884,3680.3838420444818,-59.24045345193251,652.63341344709,3482.043462990818,-419.9748831709309,Vision,NoMovement,3
0.241,0.009616658518182629,0.014089194843230065,65.08768757909962,61.20178041543026,0.03193193337060927,7.778332979447436,0.002520042249067924,0.0024629704999375845,0.0025982703396521677,0.0022866885733969725,-566.0716690266225,3680.372474843648,-59.24115994815671,652.68406757018,3482.166980920602,-419.99740587355745,Vision,NoMovement,3
0.242,0.009616866580417669,0.014090543824976594,65.08768757909962,61.20178041543026,0.03113191344004868,7.78881268865977,0.002585836564884892,0.002453039013744096,0.0026149942901713195,0.00230023379443659,-566.0629841097567,3680.3611076428137,-59.2418664443809,652.7347216932701,3482.2904988503856,-420.019928576184,Vision,NoMovement,3
0.243,0.009617100643768263,0.014091892357378483,65.08768757909962,61.20178041543026,0.030330941441202842,7.799318071101042,0.00265578176538375,0.0024407579754874608,0.0026325640689399328,0.0023153282124169557,-566.0542991928909,3680.34974044198,-59.2425729406051,652.7853758163601,3482.4140167801693,-420.04245127881046,Vision,NoMovement,3
0.244,0.009617362136575922,0.014093242795929778,65.08768757909962,61.20178041543026,0.02952902992428028,7.809849057251559,0.002729120496741781,0.002426232386440275,0.0026507178505658755,0.0023319319320264024,-566.045614276025,3680.338373241146,-59.2432794368293,652.8360299394502,3482.537534709953,-420.064973981437,Vision,NoMovement,3
0.245,0.009617652507248223,0.01409459774944911,65.08768757909962,61.20178041543026,0.028726191494751672,7.820405576867922,0.002805123392671729,0.0024096281847388714,0.00266919997202947,0.0023499727327363513,-566.0369293591592,3680.327006040312,-59.243985933053494,652.8872948885806,3482.6683782792998,-420.0881069616991,Vision,NoMovement,3
0.246,0.009617973220179378,0.014095959406844006,65.08768757909962,61.20178041543026,0.027922438815653587,7.830987559061164,0.0028830969195453595,0.0023911708615155184,0.002687767533210454,0.0023693445891657646,-566.0282444422934,3680.315638839478,-59.24469242927769,652.9428213335434,3482.850329988121,-420.11549761178657,Vision,NoMovement,3
0.247,0.009618325751221003,0.01409732987396698,65.08768757909962,61.20178041543026,0.027117784603396786,7.841594932244976,0.0029623897975467224,0.002371142073279841,0.002706196365671604,0.0023899069612410596,-566.0195595254276,3680.3042716386444,-59.245398925501895,652.9983477785062,3483.0322816969424,-420.14288826187396,Vision,NoMovement,3
0.248,0.009618711582679762,0.014098711493244938,65.08768757909962,61.20178041543026,0.02631224163026771,7.852227624177893,0.0030423980025991856,0.002349874363662296,0.0027242861474759857,0.002411485005904492,-566.0108746085617,3680.29290443781,-59.24610542172609,653.0538742234689,3483.214233405764,-420.1702789119614,Vision,NoMovement,3
0.249,0.009619132197819163,0.014100106709150056,65.08768757909962,61.20178041543026,0.025505822723520536,7.862885561910146,0.0031225684398309248,0.0023277441838091143,0.0027418644825539127,0.0024338708013033595,-566.0027088862081,3680.281962275596,-59.246659656499524,653.1094006684317,3483.3961851145855,-420.1976695620489,Vision,NoMovement,3
0.25,0.009619589074842854,0.014101518034616076,65.08768757909962,61.20178041543026,0.024698540765114053,7.873568671813081,0.0032024014746956514,0.0023051634697288568,0.002758789815314763,0.0024568256030996533,-565.9975858035384,3680.2735109705454,-59.24632159229546,653.1649271133945,3483.5781368234066,-420.22506021213627,Vision,NoMovement,3
0.251,0.00962008368033471,0.01410294812830145,65.08768757909962,61.20178041543026,0.023890408690962553,7.884276879609846,0.003281452566351378,0.002282570096603084,0.0027749531084614947,0.00248008309453182,-565.9924627208686,3680.2650596654953,-59.245983528091394,653.2204535583572,3483.760088532228,-420.2524508622237,Vision,NoMovement,3
0.252,0.009620617462134953,0.014104399612693594,65.08768757909962,61.20178041543026,0.023081439493234737,7.89501011028209,0.003359333231593542,0.002260417567525672,0.0027902782696799335,0.002503353561533832,-565.9873396381988,3680.2566083604447,-59.24564546388733,653.27598000332,3483.9420402410497,-420.2798415123112,Vision,NoMovement,3
0.253,0.009621191841627704,0.014105874550146436,65.08768757909962,61.20178041543026,0.022271646216133142,7.905768288192542,0.0034357114896332204,0.0022391642883234893,0.002804721366156455,0.0025263289129240384,-565.9822165555291,3680.2481570553946,-59.24530739968326,653.3315064482828,3484.123991949871,-420.3072321623986,Vision,NoMovement,3
0.254,0.009621808205418105,0.014107374876285252,65.08768757909962,61.20178041543026,0.02146104195839676,7.9165513369866325,0.0035103118318221883,0.0022192627415778383,0.00281826871229133,0.0025486884462122736,-565.9770934728593,3680.239705750344,-59.2449693354792,653.3870328932455,3484.3059436586923,-420.33462281248603,Vision,NoMovement,3
0.255,0.00962246789637687,0.014108902556925587,65.08768757909962,61.20178041543026,0.020649639872333838,7.92735917963799,0.003582914668568333,0.002201148832378617,0.002830933966435509,0.0025701052254791575,-565.9719703901895,3680.231254445294,-59.24463127127514,653.4425593382083,3484.487895367514,-420.3620134625735,Vision,NoMovement,3
0.256,0.009623172204030596,0.014110459406866142,65.08768757909962,61.20178041543026,0.019837453163064817,7.938191738439288,0.0036533551409445777,0.0021852316598615813,0.0028427544268750443,0.0025902528930231137,-565.9668473075197,3680.2228031402433,-59.244293207071074,653.4980857831711,3484.6698470763354,-420.38940411266094,Vision,NoMovement,3
0.257,0.00962392235427712,0.01411204717132899,65.08768757909962,61.20178041543026,0.01902449509081429,7.9490489350017555,0.0037215211652748058,0.0021718839598001004,0.002853786763503968,0.0026088127093560594,-565.9617242248501,3680.214351835193,-59.24395514286701,653.5536122281338,3484.851798785157,-420.41679476274834,Vision,NoMovement,3
0.258,0.009624719498405121,0.01411366761652166,65.08768757909962,61.20178041543026,0.01821077896666991,7.959930690247678,0.003787350607341311,0.002161433443301294,0.002864102429544472,0.0026254806188823598,-565.9566011421803,3680.2059005301426,-59.24361707866294,653.6091386730966,3485.033750493978,-420.4441854128358,Vision,NoMovement,3
0.259,0.009625564701400257,0.014115322602064048,65.08768757909962,61.20178041543026,0.01739631815508398,7.97083692443792,0.003850827540264372,0.0021541552245070675,0.002873782962242433,0.002639974160499759,-565.9514780595105,3680.1974492250924,-59.24327901445888,653.6646651180594,3485.2157022027995,-420.47157606292325,Vision,NoMovement,3
0.26,0.009626458929518859,0.014117013939191814,65.08768757909962,61.20178041543026,0.016581126072937043,7.981767557159354,0.0039119776108718874,0.0021502654974072406,0.0028829153317147466,0.0026520390578331195,-565.9463549768407,3680.188997920042,-59.24294095025481,653.7201915630221,3485.397653911621,-420.49896671301065,Vision,NoMovement,3
0.261,0.009627403037111886,0.01411874262492652,65.08768757909962,61.20178041543026,0.01576521618925073,7.992722507274036,0.003970862595406113,0.002149916594302878,0.0028915874629450366,0.002661455326282664,-565.941231894171,3680.1805466149917,-59.24260288605075,653.7757180079849,3485.5796056204426,-420.5263573630981,Vision,NoMovement,3
0.262,0.009628397752687076,0.014120509433910456,65.08768757909962,61.20178041543026,0.014948602024420997,8.003701693000078,0.0040275742475688525,0.00215319353166104,0.002899884038633985,0.0026680427351798855,-565.9361088115012,3680.172095309941,-59.24226482184668,653.8288784944943,3485.770149115929,-420.5542170071762,Vision,NoMovement,3
0.263,0.009629443664191894,0.014122315054738451,65.08768757909962,61.20178041543026,0.014131297152502014,8.014705031858627,0.004082227513567122,0.002160112120570774,0.002907882679107938,0.0026716654727804465,-565.9309857288314,3680.163644004891,-59.24192675764262,653.8798871344723,3485.9685068679623,-420.5825032027394,Vision,NoMovement,3
0.264,0.00963054120350986,0.014124159913139674,65.08768757909962,61.20178041543026,0.01331331519694127,8.025732440717551,0.004134953139236287,0.0021706186812060968,0.0029156505897420227,0.0026722358846406743,-565.9258626461616,3680.1551926998404,-59.24158869343855,653.9308957744503,3486.166864619996,-420.61078939830264,Vision,NoMovement,3
0.265,0.009631690630158365,0.01412604416271139,65.08768757909962,61.20178041543026,0.012494669833079666,8.036783835737547,0.004185889680779226,0.0021845913449333263,0.0029232417659697447,0.0026697171912500478,-565.9207395634919,3680.1467413947903,-59.241250629234486,653.9819044144283,3486.3652223720296,-420.6390755938659,Vision,NoMovement,3
0.266,0.009632892014182484,0.014127967681246589,65.08768757909962,61.20178041543026,0.011675374787155305,8.047859132409458,0.0042351750018752915,0.0022018428630567514,0.002930694845956871,0.0026641251298435017,-565.9164186529675,3680.1355404745386,-59.2392204098252,654.0329130544062,3486.563580124063,-420.66736178942915,Vision,NoMovement,3
0.267,0.009634145218241026,0.014129929979963745,65.08768757909962,61.20178041543026,0.010855443835528616,8.058958245545151,0.004282937480090161,0.002222124790039636,0.00293803169253776,0.0026555284906442074,-565.9124537851469,3680.123119142389,-59.236439130287884,654.0839216943842,3486.7619378760965,-420.6956479849924,Vision,NoMovement,3
0.268,0.009635449878882922,0.014131929847856356,65.08768757909962,61.20178041543026,0.010034890806958756,8.070081089277185,0.004329287302717133,0.002245132883202045,0.0029452567625133574,0.0026440485287211927,-565.9084889173263,3680.11069781024,-59.23365785075057,654.1349303343623,3486.96029562813,-420.7239341805556,Vision,NoMovement,3
0.269,0.009636805387016709,0.014133965525896734,65.08768757909962,61.20178041543026,0.00921372957832121,8.081227577052074,0.004374308339591455,0.00227051354910157,0.002952357275468619,0.002629857250278811,-565.9045240495057,3680.09827647809,-59.23087657121325,654.1859389743402,3487.1586533801633,-420.7522203761188,Vision,NoMovement,3
0.27,0.009638210867578552,0.014136034846098912,65.08768757909962,61.20178041543026,0.008391974077105287,8.092397621665034,0.004418051096121042,0.002297871146755827,0.0029593041340117707,0.0026131746137239976,-565.900559181685,3680.085855145941,-59.228095291675935,654.2369476143182,3487.357011132197,-420.7805065716821,Vision,NoMovement,3
0.271,0.009639665158408956,0.014138135171987837,65.08768757909962,61.20178041543026,0.007569638280451086,8.103591135205662,0.0044605271833562206,0.002326775922992327,0.002966053496999439,0.002594264740816321,-565.8965943138644,3680.0734338137913,-59.22531401213862,654.2879562542962,3487.5553688842306,-420.80879276724534,Vision,NoMovement,3
0.272,0.009641166788350893,0.014140263816884824,65.08768757909962,61.20178041543026,0.006746736214839588,8.114808029095146,0.004501705628003436,0.0023567723162729692,0.0029725488813873617,0.002573431274458303,-565.8926294460438,3680.061012481642,-59.2225327326013,654.3389648942741,3487.7537266362638,-420.83707896280856,Vision,NoMovement,3
0.273,0.009642713954588407,0.014142418022933374,65.08768757909962,61.20178041543026,0.0059232819553089715,8.126048214070082,0.004541511230362022,0.002387387350795321,0.002978723655608435,0.002551012038142994,-565.8886645782231,3680.048591149493,-59.219751453063985,654.3899735342521,3487.9520843882974,-420.8653651583718,Vision,NoMovement,3
0.274,0.009644304499247641,0.01414459454701474,65.08768757909962,61.20178041543026,0.005099289627720234,8.137311600216867,0.00457982507334842,0.002418138871148282,0.002984503778739505,0.0025273731567081632,-565.8846997104025,3680.0361698173433,-59.21697017352667,654.4409821742302,3488.150442140331,-420.893651353935,Vision,NoMovement,3
0.275,0.0096459358852902,0.014146789736582387,65.08768757909962,61.20178041543026,0.004274773404456843,8.14859809691065,0.004616487173633751,0.002448543435367309,0.002989810645945758,0.0025029028008905566,-565.8807348425819,3680.023748485194,-59.21418889398935,654.4919908142082,3488.3487998923642,-420.9219375494983,Vision,NoMovement,3
0.276,0.009647605171730312,0.01414899927193859,65.08768757909962,61.20178041543026,0.0034497475069166397,8.15990761289532,0.00465130112644237,0.0024781237638184777,0.0029945639341686005,0.0024780047126047914,-565.8767699747613,3680.0113271530445,-59.211407614452035,654.5429994541861,3488.547157644398,-420.9502237450615,Vision,NoMovement,3
0.277,0.009649308988217342,0.01415121803074265,65.08768757909962,61.20178041543026,0.002624226204489264,8.17124005618442,0.004684040441143769,0.002506415710083558,0.0029986843897718382,0.00245309165023784,-565.8728051069406,3679.9989058208953,-59.20862633491472,654.5940080941641,3488.7455153964315,-420.97850994062475,Vision,NoMovement,3
0.278,0.009651043509028148,0.01415344030114341,65.08768757909962,61.20178041543026,0.0017982238137662116,8.18259533415417,0.004714456125568858,0.0025329747613785296,0.003002096539052343,0.002428578865916726,-565.86884023912,3679.9864844887456,-59.2058450553774,654.6450167341421,3488.9438731484647,-421.006796136188,Vision,NoMovement,3
0.279,0.009652804426522998,0.01415565927944746,65.08768757909962,61.20178041543026,0.000971754700795506,8.19397335348936,0.004742284998227667,0.002557382088697895,0.0030047313162927408,0.0024048777083227114,-565.8648753712994,3679.9740631565965,-59.203063775840086,654.6874257013037,3489.121805923818,-421.03092684122703,Vision,NoMovement,3
0.28,0.009654586924123772,0.014157866343614689,65.08768757909962,61.20178041543026,0.0001448332767685362,8.205374020228408,0.00476725821175311,0.0025792501516830354,0.0030065285857314096,0.0023823894296442828,-565.8611096556855,3679.9619517257374,-59.20023826279166,654.729107414276,3489.298011406729,-421.0547061261648,Vision,NoMovement,3
0.281,0.009656385648882425,0.014160051229237611,65.08768757909962,61.20178041543026,-0.0006825259994924424,8.216797239707688,0.0047891095408545414,0.002598227828087697,0.0030074394874846375,0.002361499257645141,-565.8578174456866,3679.950577118254,-59.19730757985221,654.7707891272482,3489.47421688964,-421.07848541110246,Vision,NoMovement,3
0.28200000000000003,0.009658194683714387,0.014162202446531087,65.08768757909962,61.20178041543026,-0.00151030862252099,8.228242916593825,0.004807583080513224,0.002614005004547478,0.0030074284946477008,0.0023425707663457564,-565.8545252356877,3679.93920251077,-59.19437689691276,654.8124708402204,3489.650422372551,-421.1022646960402,Vision,NoMovement,3
0.28300000000000003,0.009660007519380419,0.014164306953903185,65.08768757909962,61.20178041543026,-0.002338500040538886,8.23971095491605,0.004822440066287979,0.002626316547469708,0.003006475068738193,0.002325940556437801,-565.8512330256888,3679.927827903286,-59.191446213973315,654.8541525531926,3489.826627855462,-421.1260439809779,Vision,NoMovement,3
0.28400000000000003,0.009661817026309475,0.01416635041774706,65.08768757909962,61.20178041543026,-0.003167085656253809,8.251201257968821,0.004833464568841572,0.0026349455704725647,0.0030045748498451564,0.0023119132491571798,-565.8479408156899,3679.916453295802,-59.188515531033865,654.8958342661649,3490.0028333383734,-421.14982326591564,Vision,NoMovement,3
0.28500000000000003,0.00966361542636423,0.01416831704784382,65.08768757909962,61.20178041543026,-0.003996050824617815,8.262713728441827,0.004840467886603649,0.0026397259174652226,0.003001740377585205,0.0023007568075004577,-565.844648605691,3679.9050786883186,-59.185584848094415,654.9375159791372,3490.1790388212844,-421.17360255085333,Vision,NoMovement,3
0.28600000000000003,0.009665394264659257,0.014170189422823047,65.08768757909962,61.20178041543026,-0.004825380857153551,8.274248268316533,0.004843291622468636,0.0026405437929462113,0.002998001366567916,0.0022926982304439336,-565.8413563956921,3679.8937040808346,-59.182654165154965,654.9791976921094,3490.3552443041954,-421.1973818357911,Vision,NoMovement,3
0.28700000000000003,0.00966714438155549,0.014171948567070412,65.08768757909962,61.20178041543026,-0.005655061019474707,8.285804778915068,0.004841809654713741,0.0026373385068371637,0.002993404554053634,0.002287919716173746,-565.8380641856932,3679.8823294733506,-59.17972348221552,655.0208794050817,3490.5314497871063,-421.2211611207288,Vision,NoMovement,3
0.28800000000000003,0.009668855884959896,0.014173573993031456,65.08768757909962,61.20178041543026,-0.006485076532333193,8.29738316089117,0.004835929395204795,0.0026301023552350923,0.002988013134059983,0.0022865554467653587,-565.8347719756943,3679.870954865867,-59.17679279927607,655.062561118054,3490.7076552700178,-421.2449404056665,Vision,NoMovement,3
0.289,0.009670518123075808,0.014175043792968849,65.08768757909962,61.20178041543026,-0.007315412572422597,8.308983314230225,0.004825592790493227,0.0026188797009090025,0.002981905811306273,0.0022886891747300646,-565.8314797656955,3679.859580258383,-59.17386211633662,655.1042428310262,3490.8838607529287,-421.26871969060426,Vision,NoMovement,3
0.29,0.0096721196577569,0.014176335184159151,65.08768757909962,61.20178041543026,-0.008146054270149188,8.32060513824221,0.004810777476045998,0.002603765327782827,0.0029751755282911465,0.002294352776758535,-565.8281875556966,3679.848205650899,-59.17093143339718,655.1459245439984,3491.0600662358397,-421.29249897554195,Vision,NoMovement,3
0.291,0.009673648238630105,0.014177424454621475,65.08768757909962,61.20178041543026,-0.008976986713966507,8.33224853159143,0.004791498397070978,0.002584902131675597,0.0029679279124346703,0.002303525897019488,-565.8248953456977,3679.8368310434153,-59.16800075045773,655.1876062569706,3491.2362717187507,-421.3162782604797,Vision,NoMovement,3
0.292,0.009675090778168005,0.014178286599763303,65.08768757909962,61.20178041543026,-0.009808194947903057,8.343913392283342,0.004767810097768653,0.0025624782038195073,0.0029602794661736614,0.0023161367599675406,-565.8216031356988,3679.8254564359318,-59.16507006751828,655.2292879699429,3491.4124772016617,-421.3400575454174,Vision,NoMovement,3
0.293,0.009676433327899624,0.014178894940755816,65.08768757909962,61.20178041543026,-0.01063966397262048,8.35559961761214,0.004739809759288475,0.0025367233770390942,0.002952355506880657,0.00233206420315277,-565.8183109256998,3679.814081828448,-59.162139384578836,655.2709696829152,3491.588682684573,-421.3638368303551,Vision,NoMovement,3
0.294,0.009677661055964529,0.014179221486186444,65.08768757909962,61.20178041543026,-0.011471378746222,8.36730710424655,0.004707640942098926,0.0025079053246631964,0.0029442878636075118,0.0023511409516214594,-565.815018715701,3679.802707220964,-59.159208701639386,655.3126513958874,3491.764888167484,-421.3876161152928,Vision,NoMovement,3
0.295,0.009678758226228087,0.014179236961730818,65.08768757909962,61.20178041543026,-0.012303324182036276,8.379035748174765,0.004671497873406844,0.0024763253048360957,0.0029362123497281463,0.0023731581048089903,-565.811726505702,3679.79133261348,-59.156278018699936,655.3513823982672,3491.9250802874285,-421.4086468962293,Vision,NoMovement,3
0.296,0.009679708179187695,0.014178910821415985,65.08768757909962,61.20178041543026,-0.013135485152959474,8.390785444750799,0.004631630017274345,0.002442313623188792,0.002928266053038219,0.0023978707303296105,-565.8084342957031,3679.7799580059964,-59.15334733576049,655.3838533968222,3492.051299670882,-421.4238466595104,Vision,NoMovement,3
0.297,0.00968049331491755,0.014178211092885732,65.08768757909962,61.20178041543026,-0.013967846488990899,8.40255608863849,0.004588346570093418,0.002406224864857928,0.0029205845147391996,0.00242500437043495,-565.8064982593243,3679.774514622905,-59.15238867091396,655.4163243953773,3492.177519054336,-421.43904642279153,Vision,NoMovement,3
0.298,0.009681095078308487,0.014177104029173463,65.08768757909962,61.20178041543026,-0.014800392978301128,8.414347573851542,0.004542020445125357,0.002368432935997315,0.0029132988940725525,0.0024542621950094956,-565.8048149963463,3679.7701767441076,-59.151797564993785,655.4487953939323,3492.30373843779,-421.4542461860726,Vision,NoMovement,3
0.299,0.009681493946881167,0.014175554057073762,65.08768757909962,61.20178041543026,-0.015633109368045246,8.426159793743786,0.0044930912807968236,0.0023293259569907147,0.0029065332366577257,0.0024853324909377673,-565.8031317333683,3679.765838865311,-59.15120645907361,655.4812663924873,3492.4299578212435,-421.4694459493537,Vision,NoMovement,3
0.3,0.009681669421457564,0.014173523782590495,65.08768757909962,61.20178041543026,-0.016465980362161316,8.43799264100303,0.0044420670317697275,0.002289301053381351,0.002900401986715771,0.002517896155265804,-565.8014484703903,3679.7615009865135,-59.15061535315344,655.5137373910424,3492.556177204697,-421.48464571263486,Vision,NoMovement,3
0.301,0.009681600019998769,0.014170973977967077,65.08768757909962,61.20178041543026,-0.017298990625716687,8.449846007687826,0.004389523739589347,0.002248759098775832,0.002895007898373649,0.002551633842933141,-565.7997652074123,3679.757163107716,-59.15002424723327,655.5462083895974,3492.682396588151,-421.49984547591595,Vision,NoMovement,3
0.302,0.00968126327492646,0.014167863371471008,65.08768757909962,61.20178041543026,-0.018132124782453667,8.46171978517119,0.004336103102654848,0.0022080994924354833,0.002890440491070532,0.0025862324166603854,-565.7980819444343,3679.752825228919,-59.1494331413131,655.5786793881524,3492.8086159716045,-421.51504523919704,Vision,NoMovement,3
0.303,0.009680635734262888,0.014164148551790774,65.08768757909962,61.20178041543026,-0.018965367415813936,8.473613864181031,0.004282507505136939,0.0021677150944955036,0.0028867751515056174,0.002621390390378629,-565.7963986814563,3679.7484873501216,-59.148842035392924,655.6111503867074,3492.934835355058,-421.5302450024782,Vision,NoMovement,3
0.304,0.009679692966940826,0.014159784407381294,65.08768757909962,61.20178041543026,-0.01979870306931295,8.485528134790432,0.004229492303231101,0.0021279874664015107,0.0028840729174483834,0.002656822165063089,-565.7947154184783,3679.7441494713244,-59.14825092947276,655.6436213852625,3493.0610547385118,-421.54544476575927,Vision,NoMovement,3
0.305,0.00967840957264804,0.014154724286428132,65.08768757909962,61.20178041543026,-0.02063211624735777,8.497462486411617,0.004177855423018931,0.0020892825454240627,0.002882380900284231,0.00269226100351531,-565.7930321555003,3679.7398115925275,-59.14765982355259,655.6760923838175,3493.1872741219654,-421.5606445290404,Vision,NoMovement,3
0.306,0.009676759196586787,0.014148919964991766,65.08768757909962,61.20178041543026,-0.021465591413064252,8.50941680783224,0.004128424617770914,0.002051946830208973,0.0028817332286628587,0.0027274608146773452,-565.7913488925223,3679.7354737137302,-59.147068717632415,655.7085633823724,3493.313493505419,-421.5758442923215,Vision,NoMovement,3
0.307,0.009674714549544647,0.01414232247123594,65.08768757909962,61.20178041543026,-0.022299112992606326,8.521390987152493,0.00408204294186785,0.0020163040979801904,0.002882152336727254,0.0027621968755868346,-565.7896656295443,3679.731135834933,-59.14647761171224,655.7410343809274,3493.439712888873,-421.5910440556026,Vision,NoMovement,3
0.308,0.009672247433687811,0.01413488239704941,65.08768757909962,61.20178041543026,-0.023132665372774062,8.533384911869067,0.004039553069366838,0.001982652637090746,0.002883650388717054,0.0027962656208634826,-565.7879823665663,3679.7267979561357,-59.14588650579207,655.7735053794825,3493.565932272327,-421.60624381888374,Vision,NoMovement,3
0.309,0.009669328774500888,0.014126549930693968,65.08768757909962,61.20178041543026,-0.023966232902061815,8.545398468772367,0.004001781043369011,0.0019512629589437769,0.002886230643030539,0.0028294836092212353,-565.7862991035882,3679.7224600773384,-59.1452953998719,655.8059763780375,3493.6921516557804,-421.62144358216483,Vision,NoMovement,3
0.31,0.009665928659313663,0.01411727493757473,65.08768757909962,61.20178041543026,-0.024799799891490098,8.557431544044562,0.003969519957993798,0.0019223759487398736,0.0028898886191054698,0.0028616857728969575,-565.7846158406103,3679.7181221985416,-59.144704293951726,655.8384473765925,3493.818371039234,-421.6366433454459,Vision,NoMovement,3
0.311,0.009662016382867353,0.01410700712738089,65.08768757909962,61.20178041543026,-0.025633350612439876,8.569484023203735,0.003943513989225393,0.0018962014173787315,0.0028946130147594813,0.002892723075235026,-565.7829325776323,3679.7137843197443,-59.144113188031554,655.8709183751475,3493.9445904226877,-421.65184310872706,Vision,NoMovement,3
0.312,0.009657560500386533,0.014095695447401904,65.08768757909962,61.20178041543026,-0.02646686930100111,8.581555791151406,0.0039244431099591396,0.001872917019304264,0.002900386385026252,0.0029224597434246795,-565.7812493146542,3679.709446440947,-59.14352208211138,655.8976190071853,3494.0297761022252,-421.66121304557606,Vision,NoMovement,3
0.313,0.009652528888634927,0.014083287926238001,65.08768757909962,61.20178041543026,-0.027300340155543203,8.593646732114937,0.0039129087294966294,0.001852667502228355,0.002907185610331672,0.0029507702741116424,-565.7795660516763,3679.7051085621497,-59.14293097619121,655.9220609576308,3494.098900051295,-421.66830102657195,Vision,NoMovement,3
0.314,0.009646888815445651,0.014069732128860968,65.08768757909962,61.20178041543026,-0.028133747337756948,8.605756729682478,0.003909420385976476,0.0018355642657166835,0.0029149821678445087,0.0029775364153661415,-565.7778827886983,3679.7007706833524,-59.14233987027104,655.9465029080762,3494.1680240003643,-421.6753890075678,Vision,NoMovement,3
0.315,0.009640607018225694,0.014054975554719821,65.08768757909962,61.20178041543026,-0.02896707497304782,8.61788566683662,0.003914383545027884,0.0018216852352935466,0.0029237422070905886,0.0030026443086977783,-565.7761995257202,3679.6964328045556,-59.141748764350865,655.9709448585216,3494.2371479494336,-421.6824769885637,Vision,NoMovement,3
0.316,0.009633649791944561,0.014038966170650063,65.08768757909962,61.20178041543026,-0.029800307151362233,8.630033425854087,0.003928088576939407,0.0018110750804620284,0.002933426433922148,0.003025981942259066,-565.7745162627423,3679.6920949257583,-59.14115765843069,655.995386808967,3494.3062718985034,-421.68956496955957,Vision,NoMovement,3
0.317,0.009625983087125494,0.014021652483597982,65.08768757909962,61.20178041543026,-0.030633427925042367,8.642199888441848,0.003950701093713571,0.0018037457927276748,0.0029439898167368224,0.003047437025799674,-565.7728329997643,3679.687757046961,-59.14056655251052,656.0198287594125,3494.3753958475727,-421.6966529505554,Vision,NoMovement,3
0.318,0.009617572618365185,0.014002983210879059,65.08768757909962,61.20178041543026,-0.031466421313172795,8.654384935629665,0.003982253947892236,0.0017996776010494567,0.0029553811356164885,0.003066895355608165,-565.7711497367862,3679.6834191681637,-59.13997544659035,656.0442707098579,3494.444519796642,-421.7037409315513,Vision,NoMovement,3
0.319,0.009608383983910047,0.01398290706793668,65.08768757909962,61.20178041543026,-0.03229927129916609,8.666588447821969,0.004022641245830612,0.001798820170067027,0.002967542408990355,0.0030842397162935084,-565.7694664738083,3679.6790812893664,-59.139384340670176,656.0687126603034,3494.5136437457118,-421.71082891254713,Vision,NoMovement,3
0.32,0.00959838279682578,0.013961372880613528,65.08768757909962,61.20178041543026,-0.0331319618318684,8.678810304789009,0.004071614693230002,0.0018010940190350546,0.002980408258264751,0.003099349360668648,-565.7677832108303,3679.6747434105696,-59.138793234750004,656.0931546107488,3494.582767694781,-421.717916893543,Vision,NoMovement,3
0.321,0.0095875348282938,0.013938329853629276,65.08768757909962,61.20178041543026,-0.033964476826388305,8.691050385667468,0.004128782504172717,0.0018063921106644535,0.002993905296556134,0.0031121001032101705,-565.7660999478522,3679.6704055317723,-59.13820212882983,656.1175965611942,3494.651891643851,-421.7250048745389,Vision,NoMovement,3
0.322,0.00957580616357179,0.01391372789912957,65.08768757909962,61.20178041543026,-0.0347968001619709,8.703308568954023,0.004193611013283439,0.0018145815734145554,0.0030079516283849058,0.003122365037765541,-565.7644166848743,3679.666067652975,-59.13761102290966,656.1420385116396,3494.72101559292,-421.73209285553475,Vision,NoMovement,3
0.323,0.009563163371150664,0.013887517994633895,65.08768757909962,61.20178041543026,-0.03562891568633929,8.71558473253702,0.00426542906038826,0.00182550553233041,0.0030224565207443072,0.0031300158543672873,-565.7627334218962,3679.6617297741777,-59.13701991698949,656.166480462085,3494.7901395419894,-421.73918083653064,Vision,NoMovement,3
0.324,0.009549573685635119,0.013859652566349996,65.08768757909962,61.20178041543026,-0.036460807213294935,8.727878753682797,0.00434343516022296,0.0018389850328818947,0.0030373202769124604,0.003134924699436499,-565.7610501589182,3679.6573918953804,-59.136428811069315,656.1909224125304,3494.859263491059,-421.74626881752647,Vision,NoMovement,3
0.325,0.009535005204870873,0.013830085897807015,65.08768757909962,61.20178041543026,-0.03729245852377379,8.740190508982367,0.004426707409209462,0.0018548210539086648,0.0030524343373070253,0.0031369665091955656,-565.7593835988251,3679.6531420501956,-59.13592973597282,656.215364362976,3494.9283874401285,-421.75335679852236,Vision,NoMovement,3
0.326,0.009519427101825977,0.013798774564615437,65.08768757909962,61.20178041543026,-0.03812385336625849,8.752519874441255,0.004514215990076299,0.0018727966244993241,0.003067681644801369,0.0031360217530146993,-565.758035443937,3679.650570379801,-59.13718503405369,656.2398063134214,3494.997511389198,-421.76044477951825,Vision,NoMovement,3
0.327,0.009502809851724381,0.013765677897572305,65.08768757909962,61.20178041543026,-0.03895497545761043,8.764866725423014,0.004604838022572225,0.0018926790858110746,0.0030829373234297357,0.003131979549876714,-565.7566872890488,3679.6479987094062,-59.13844033213455,656.2642482638668,3495.0666353382676,-421.7675327605141,Vision,NoMovement,3
0.328,0.009485125474911506,0.013730758481971158,65.08768757909962,61.20178041543026,-0.03978580848096678,8.777230936697794,0.004697374413559806,0.0019142225576569548,0.003098069714783904,0.0031247411489397385,-565.7553391341607,3679.6454270390113,-59.13969563021541,656.2878569322335,3495.13131016623,-421.77413176413,Vision,NoMovement,3
0.329,0.009466347795910884,0.013693982736596886,65.08768757909962,61.20178041543026,-0.04061633609007455,8.789612382384885,0.004790568329894058,0.0019371706618471869,0.0031129417938127253,0.0031142237681162227,-565.7539909792727,3679.642855368617,-59.14095092829627,656.3051777989609,3495.162412700125,-421.77704102948127,Vision,NoMovement,3
0.33,0.009446452719107466,0.01365532173549601,65.08768757909962,61.20178041543026,-0.041446541906909384,8.802010935995085,0.004883124945892001,0.001961259514971775,0.0031274129587606616,0.0031003647508349324,-565.7526428243845,3679.640283698222,-59.142206226377134,656.3224986656884,3495.1935152340207,-421.77995029483253,Vision,NoMovement,3
0.331,0.009425418521465195,0.013614752324473609,65.08768757909962,61.20178041543026,-0.042276409522795065,8.81442647042112,0.004973732166648386,0.001986220952776657,0.0031413411641540738,0.0030831259393627663,-565.7512946694964,3679.637712027827,-59.143461524458,656.339819532416,3495.224617767916,-421.78285956018374,Vision,NoMovement,3
0.332,0.009403226162652266,0.013572258062453364,65.08768757909962,61.20178041543026,-0.04310592249923824,8.826858857932262,0.005061082047532733,0.002011785906239628,0.003154585343737435,0.003062498093634538,-565.7499465146082,3679.6351403574326,-59.14471682253886,656.3571403991434,3495.255720301811,-421.785768825535,Vision,NoMovement,3
0.333,0.009379859612914388,0.013527829692979245,65.08768757909962,61.20178041543026,-0.04393506436584607,8.839307970212769,0.005143892617537743,0.002037687826206123,0.003167008052680785,0.003038505133553372,-565.7485983597201,3679.6325686870377,-59.145972120619724,656.3744612658709,3495.286822835706,-421.78867809088626,Vision,NoMovement,3
0.334,0.009355306198988736,0.013481465289344727,65.08768757909962,61.20178041543026,-0.04476381862465092,8.851773678304244,0.005220929784984172,0.002063666047744631,0.0031784782476912657,0.0030112079681664395,-565.747250204832,3679.629997016643,-59.14722741870058,656.3917821325985,3495.317925369601,-421.7915873562375,Vision,NoMovement,3
0.335,0.009329556968310272,0.013433170522708319,65.08768757909962,61.20178041543026,-0.04559216874774604,8.86425585264836,0.005291028963350144,0.002089468991743477,0.0031888741192677645,0.0029807076906477686,-565.7459020499438,3679.6274253462484,-59.148482716781444,656.4091029993259,3495.349027903497,-421.7944966215888,Vision,NoMovement,3
0.336,0.009302607071705075,0.013382959277460827,65.08768757909962,61.20178041543026,-0.046420098178353145,8.876754363077286,0.005353116003468659,0.0021148571143669954,0.0031980858869456465,0.0029471479461853282,-565.7445538950557,3679.6248536758535,-59.14973801486231,656.4264238660534,3495.380130437392,-421.79740588694006,Vision,NoMovement,3
0.337,0.009274456164711042,0.013330854381552858,65.08768757909962,61.20178041543026,-0.04724759033125246,8.889269078808436,0.005406226955550418,0.0021396055213978335,0.0032060184623235867,0.0029107163092675185,-565.7432057401675,3679.6222820054586,-59.15099331294317,656.4437447327809,3495.411232971287,-421.80031515229126,Vision,NoMovement,3
0.338,0.009245108827598032,0.013276888385247357,65.08768757909962,61.20178041543026,-0.04807462859361817,8.901799868482263,0.005449526163231387,0.0021635061645232955,0.003212593872752455,0.0028716445495508393,-565.7418575852794,3679.619710335064,-59.152248611024035,656.4610655995084,3495.442335505182,-421.8032244176425,Vision,NoMovement,3
0.339,0.009214575004094195,0.013221104372459953,65.08768757909962,61.20178041543026,-0.048901196322963074,8.914346600098328,0.00548232224267063,0.0021863695447749713,0.003217753327781,0.002830207736236299,-565.7405094303912,3679.6171386646693,-59.15350390910489,656.4783864662359,3495.4734380390773,-421.8061336829938,Vision,NoMovement,3
0.34,0.009182870458744505,0.013163556801590417,65.08768757909962,61.20178041543026,-0.04972727685144903,8.926909141102243,0.005504081583467565,0.002208025880183261,0.0032214588135057597,0.0027867222246116177,-565.7391612755031,3679.6145669942744,-59.154759207185755,656.4957073329634,3495.504540572973,-421.80904294834505,Vision,NoMovement,3
0.341,0.009150017252745885,0.013104312374765142,65.08768757909962,61.20178041543026,-0.05055285348354456,8.939487358280424,0.005514439044880693,0.002228325741247826,0.0032236941204476675,0.0027415426635166796,-565.737813120615,3679.61199532388,-59.15601450526662,656.5130281996909,3495.535643106868,-421.8119522136963,Vision,NoMovement,3
0.342,0.00911604423801136,0.013043450934550163,65.08768757909962,61.20178041543026,-0.051377909497156045,8.95208111786211,0.005513205489103341,0.0022471402003594017,0.0032244652428931706,0.0026950582127559077,-565.7372347917692,3679.6106688067403,-59.157437602543006,656.5303490664184,3495.566745640763,-421.8148614790476,Vision,NoMovement,3
0.343,0.009080987569118978,0.012981066387078579,65.08768757909962,61.20178041543026,-0.052202428144465095,8.96469028546245,0.00550037174499909,0.0022643605649894406,0.003223800126567537,0.0026476881514169467,-565.7371768392254,3679.6101839709813,-59.15897412638593,656.5476699331459,3495.5978481746583,-421.8177707443988,Vision,NoMovement,3
0.34400000000000003,0.009044891232694028,0.012917267650343331,65.08768757909962,61.20178041543026,-0.05302639264989594,8.977314726131956,0.005476108618148847,0.002279897767427583,0.0032217477931845034,0.0025998769956347358,-565.7371188866815,3679.609699135222,-59.16051065022885,656.5649907998734,3495.6289507085535,-421.82068000975005,Vision,NoMovement,3
0.34500000000000003,0.009007807593659763,0.012852179626188797,65.08768757909962,61.20178041543026,-0.05384978621441147,8.989954304297651,0.0054407627038653315,0.0022936814693708266,0.0032183769350436274,0.0025520891751671724,-565.7370609341376,3679.609214299463,-59.162047174071766,656.5834444741819,3495.66252731753,-421.82442293243224,Vision,NoMovement,3
0.34600000000000003,0.008969797957669024,0.012785944194300741,65.08768757909962,61.20178041543026,-0.05467259201319055,9.002608883800386,0.0053948480098688755,0.0023056589252863904,0.003213774136446208,0.0025048032680272106,-565.7370029815938,3679.608729463704,-59.16358369791469,656.6029634899438,3495.6984306541763,-421.82894986267894,Vision,NoMovement,3
0.34700000000000003,0.008930933148900843,0.012718721226246213,65.08768757909962,61.20178041543026,-0.05549479319670441,9.015278327929362,0.005339033688334667,0.0023157936567890173,0.0032080419230649786,0.002458505780011833,-565.7369450290499,3679.6082446279447,-59.165120221757604,656.6224825057058,3495.734333990822,-421.8334767929256,Vision,NoMovement,3
0.34800000000000003,0.008891294102263216,0.01265068961734786,65.08768757909962,61.20178041543026,-0.05631637289116254,9.027962499320122,0.005274128423592403,0.002324064018509241,0.003201296854657494,0.002413684477214714,-565.736887076506,3679.607759792186,-59.16665674560053,656.6420015214677,3495.770237327468,-421.8380037231723,Vision,NoMovement,3
0.34900000000000003,0.008850972468897735,0.01258204833390103,65.08768757909962,61.20178041543026,-0.05713731419935038,9.040661260095243,0.005201062154563306,0.002330461763581232,0.00319366785115453,0.002370821329763735,-565.7368291239623,3679.607274956427,-59.16819326944345,656.6615205372296,3495.806140664114,-421.842530653419,Vision,NoMovement,3
