Time,Amplitude_Envelope_P1,Amplitude_Envelope_P2,Filtered_ECG_P1,Filtered_ECG_P2,Filtered_Respiration_P1,Filtered_Respiration_P2,Filtered_EMG_Bicep_P1,Filtered_EMG_Tricep_P1,Filtered_EMG_Bicep_P2,Filtered_EMG_Tricep_P2,right_index_x_P1,right_index_y_P1,right_index_z_P1,right_index_x_P2,right_index_y_P2,right_index_z_P2,ConditionVision,ConditionMovement,Trial
0.0,0.0143239856710618,0.0093728194148059,62.11715986541282,61.25290023201856,0.1096731407811192,-4.74113415770356,0.004091504839483,0.0022844870387222,0.0021592196967868,0.002848333634052,-592.0732265388373,3703.098265594848,-64.32953547026248,661.491515860484,3453.3440014963394,-418.186572675331,Vision,NoMovement,2
0.001,0.01432735700377411,0.009386648032677516,62.11715986541282,61.25290023201856,0.10998675508759045,-4.73987287927717,0.004116475930239228,0.002288554180481185,0.002311693325907282,0.0029094145316156234,-591.9540698494291,3703.043977491723,-64.34402769486776,661.5391015461487,3453.463593846107,-418.133645980884,Vision,NoMovement,2
0.002,0.01433070716876528,0.009400473745507601,62.11715986541282,61.25290023201856,0.11030251655400394,-4.738603783971438,0.004140974636228164,0.0022931127507503316,0.0024602844554964826,0.002972124852773685,-591.8349131600208,3702.9896893885984,-64.35851991947304,661.5866872318134,3453.583186195874,-418.08071928643704,Vision,NoMovement,2
0.003,0.014334024806857276,0.009414255815773081,62.11715986541282,61.25290023201856,0.11062043223828202,-4.737326841688369,0.0041647002780553204,0.0022982569713745323,0.0026036983733356187,0.0030359507168208205,-591.7157564706126,3702.9354012854737,-64.37301214407833,661.634272917478,3453.7027785456416,-418.02779259199013,Vision,NoMovement,2
0.004,0.014337299997277278,0.009427957880509688,62.11715986541282,61.25290023201856,0.11094050918828836,-4.736042022264364,0.004187358536413685,0.002304080370737164,0.0027406940056257083,0.00310034037900367,-591.5965997812044,3702.881113182349,-64.38750436868361,661.6818586031427,3453.822370895409,-417.97486589754317,Vision,NoMovement,2
0.005,0.014340524344648177,0.009441547206515669,62.11715986541282,61.25290023201856,0.11126275444336814,-4.734749295465401,0.004208669723473673,0.002310672078775459,0.0028701065294938015,0.003164711042781472,-591.4774430917963,3702.8268250792244,-64.40199659328889,661.7294442888074,3453.9419632451763,-417.9219392030962,Vision,NoMovement,2
0.006,0.014343690536063243,0.009454994489230123,62.11715986541282,61.25290023201856,0.11158717503298984,-4.7334486309939185,0.004228377541179836,0.00231811264516816,0.0029908689280900604,0.0032284567311215793,-591.3582864023881,3702.7725369760997,-64.41648881789416,661.777029974472,3454.061555594944,-417.86901250864923,Vision,NoMovement,2
0.007,0.014346792078555508,0.009468273818967296,62.11715986541282,61.25290023201856,0.11191377797683386,-4.732139998484002,0.004246258015972492,0.002326469639877593,0.0031020318763120124,0.003290957182969403,-591.2391297129799,3702.718248872975,-64.43098104249945,661.8246156601367,3454.181147944711,-417.8160858142023,Vision,NoMovement,2
0.008,0.01434982304911352,0.00948136252200556,62.11715986541282,61.25290023201856,0.11224257028488936,-4.730823367502413,0.0042621282424041475,0.00233579335316278,0.0032027813685390114,0.0033515876995907135,-591.1199730235717,3702.6639607698503,-64.44547326710473,661.8722013458014,3454.3007402944786,-417.76315911975536,Vision,NoMovement,2
0.009000000000000001,0.014352778239222897,0.009494240719873663,62.11715986541282,61.25290023201856,0.11257355895605418,-4.729498707549653,0.004275854528207647,0.002346112894691388,0.0032924535419345227,0.0034097298177803957,-591.0768148134325,3702.647519275371,-64.45586002234383,661.9197870314661,3454.420332644246,-417.7102324253084,Vision,NoMovement,2
0.01,0.014355653439522588,0.009506891394739248,62.11715986541282,61.25290023201856,0.11290675097972674,-4.728165988055003,0.004287359525195311,0.0023574329328138474,0.0033705462042277487,0.003464782628580109,-591.0559218010427,3702.6421656636194,-64.46504400236726,661.9673727171308,3454.5399249940133,-417.6573057308614,Vision,NoMovement,2
0.011,0.014358445407930907,0.009519300067201825,62.11715986541282,61.25290023201856,0.11324215333440611,-4.726825178383612,0.0042966279754772735,0.0023697312538083068,0.0034367266671114787,0.0035161744826705046,-591.0350287886528,3702.6368120518678,-64.47422798239072,662.0149584027955,3454.659517343781,-417.6043790364145,Vision,NoMovement,2
0.012,0.01436115163545208,0.009531454059808738,62.11715986541282,61.25290023201856,0.11357977298778534,-4.725476247831544,0.0043037108020482235,0.002382957268814158,0.0034908356373998996,0.003563374734414954,-591.0141357762628,3702.631458440116,-64.48341196241417,662.0625440884602,3454.7791096935484,-417.55145234196755,Vision,NoMovement,2
0.013000000000000001,0.014363770280716356,0.009543342681545124,62.11715986541282,61.25290023201856,0.11391961689654641,-4.724119165626838,0.004308727385185683,0.0023970315428057886,0.00353288710275065,0.00360590508525838,-590.993242763873,3702.6261048283645,-64.49259594243762,662.1101297741249,3454.8987020433156,-417.4985256475206,Vision,NoMovement,2
0.014,0.014366299424522933,0.009554957875878635,62.11715986541282,61.25290023201856,0.11426169200646204,-4.722753900930597,0.0043118659457234065,0.002411846360361173,0.0035630643329788345,0.0036433500258628623,-590.9723497514831,3702.6207512166134,-64.50177992246105,662.1577154597895,3455.018294393083,-417.4455989530736,Vision,NoMovement,2
0.015,0.014368737212226717,0.009566294491205319,62.11715986541282,61.25290023201856,0.11460600525094651,-4.721380422831897,0.004313381996543312,0.0024272672803857943,0.003581712259297272,0.0036753658776335365,-590.9514567390931,3702.6153976048618,-64.5109639024845,662.2018256560519,3455.131578023294,-417.40330895890355,Vision,NoMovement,2
0.016,0.014371082348485682,0.00957734996059973,62.11715986541282,61.25290023201856,0.11495256355271068,-4.71999870035508,0.004313594859503463,0.002443135569500606,0.003589326588101281,0.003701688016301463,-590.9305637267033,3702.61004399311,-64.52014788250796,662.2420719427254,3455.237847872374,-417.37284442107574,Vision,NoMovement,2
0.017,0.014373334021999935,0.009588124144317638,62.11715986541282,61.25290023201856,0.11530137382231075,-4.718608702454651,0.004312882307162517,0.0024592713406779753,0.0035865400660004937,0.0037221359949473893,-590.9096707143134,3702.6046903813585,-64.52933186253141,662.2823182293989,3455.344117721454,-417.34237988324793,Vision,NoMovement,2
0.018000000000000002,0.014375491783896608,0.009598618727967492,62.11715986541282,61.25290023201856,0.11565244295824947,-4.717210398016377,0.004311673473098001,0.0024754771755794865,0.0035741063504023634,0.003736616424167527,-590.8887777019235,3702.599336769607,-64.53851584255484,662.3225645160724,3455.450387570534,-417.3119153454201,Vision,NoMovement,2
0.019,0.014377555609884646,0.009608836226979436,62.11715986541282,61.25290023201856,0.11600577784708233,-4.715803755857151,0.004310440257033537,0.0024915420035713067,0.003552881970536656,0.003745123599576986,-590.8678846895336,3702.5939831578553,-64.5476998225783,662.3628108027458,3455.5566574196146,-417.2814508075923,Vision,NoMovement,2
0.02,0.01437952604681768,0.009618779466956596,62.11715986541282,61.25290023201856,0.11636138536192607,-4.714388744726116,0.004309687518956856,0.002507245061925152,0.003523806890295482,0.0037477379762289095,-590.8469916771437,3702.588629546104,-64.55688380260175,662.4030570894193,3455.6629272686946,-417.2509862697645,Vision,NoMovement,2
0.021,0.014381404207384565,0.009628451363184505,62.11715986541282,61.25290023201856,0.11671927236416815,-4.712965333299401,0.004309942407620215,0.0025223598438593015,0.0034878842023077787,0.0037446226530615185,-590.8260986647538,3702.5832759343525,-64.5660677826252,662.4433033760928,3455.7691971177746,-417.2205217319367,Vision,NoMovement,2
0.022,0.014383191654358514,0.009637854845486597,62.11715986541282,61.25290023201856,0.11707944570197129,-4.711533490187668,0.004311743189811288,0.0025366580093545707,0.0034461594886480693,0.0037360180475142727,-590.805205652364,3702.577922322601,-64.57525176264863,662.4835496627663,3455.8754669668547,-417.1900571941089,Vision,NoMovement,2
0.023,0.01438489021370123,0.00964699355811692,62.11715986541282,61.25290023201856,0.11744191221037927,-4.710093183930839,0.004315627915896151,0.0025499132647261377,0.0033997003728696855,0.0037222349470882876,-590.784312639974,3702.5725687108493,-64.58443574267208,662.5237959494398,3455.9817368159347,-417.15959265628106,Vision,NoMovement,2
0.024,0.014386501660408064,0.009655871815135813,62.11715986541282,61.25290023201856,0.11780667871110341,-4.708644382999242,0.004322123169064486,0.0025619052089666835,0.003349576755755614,0.00370364615164299,-590.7634196275841,3702.5672150990977,-64.59361972269554,662.5640422361132,3456.088006665015,-417.12912811845325,Vision,NoMovement,2
0.025,0.014388027408267582,0.009664493755100279,62.11715986541282,61.25290023201856,0.11817375201263262,-4.707187055794763,0.004331733023703518,0.0025724231153838456,0.003296842162804797,0.0036806769677869863,-590.7425266151943,3702.561861487346,-64.60280370271899,662.6042885227868,3456.1942765140952,-417.09866358062544,Vision,NoMovement,2
0.026000000000000002,0.014389469167632571,0.009672863205785724,62.11715986541282,61.25290023201856,0.11854313890869311,-4.705721170645448,0.004344928231061147,0.002581269588322564,0.0032425165514494885,0.0036537948751343345,-590.7216336028043,3702.556507875595,-64.61198768274242,662.6445348094602,3456.3005463631753,-417.06819904279763,Vision,NoMovement,2
0.027,0.014390828629631055,0.009680983613460144,62.11715986541282,61.25290023201856,0.11891484618002136,-4.704246695813261,0.004362135611179934,0.0025882640211569745,0.00318757085583249,0.0036234987456970256,-590.7007405904145,3702.5511542638433,-64.62117166276587,662.6847810961337,3456.4068162122553,-417.0377345049698,Vision,NoMovement,2
0.028,0.014392107206965817,0.009688857840206969,62.11715986541282,61.25290023201856,0.11928888059281652,-4.702763599488665,0.004383727672275112,0.0025932457795528924,0.0031329134847445225,0.0035903080365462846,-590.6798475780246,3702.5458006520917,-64.63035564278933,662.7250273828072,3456.513086061336,-417.007269967142,Vision,NoMovement,2
0.029,0.014393306491778876,0.009696488557097238,62.11715986541282,61.25290023201856,0.11966524889885478,-4.701271849791794,0.0044100125530722135,0.002596077041626356,0.0030793789194964506,0.0035547523634490846,-590.6589545656346,3702.54044704034,-64.63953962281278,662.7652736694806,3456.619355910416,-416.9768054293142,Vision,NoMovement,2
0.03,0.014394428393204293,0.009703879127178993,62.11715986541282,61.25290023201856,0.120043957835604,-4.699771414772318,0.004441224415176582,0.0025966452530418703,0.0030277184698553356,0.003517361790419352,-590.6380615532448,3702.5350934285884,-64.64872360283623,662.8055199561542,3456.725625759496,-416.9463408914864,Vision,NoMovement,2
0.031,0.014395474963839777,0.009711034034819562,62.11715986541282,61.25290023201856,0.12042501412464039,-4.698262262410636,0.004477514383578075,0.0025948652015292894,0.0029785931630111244,0.003478658066252671,-590.6171685408549,3702.529739816837,-64.65790758285966,662.8457662428276,3456.831895608576,-416.9158763536586,Vision,NoMovement,2
0.032,0.014396447863988178,0.00971795925170222,62.11715986541282,61.25290023201856,0.12080842447347616,-4.6967443606123025,0.004518942103885819,0.0025906807527551015,0.0029325686867880483,0.0034391469386306902,-590.596275528465,3702.524386205085,-64.66709156288312,662.8858103021141,3456.9359255557897,-416.9012919829381,Vision,NoMovement,2
0.033,0.014397348694671722,0.009724661958596548,62.11715986541282,61.25290023201856,0.12119419557396735,-4.695217677216055,0.004565468025594577,0.0025840662870744648,0.002890112292299139,0.0033993115980494627,-590.5753825160751,3702.519032593334,-64.67627554290657,662.9258246417016,3457.0396263230145,-416.88904139000925,Vision,NoMovement,2
0.034,0.014398178957315759,0.009731150061854201,62.11715986541282,61.25290023201856,0.12158233410243446,-4.693682179988215,0.004616946643639906,0.002575027837651327,0.0028515915642415447,0.003359607240709227,-590.5544895036852,3702.5136789815824,-64.68545952293002,662.9658389812893,3457.1433270902394,-416.8767907970804,Vision,NoMovement,2
0.035,0.014398940077316734,0.009737432338946535,62.11715986541282,61.25290023201856,0.1219728467197805,-4.692137836623915,0.004673121062848633,0.00256360388460045,0.0028172749734365855,0.003320456691242613,-590.5335964912953,3702.508325369831,-64.69464350295345,663.0058533208769,3457.247027857464,-416.8645402041515,Vision,NoMovement,2
0.036000000000000004,0.01439963358853707,0.009743518093669384,62.11715986541282,61.25290023201856,0.12236574006986527,-4.6905846147483095,0.0047336193147106504,0.002549865729377416,0.0027873341243185015,0.0032822469979012334,-590.5127034789055,3702.502971758079,-64.7038274829769,663.0458676604644,3457.350728624689,-416.85228961122266,Vision,NoMovement,2
0.037,0.014400261617889713,0.0097494153503434,62.11715986541282,61.25290023201856,0.12276102078138773,-4.689022481910876,0.004797952835107142,0.0025339173606696054,0.0027618476144294266,0.003245326915146392,-590.4918104665155,3702.4976181463276,-64.71301146300036,663.085882000052,3457.454429391914,-416.8400390182938,Vision,NoMovement,2
0.038,0.01440082684891329,0.009755131023243581,62.11715986541282,61.25290023201856,0.12315869546624916,-4.6874514055936585,0.004865517439507008,0.0025158947229726057,0.002740806436390356,0.0032100052068881617,-590.4709174541256,3702.492264534576,-64.72219544302381,663.1258963396397,3457.5581301591387,-416.827788425365,Vision,NoMovement,2
0.039,0.014401332138479045,0.009760673175530157,62.11715986541282,61.25290023201856,0.1235587707196797,-4.685871353205514,0.0049355970584533575,0.002495964311135446,0.002724120852327992,0.003176549709711136,-590.4500244417358,3702.486910922825,-64.73137942304724,663.1659106792273,3457.6618309263636,-416.8155378324361,Vision,NoMovement,2
0.04,0.014401780642463868,0.009766052296918735,62.11715986541282,61.25290023201856,0.1239612531203601,-4.684282292083388,0.005007370429063261,0.0024743210506315474,0.0027116286352684106,0.0031451870816201107,-590.4291314293458,3702.481557311073,-64.7405634030707,663.2059250188148,3457.7655316935884,-416.80328723950726,Vision,NoMovement,2
0.041,0.014402175530775828,0.009771280686421474,62.11715986541282,61.25290023201856,0.12436614922875297,-4.682684189493561,0.005079920873798939,0.0024511854884809127,0.002703104500692743,0.0031161031319062,-590.4082384169559,3702.4762036993216,-64.74974738309415,663.2459393584024,3457.8692324608132,-416.7910366465784,Vision,NoMovement,2
0.042,0.014402519315085183,0.00977637062481382,62.11715986541282,61.25290023201856,0.12477346558904068,-4.681077012625807,0.0051522492220417776,0.002426800393423913,0.0026982704721307572,0.0030894436011407824,-590.3873904041407,3702.4793043940876,-64.77504150796901,663.2859536979901,3457.9729332280385,-416.7787860536495,Vision,NoMovement,2
0.043000000000000003,0.014402814297252044,0.009781332934761095,62.11715986541282,61.25290023201856,0.12518320872744287,-4.679460728601851,0.005223289824525493,0.0024014269126417416,0.002696806866776015,0.00306531524834079,-590.3665492902578,3702.4837012275375,-64.80280549620804,663.3259680375776,3458.0766339952634,-416.76653546072066,Vision,NoMovement,2
0.044,0.014403062245854465,0.009786176484312575,62.11715986541282,61.25290023201856,0.12559538515234558,-4.67783530446947,0.005291929476849816,0.002375340435320688,0.0026983635686978332,0.0030437871061441838,-590.345708176375,3702.488098060987,-64.83056948444707,663.3659823771652,3458.180334762488,-416.75428486779185,Vision,NoMovement,2
0.045,0.014403264213330878,0.009790908390067628,62.11715986541282,61.25290023201856,0.12601000135406976,-4.6762007072038205,0.005357028903623177,0.002348826286833667,0.0027025712701901836,0.003024891788336765,-590.3248670624921,3702.4924948944367,-64.85833347268611,663.4059967167528,3458.284035529713,-416.742034274863,Vision,NoMovement,2
0.046,0.01440342122812338,0.009795534536993326,62.11715986541282,61.25290023201856,0.1264270638049984,-4.674556903708696,0.005417446282789867,0.002322175347947061,0.002709052378551638,0.0030086267699994795,-590.3040259486093,3702.4968917278866,-64.88609746092514,663.4460110563404,3458.387736296938,-416.7297836819341,Vision,NoMovement,2
0.047,0.014403534516765203,0.009800059993171928,62.11715986541282,61.25290023201856,0.12684657895785423,-4.672903860810558,0.005472062130812643,0.0022956796791046663,0.0027174312976398977,0.0029949555981585597,-590.2831848347264,3702.501288561336,-64.91386144916417,663.486025395928,3458.4914370641627,-416.71753308900526,Vision,NoMovement,2
0.048,0.014403605560570012,0.009804489686827587,62.11715986541282,61.25290023201856,0.1272685532477063,-4.671241545267218,0.00551980474459689,0.002269628225724332,0.0027273438201543894,0.002983809023637145,-590.2623437208435,3702.505685394786,-64.9416254374032,663.5260695899805,3458.5925249154293,-416.7080605745693,Vision,NoMovement,2
0.049,0.014403635979654923,0.009808828414899178,62.11715986541282,61.25290023201856,0.12769299309023135,-4.669569923761792,0.005559675316374655,0.0022443026749064897,0.002738445426471434,0.002975086078992301,-590.2415026069607,3702.5100822282357,-64.96938942564225,663.5661944204047,3458.686555327784,-416.70609160007496,Vision,NoMovement,2
0.05,0.014403627641557858,0.009813079984312181,62.11715986541282,61.25290023201856,0.12811990488185393,-4.667888962904028,0.005590771826572258,0.0022199735153996614,0.0027504183685884,0.0029686551668148212,-590.2206614930778,3702.514479061685,-64.99715341388128,663.6063192508288,3458.780585740138,-416.7041226255806,Vision,NoMovement,2
0.051000000000000004,0.014403582463092092,0.009817246182551219,62.11715986541282,61.25290023201856,0.12854929499987644,-4.6661986292301965,0.005612310874584486,0.002196896327011024,0.0027629774968738435,0.002964355255645442,-590.199820379195,3702.518875895135,-65.02491740212031,663.646444081253,3458.8746161524928,-416.7021536510863,Vision,NoMovement,2
0.052000000000000005,0.014403501838574199,0.00982132815826306,62.11715986541282,61.25290023201856,0.1289811698007137,-4.664498889204404,0.005623646706028689,0.002175308301433975,0.0027758748438130435,0.0029619973010371263,-590.1789792653121,3702.5232727285843,-65.05268139035934,663.6865689116772,3458.9686465648474,-416.70018467659196,Vision,NoMovement,2
0.053,0.014403386872837308,0.009825329326494825,62.11715986541282,61.25290023201856,0.12941553562195576,-4.66278970921243,0.005624286793871904,0.0021554249835198935,0.002788903012402316,0.0029613660205473503,-590.1581381514293,3702.527669562034,-65.08044537859838,663.7266937421014,3459.0626769772016,-416.6982157020976,Vision,NoMovement,2
0.054,0.014403238565792401,0.009829256343337525,62.11715986541282,61.25290023201856,0.12985239878058222,-4.661071055570701,0.005613903414448138,0.0021374372297864926,0.002801897431410925,0.0029622221574124316,-590.1372970375465,3702.532066395484,-65.10820936683741,663.7668185725256,3459.1567073895562,-416.6962467276033,Vision,NoMovement,2
0.055,0.014403057361726977,0.00983311800512399,62.11715986541282,61.25290023201856,0.13029176557310398,-4.6593428945200515,0.005592340767680277,0.0021215084152266797,0.0028147375412713544,0.002964305355211203,-590.1164559236637,3702.5364632289334,-65.13597335507644,663.8069434029497,3459.250737801911,-416.69427775310896,Vision,NoMovement,2
0.056,0.01440284370560675,0.009836922651891698,62.11715986541282,61.25290023201856,0.1307336422753235,-4.657605192227135,0.0055596173867593504,0.002107771977541845,0.0028273469720933074,0.0029673377169606814,-590.0956148097808,3702.540860062383,-65.16373734331547,663.8470682333739,3459.344768214265,-416.69230877861463,Vision,NoMovement,2
0.057,0.014402597763444684,0.009840677256051884,62.11715986541282,61.25290023201856,0.13117803514246837,-4.655857914785776,0.005515923892650337,0.0020963294350515786,0.0028396927798934784,0.002971028042224225,-590.074773695898,3702.545256895833,-65.19150133155452,663.8871930637981,3459.4387986266197,-416.6903398041203,Vision,NoMovement,2
0.058,0.014402319140050175,0.009844388669613928,62.11715986541282,61.25290023201856,0.13162495040737304,-4.654101028210659,0.005461616510717063,0.002087249013610002,0.0028517838134976274,0.002975076656448452,-590.0586521107632,3702.549367698688,-65.21932517503782,663.9273178942223,3459.5328290389743,-416.68837082962597,Vision,NoMovement,2
0.059000000000000004,0.014402007448220218,0.009848065328874868,62.11715986541282,61.25290023201856,0.13207439428260975,-4.652334498446543,0.005397207056351024,0.0020805649640587513,0.0028636682780509817,0.0029791806960853093,-590.0492136816187,3702.5530734638414,-65.24723377739342,663.9674427246465,3459.6268594513285,-416.68640185513163,Vision,NoMovement,2
0.06,0.014401662393293978,0.009851717922755653,62.11715986541282,61.25290023201856,0.1325263729586466,-4.650558291361858,0.005323350222287726,0.00207627757556651,0.002875430528557572,0.002983039694387467,-590.0397752524741,3702.5567792289944,-65.27514237974901,664.0075675550706,3459.720889863683,-416.6844328806373,Vision,NoMovement,2
0.061,0.01440128382350355,0.00985536034871445,62.11715986541282,61.25290023201856,0.13298089260400203,-4.648772372750141,0.005240828956757709,0.0020743538240059534,0.0028871870692999888,0.002986361309034086,-590.0303368233295,3702.560484994148,-65.3030509821046,664.0476923854948,3459.814920276038,-416.68246390614297,Vision,NoMovement,2
0.062,0.014400870911061162,0.009859009738046766,62.11715986541282,61.25290023201856,0.13343795936538258,-4.646976708329924,0.005150538592537703,0.0020747285577598176,0.002899081682969152,0.0029888670328421956,-590.020898394185,3702.564190759301,-65.33095958446019,664.087817215919,3459.908950688392,-416.68049493164864,Vision,NoMovement,2
0.063,0.014400422009727146,0.009862685356827994,62.11715986541282,61.25290023201856,0.13389757936581895,-4.645171263746133,0.005053470252439932,0.0020773061167277274,0.0029112796036135083,0.0029902977376190473,-590.0114599650404,3702.5678965244538,-65.35886818681577,664.1279420463432,3460.0029811007466,-416.6785259571543,Vision,NoMovement,2
0.064,0.014399935798833186,0.009866407474752873,62.11715986541282,61.25290023201856,0.13435975870685565,-4.643356004563597,0.004950693951992392,0.0020819622916454367,0.002923960692405533,0.002990418921695976,-590.0020215358959,3702.571602289607,-65.38677678917136,664.1680668767674,3460.097011513101,-416.67655698266,Vision,NoMovement,2
0.065,0.014399411046540862,0.00987019460164216,62.11715986541282,61.25290023201856,0.13482450346666075,-4.641530896276555,0.00484334175098792,0.0020885465416650194,0.0029373116552181967,0.002989025548132437,-589.9925831067513,3702.57530805476,-65.41468539152694,664.205454195373,3460.182621515056,-416.67610804189565,Vision,NoMovement,2
0.066,0.014398846781542962,0.009874061373779105,62.11715986541282,61.25290023201856,0.1352918197001805,-4.639695904302064,0.004732591254819445,0.0020968843900733354,0.0029515174345085054,0.002985946356644942,-589.9831446776068,3702.579013819913,-65.44259399388254,664.2414841938677,3460.264056487591,-416.6764127681427,Vision,NoMovement,2
0.067,0.014398242743049553,0.009878020161559656,62.11715986541282,61.25290023201856,0.13576171343888985,-4.637850993981512,0.004619649736292153,0.0021067799175963245,0.002966752007332368,0.0029810475136965923,-589.9737062484622,3702.5827195850666,-65.47050259623813,664.2775141923622,3460.345491460126,-416.67671749438983,Vision,NoMovement,2
0.068,0.014397599103798855,0.009882084217620088,62.11715986541282,61.25290023201856,0.13623419069093373,-4.635996130582057,0.004505739109200577,0.0021180182798343143,0.002983168924776247,0.002974235454332011,-589.9642678193177,3702.5864253502195,-65.49841119859371,664.3135441908569,3460.4269264326617,-416.67702222063696,Vision,NoMovement,2
0.069,0.014396916204523474,0.009886269531061805,62.11715986541282,61.25290023201856,0.13670925743920936,-4.634131279289976,0.004392081910848235,0.0021303681919949886,0.0030008920123479267,0.002965458785570841,-589.9548293901731,3702.5901311153725,-65.52631980094931,664.3495741893515,3460.508361405197,-416.6773269468841,Vision,NoMovement,2
0.07,0.014396194587657693,0.009890594302116267,62.11715986541282,61.25290023201856,0.13718691964362606,-4.632256405220436,0.0042798883298295785,0.002143584348202429,0.003020006683545098,0.0029547091679671096,-589.9453909610286,3702.593836880526,-65.55422840330489,664.3856041878461,3460.589796377732,-416.67763167313115,Vision,NoMovement,2
0.07100000000000001,0.01439543519727967,0.009895078709212241,62.11715986541282,61.25290023201856,0.13766718323915697,-4.630371473410726,0.004170344189450868,0.002157409772120709,0.003040552292531937,0.0029420211518453756,-589.935952531884,3702.597542645679,-65.58213700566048,664.4216341863407,3460.6712313502676,-416.67793639937827,Vision,NoMovement,2
0.07200000000000001,0.014394639763874069,0.009899746911732203,62.11715986541282,61.25290023201856,0.13815005413600775,-4.628476448821829,0.004064599716872524,0.00217157813205161,0.0030625158862759238,0.0029274709936704282,-589.9265141027395,3702.601248410832,-65.61004560801607,664.4576641848354,3460.7526663228027,-416.6782411256254,Vision,NoMovement,2
0.073,0.01439381000983486,0.009904627013404069,62.11715986541282,61.25290023201856,0.13863553821976207,-4.626571296339887,0.003963758953350745,0.002185816093884689,0.003085827639996077,0.0029111745038801215,-589.9170756735949,3702.6049541759853,-65.63795421037166,664.49369418333,3460.834101295338,-416.67854585187246,Vision,NoMovement,2
0.074,0.01439294666354109,0.009909747686128074,62.11715986541282,61.25290023201856,0.13912364134941763,-4.624655980769411,0.003868869768726565,0.0021998458202966893,0.003110358184457915,0.002893283990027601,-589.9076372444504,3702.6086599411383,-65.66586281272724,664.5297241818246,3460.915536267873,-416.6788505781196,Vision,NoMovement,2
0.075,0.01439204959736132,0.009915135838688626,62.11715986541282,61.25290023201856,0.13961436935970545,-4.622730466843293,0.0037809145603965957,0.002213387736911401,0.0031359179583947917,0.002873984377572975,-589.8994613662454,3702.599703590227,-65.68877894649563,664.5657541803192,3460.9969712404086,-416.6791553043667,Vision,NoMovement,2
0.076,0.014391118695491914,0.009920815511452536,62.11715986541282,61.25290023201856,0.14010772805909233,-4.620794719215881,0.0037008017690162366,0.0022261636604236144,0.003162258633634442,0.0028534886284792174,-589.8913371035252,3702.590229587917,-65.71149097864843,664.6017841788139,3461.0784062129437,-416.67946003061377,Vision,NoMovement,2
0.077,0.014390153366820833,0.00992680839486081,62.11715986541282,61.25290023201856,0.14060372322994866,-4.618848702464601,0.0036293582906318806,0.0022379003235757184,0.0031890765500732997,0.0028320326329078476,-589.8832128408051,3702.5807555856068,-65.73420301080122,664.6378141773085,3461.159841185479,-416.6797647568609,Vision,NoMovement,2
0.078,0.014389152410083846,0.009933136103148377,62.11715986541282,61.25290023201856,0.14110236062828915,-4.6168923810914615,0.0035673227660954683,0.0022483332574630647,0.003216017973838523,0.0028098697938689432,-589.8750885780848,3702.5712815832967,-65.75691504295402,664.6738441758031,3461.241276158014,-416.680069483108,Vision,NoMovement,2
0.079,0.014388114789249581,0.009939819892785666,62.11715986541282,61.25290023201856,0.14160364598392194,-4.614925719516105,0.003515339661782128,0.002257210933299203,0.0032426858843715924,0.0027872655297158677,-589.8669643153647,3702.561807580987,-65.77962707510682,664.7098741742977,3461.3227111305496,-416.6803742093551,Vision,NoMovement,2
0.08,0.014387039658198751,0.009946878616384856,62.11715986541282,61.25290023201856,0.14210758499842985,-4.612948682086079,0.0034739540740579937,0.0022642990385549774,0.0032686479370273767,0.002764491876988664,-589.8588400526445,3702.552333578677,-65.80233910725961,664.7459041727924,3461.4041461030847,-416.6806789356022,Vision,NoMovement,2
0.081,0.01438592641467602,0.00995432722404343,62.11715986541282,61.25290023201856,0.14261418334756124,-4.610961233069752,0.003443607264933024,0.0022693847578278484,0.003293445251495157,0.002741822307523314,-589.8507157899243,3702.542859576367,-65.82505113941242,664.7812488652414,3461.484806771036,-416.68074839655026,Vision,NoMovement,2
0.082,0.014384774212564748,0.009962177104567998,62.11715986541282,61.25290023201856,0.14312344667917293,-4.608963336657936,0.003424633000194531,0.0022722809289157284,0.0033166017230921835,0.0027195268172726965,-589.8425915272041,3702.533385574057,-65.84776317156522,664.8070287565055,3461.5546604871865,-416.6775342649698,Vision,NoMovement,2
0.083,0.014383582040894382,0.009970436850193611,62.11715986541282,61.25290023201856,0.14363538061341438,-4.606954956963819,0.0034172547621959012,0.002272829946605932,0.003337633609814087,0.0026978673195958316,-589.8344672644839,3702.5239115717472,-65.87047520371802,664.8328086477696,3461.6245142033376,-416.67432013338924,Vision,NoMovement,2
0.084,0.014382348779199666,0.009979111669664262,62.11715986541282,61.25290023201856,0.14414999074288057,-4.6049360580245144,0.0034215838680306636,0.002270907296506104,0.0033560591851363735,0.0026770933872769277,-589.8263430017638,3702.514437569437,-65.89318723587081,664.8585885390338,3461.6943679194883,-416.6711060018087,Vision,NoMovement,2
0.085,0.014381073143763358,0.00998820253993579,62.11715986541282,61.25290023201856,0.14466728263054612,-4.602906603793929,0.0034376184881192975,0.002266424619112257,0.0033714082665321013,0.0026574384254117985,-589.8182187390436,3702.504963567127,-65.91589926802361,664.8843684302979,3461.7642216356394,-416.66789187022823,Vision,NoMovement,2
0.08600000000000001,0.014379753833649448,0.009997705528968549,62.11715986541282,61.25290023201856,0.14518726181221697,-4.600866558153344,0.0034652435631175173,0.0022593322223181745,0.003383231436342526,0.0026391163981255832,-589.8100944763235,3702.495489564817,-65.9386113001764,664.910148321562,3461.83407535179,-416.6646777386477,Vision,NoMovement,2
0.08700000000000001,0.014378390235222195,0.010007614095967182,62.11715986541282,61.25290023201856,0.1457099337944236,-4.598815884904134,0.0035042316361980144,0.002249620976853992,0.003391108760677781,0.002622319241304492,-589.8019702136032,3702.4860155625074,-65.9613233323292,664.9359282128261,3461.903929067941,-416.66146360706716,Vision,NoMovement,2
0.088,0.014376982700235054,0.010017922555185684,62.11715986541282,61.25290023201856,0.14623530405460225,-4.596754547769491,0.003554244606303381,0.002237323546048112,0.003394657786840949,0.0026072150633277497,-589.7938459508831,3702.4765415601973,-65.984035364482,664.9617081040902,3461.973782784092,-416.6582494754867,Vision,NoMovement,2
0.089,0.014375532081848424,0.010028627533945286,62.11715986541282,61.25290023201856,0.14676337804082634,-4.594682510396024,0.0036148363470406,0.002222514915656865,0.0033935405935503755,0.0025939471859401917,-589.7857216881629,3702.4670675578873,-66.0067473966348,664.9874879953543,3462.0436365002424,-416.65503534390615,Vision,NoMovement,2
0.09,0.014374039014560849,0.010039726341001438,62.11715986541282,61.25290023201856,0.14729416117196303,-4.592599736346465,0.003685456068203167,0.0022053121921155883,0.0033874697154089514,0.002582634028667575,-589.7775974254428,3702.457593555577,-66.0294594287876,665.0132678866185,3462.1134902163935,-416.6518212123256,Vision,NoMovement,2
0.091,0.014372504191586649,0.010051213304495259,62.11715986541282,61.25290023201856,0.14782765883555196,-4.590506189110519,0.0037654522879066064,0.0021858736312137584,0.003376212866886073,0.0025733697876751263,-589.7680589401111,3702.4419766213014,-66.0491614882328,665.0390477778826,3462.183343932544,-416.64860708074514,Vision,NoMovement,2
0.092,0.01437092852600985,0.010063078595671356,62.11715986541282,61.25290023201856,0.14836387639032922,-4.588401832097408,0.0038540773631162853,0.0021643968654813206,0.0033595965087195394,0.002566225794492692,-589.7571483134602,3702.4203995427706,-66.06594313904591,665.0648276691467,3462.2531976486953,-416.6453929491646,Vision,NoMovement,2
0.093,0.01436931329040586,0.010075309956309638,62.11715986541282,61.25290023201856,0.14890281916406067,-4.5862866286376605,0.003950492657719815,0.0021411163374776493,0.0033375083805184096,0.0025612523678338675,-589.7462376868094,3702.3988224642394,-66.08272478985903,665.0906075604108,3462.323051364846,-416.64217881758407,Vision,NoMovement,2
0.094,0.014367660610551034,0.01008789301722352,62.11715986541282,61.25290023201856,0.14944449245374122,-4.58416054198475,0.004053774556423105,0.002116300000300678,0.00330989915442159,0.00255848090478113,-589.7353270601585,3702.3772453857086,-66.09950644067214,665.1163874516749,3462.3929050809966,-416.6389646860036,Vision,NoMovement,2
0.095,0.01436597270901776,0.01010081102932109,62.11715986541282,61.25290023201856,0.1499889015257552,-4.582023535307645,0.004162921598278373,0.002090245381577981,0.003276783368275052,0.002557925917145384,-589.7244164335076,3702.355668307178,-66.11628809148526,665.142167342939,3462.4627587971477,-416.63575055442305,Vision,NoMovement,2
0.096,0.01436425200822591,0.010114044472340699,62.11715986541282,61.25290023201856,0.1505360516137084,-4.579875571701933,0.004276862996182524,0.0020632751108942992,0.003238239789114521,0.0025595867347068856,-589.7135058068567,3702.334091228647,-66.13306974229839,665.1679472342032,3462.5326125132983,-416.6325364228425,Vision,NoMovement,2
0.097,0.014362500813112324,0.010127569595848679,62.11715986541282,61.25290023201856,0.15108594792101307,-4.577716614182184,0.004394468754245949,0.002035732009259883,0.003194411331838774,0.0025634486886488175,-589.7025951802058,3702.3125141501164,-66.1498513931115,665.1937271254673,3462.6024662294494,-416.62932229126204,Vision,NoMovement,2
0.098,0.01436072193092537,0.010141358968013206,62.11715986541282,61.25290023201856,0.15163859561867093,-4.575546625683799,0.004514561511100649,0.0020079738575715057,0.003145504615834023,0.002569483730075653,-589.6916845535549,3702.2909370715856,-66.16663304392462,665.2139804604554,3462.6663850868167,-416.6218409844371,Vision,NoMovement,2
0.099,0.014358918889644901,0.010155387938683279,62.11715986541282,61.25290023201856,0.15219399984547965,-4.5733655690646895,0.00463593013691786,0.0019803679838981173,0.003091789190558363,0.0025776505648894407,-589.6807739269041,3702.2693599930544,-66.18341469473773,665.2278800968597,3462.7234808337394,-416.6094538476606,Vision,NoMovement,2
0.1,0.014357095405392421,0.01016963549599684,62.11715986541282,61.25290023201856,0.15275216570819622,-4.57117340709767,0.0047573449838311235,0.001953285812326489,0.003033596409659905,0.0025878944504717435,-589.6698633002532,3702.2477829145237,-66.20019634555085,665.241779733264,3462.780576580662,-416.59706671088406,Vision,NoMovement,2
0.101,0.014355255837385348,0.010184077556717552,62.11715986541282,61.25290023201856,0.15331309827932266,-4.5689701024818605,0.0048775745658157545,0.0019270974888040485,0.0029713178875121022,0.002600146810362789,-589.6589526736022,3702.226205835993,-66.21697799636398,665.2556793696683,3462.8376723275846,-416.5846795741076,Vision,NoMovement,2
0.10200000000000001,0.014353404547179016,0.010198682087499956,62.11715986541282,61.25290023201856,0.15387680259975267,-4.5667556178348745,0.004995403353369071,0.0019021666535224426,0.002905403433384924,0.0026143248173051445,-589.6480420469513,3702.204628757462,-66.2337596471771,665.2695790060726,3462.8947680745077,-416.5722924373311,Vision,NoMovement,2
0.10300000000000001,0.014351545812719014,0.010213409502024711,62.11715986541282,61.25290023201856,0.1544432836765028,-4.564529915694678,0.005109650303873845,0.0018788453831370725,0.0028363583340084287,0.002630331085318377,-589.6371314203004,3702.1830516789314,-66.25054129799021,665.2834786424769,3462.9518638214304,-416.5599053005546,Vision,NoMovement,2
0.10400000000000001,0.014349684300604812,0.010228216862828411,62.11715986541282,61.25290023201856,0.15501254648292764,-4.5622929585195475,0.005219187697740219,0.0018574692956621873,0.0027647398384756435,0.0026480535892625385,-589.6262207936495,3702.1614746004007,-66.26732294880333,665.2973782788812,3463.008959568353,-416.5475181637781,Vision,NoMovement,2
0.105,0.014347824604555146,0.010243060855606658,62.11715986541282,61.25290023201856,0.15558459595888588,-4.560044708689812,0.005322959774143119,0.0018383528116234086,0.0026911527051179185,0.002667365892087197,-589.6153101669986,3702.1398975218694,-66.28410459961646,665.3112779152855,3463.0660553152757,-416.53513102700157,Vision,NoMovement,2
0.106,0.014345971399475004,0.010257901124611458,62.11715986541282,61.25290023201856,0.15615943700847917,-4.557785128500048,0.0054200005673626485,0.0018217845843109838,0.0026162437105985456,0.0026881277158795833,-589.6043995403478,3702.1183204433387,-66.30088625042957,665.3251775516898,3463.1231510621983,-416.52274389022506,Vision,NoMovement,2
0.107,0.01434412946475256,0.01027270188077358,62.11715986541282,61.25290023201856,0.1567370745027611,-4.555514180170809,0.005509450270677929,0.0018080231316055385,0.0025406950904758724,0.002710185852582676,-589.5933123508783,3702.0965317218684,-66.31734935046877,665.339077188094,3463.1802468091214,-416.51035675344855,Vision,NoMovement,2
0.108,0.01434230391129386,0.010287426395213501,62.11715986541282,61.25290023201856,0.15731751327741766,-4.5532318258406175,0.005590569449415927,0.0017972927258516904,0.002465216939996565,0.0027333753844828628,-589.5791548187941,3702.071062631323,-66.32827300554531,665.3529768244983,3463.237342556044,-416.49796961667204,Vision,NoMovement,2
0.109,0.014340500037906689,0.010302034756357993,62.11715986541282,61.25290023201856,0.15790075813297613,-4.550938027567932,0.00566275052836073,0.0017897796356226106,0.002390538647668165,0.002757521176659452,-589.5649972867101,3702.045593540778,-66.33919666062185,665.3668764609026,3463.2944383029667,-416.4855824798955,Vision,NoMovement,2
0.11,0.014338722787345945,0.010316489761000707,62.11715986541282,61.25290023201856,0.15848681383451851,-4.548632747332929,0.0057255261374279534,0.001785628854779912,0.002317399472672272,0.0027824396104743658,-589.5508397546259,3702.020124450233,-66.35012031569838,665.3807760973069,3463.3515340498893,-416.4731953431191,Vision,NoMovement,2
0.111,0.014336976615883195,0.010330756725475026,62.11715986541282,61.25290023201856,0.15907568511185213,-4.546315947029539,0.005778574036924298,0.0017849414737897817,0.002246538427290546,0.0028079405343198363,-589.5366822225418,3701.9946553596883,-66.36104397077492,665.3946757337112,3463.4086297968124,-416.46080820634256,Vision,NoMovement,2
0.112,0.01433526548979891,0.010344798763035906,62.11715986541282,61.25290023201856,0.1596673766571919,-4.543987588477464,0.005821718428891158,0.0017877728337493848,0.002178683670240517,0.002833829402052004,-589.5225246904578,3701.9691862691434,-66.37196762585145,665.4085753701155,3463.465725543735,-416.44842106956605,Vision,NoMovement,2
0.113,0.014333592906810215,0.010358582594606923,62.11715986541282,61.25290023201856,0.16026189312794425,-4.541647633413981,0.005854927554799872,0.0017941315604347475,0.002114541638383821,0.0028599095452045407,-589.5083671583736,3701.943717178598,-66.38289128092799,665.4224750065199,3463.5228212906577,-416.43603393278954,Vision,NoMovement,2
0.114,0.014331961921803141,0.010372085334779546,62.11715986541282,61.25290023201856,0.16085923914432612,-4.539296043495921,0.005878307631550648,0.0018039795188913267,0.0020547861631235913,0.0028859844867936382,-589.4942096262895,3701.918248088053,-66.39381493600453,665.4363746429242,3463.5799170375803,-416.42364679601303,Vision,NoMovement,2
0.115,0.014330375172714802,0.010385289476309045,62.11715986541282,61.25290023201856,0.16145941928959603,-4.536932780299664,0.0058920933644631135,0.0018172326723381383,0.002000047840099807,0.002911860178842968,-589.4800520942055,3701.8927789975082,-66.40473859108107,665.4456057601062,3463.624709189573,-416.40120799994384,Vision,NoMovement,2
0.116,0.014328834905912604,0.010398173672979787,62.11715986541282,61.25290023201856,0.16206243811022847,-4.534557805322966,0.005896635433617336,0.0018337627783753113,0.0019509039438013935,0.0029373470505701217,-589.4658945621213,3701.8673099069633,-66.4156622461576,665.4540990035497,3463.667556720765,-416.37718050838726,Vision,NoMovement,2
0.117,0.01432734300091293,0.01041071389805599,62.11715986541282,61.25290023201856,0.16266830011354913,-4.532171079976807,0.005892385468022089,0.001853399817220219,0.0019078691795366223,0.0029622617827251333,-589.4517370300372,3701.8418408164184,-66.42658590123413,665.4625922469932,3463.710404251957,-416.3531530168306,Vision,NoMovement,2
0.11800000000000001,0.014325900994380945,0.010422892056900633,62.11715986541282,61.25290023201856,0.1632770097705813,-4.529772565597757,0.005879879113377427,0.001875935036709693,0.0018713875364261194,0.0029864287480296497,-589.4375794979532,3701.816371725873,-66.43750955631067,665.4710854904367,3463.7532517831487,-416.32912552527404,Vision,NoMovement,2
0.11900000000000001,0.014324510103377666,0.010434703854606564,62.11715986541282,61.25290023201856,0.1638885715136141,-4.527362223439559,0.005859717861448558,0.0019011245233570557,0.0018418254540138056,0.00300968106877187,-589.423421965869,3701.790902635328,-66.44843321138721,665.4795787338802,3463.7960993143406,-416.3050980337174,Vision,NoMovement,2
0.12,0.014323171247831156,0.010446162578482321,62.11715986541282,61.25290023201856,0.16450298973642632,-4.5249400146752485,0.005832550331762973,0.0019286932492893437,0.0018194664628372657,0.0030318612546820023,-589.409264433785,3701.7654335447833,-66.45935686646375,665.4880719773237,3463.8389468455325,-416.2810705421608,Vision,NoMovement,2
0.121,0.014321885072211056,0.010457288432871126,62.11715986541282,61.25290023201856,0.16512026879399153,-4.522505900399022,0.005799053678698188,0.001958339567154111,0.0018045074031329753,0.003052821416835533,-589.3951069017008,3701.7399644542384,-66.47028052154027,665.4965652207671,3463.8817943767244,-416.25704305060424,Vision,NoMovement,2
0.122,0.014320651966393254,0.01046809886524241,62.11715986541282,61.25290023201856,0.16574041300265596,-4.520059841617916,0.005759915734271553,0.001989740120481828,0.0017970562615646532,0.003072423100140939,-589.3809493696167,3701.7144953636935,-66.48120417661681,665.5050584642106,3463.9246419079163,-416.2330155590476,Vision,NoMovement,2
0.123,0.014319472085704476,0.010478613859487439,62.11715986541282,61.25290023201856,0.16636342663771772,-4.517601799264472,0.005715818383854062,0.0020225551165907046,0.0017971315910928782,0.003090536826770441,-589.3667918375327,3701.689026273148,-66.49212783169335,665.5135517076542,3463.9674894391082,-416.208988067491,Vision,NoMovement,2
0.124,0.014318345370139905,0.010488857674526295,62.11715986541282,61.25290023201856,0.16698931393634966,-4.515131734188136,0.005667422527288109,0.002056433882837388,0.0018046634007096729,0.003107041490621033,-589.3504431025278,3701.6638526475526,-66.50064141931297,665.5220449510977,3464.0103369703,-416.1849605759344,Vision,NoMovement,2
0.125,0.01431727156275223,0.010498849083633783,62.11715986541282,61.25290023201856,0.1676180790951047,-4.512649607157437,0.00561535484935073,0.0020910205954480033,0.001819495331864468,0.0031218237754137017,-589.3326408932418,3701.6388750105166,-66.5075563548719,665.5305381945411,3464.053184501492,-416.1609330843778,Vision,NoMovement,2
0.126,0.014316250227212128,0.010508596882217098,62.11715986541282,61.25290023201856,0.16824972627016557,-4.510155378861909,0.005560196548070887,0.00212596004709873,0.0018413878947339604,0.0031347777725715055,-589.3148386839557,3701.6138973734805,-66.51447129043083,665.5390314379846,3464.0960320326835,-416.13690559282117,Vision,NoMovement,2
0.127,0.01431528076454485,0.010518100851972991,62.11715986541282,61.25290023201856,0.16888425957752604,-4.507649009903598,0.00550247416166223,0.002160903313332027,0.001870022542954444,0.0031458049437652273,-589.2970364746697,3701.5889197364445,-66.52138622598976,665.5475246814281,3464.1388795638754,-416.1128781012646,Vision,NoMovement,2
0.128,0.014314362429050239,0.01052736036794715,62.11715986541282,61.25290023201856,0.16952168309052304,-4.50513046081003,0.0054426526603299375,0.002195513185993336,0.001905006419563383,0.003154814521379388,-589.2792342653836,3701.5639420994085,-66.5283011615487,665.5560179248716,3464.1817270950673,-416.088850609708,Vision,NoMovement,2
0.129,0.014313494343412959,0.010536381145607534,62.11715986541282,61.25290023201856,0.1701620008428241,-4.502599692025422,0.005381130976139842,0.0022294692480352616,0.0019458776807974964,0.0031617243888123403,-589.2614320560975,3701.5389644623724,-66.53521609710762,665.5645111683151,3464.2245746262593,-416.06482311815137,Vision,NoMovement,2
0.13,0.01431267551301814,0.010545169948962966,62.11715986541282,61.25290023201856,0.17080521682588015,-4.500056663912928,0.005318240103998739,0.0022624724634666337,0.0019921113580627166,0.003166462440379203,-589.2436298468116,3701.5139868253364,-66.54213103266656,665.5730044117586,3464.267422157451,-416.0407956265948,Vision,NoMovement,2
0.131,0.01431190483948276,0.010553736739221439,62.11715986541282,61.25290023201856,0.17145133498916698,-4.497501336756613,0.0052542438113733735,0.002294249166023341,0.0020431257455867137,0.003168968386579305,-589.2258276375255,3701.4890091883003,-66.54904596822549,665.5827297205326,3464.3084901026655,-416.0151573657754,Vision,NoMovement,2
0.132,0.014311181133420203,0.010562093802744942,62.11715986541282,61.25290023201856,0.17210035923988207,-4.494933670752784,0.005189341866712127,0.0023245543553771075,0.0020982893209454756,0.003169195936311378,-589.2080254282395,3701.4640315512643,-66.55596090378442,665.5959282290954,3464.344541384001,-415.98497833643984,Vision,NoMovement,2
0.133,0.014310503126454648,0.010570248829357625,62.11715986541282,61.25290023201856,0.17275229344313023,-4.492353626023267,0.005123675561117542,0.0023531742466099807,0.0021569282306280906,0.0031671152476023976,-589.1902232189534,3701.4390539142287,-66.56287583934335,665.6091267376582,3464.3805926653363,-415.9547993071042,Vision,NoMovement,2
0.134,0.014309869482503576,0.010578211498025486,62.11715986541282,61.25290023201856,0.1734071414193999,-4.489761162606431,0.005057335189985241,0.0023799280481095033,0.002218334388179201,0.0031627154942930093,-589.1724210096673,3701.4140762771926,-66.56979077490229,665.622325246221,3464.4166439466717,-415.92462027776867,Vision,NoMovement,2
0.135,0.014309278808347868,0.010586005802895324,62.11715986541282,61.25290023201856,0.17406490694762716,-4.487156240459422,0.004990369097858919,0.002404668949251798,0.0022817742043656506,0.0031560073633993984,-589.1546188003814,3701.3890986401566,-66.57670571046121,665.6355237547838,3464.452695228007,-415.89444124843305,Vision,NoMovement,2
0.136,0.014308729663511217,0.010593664513405775,62.11715986541282,61.25290023201856,0.17472559376258684,-4.484538819458238,0.004922793871958451,0.002427284283783659,0.0023464979047074304,0.003147025297932072,-589.1368165910953,3701.3641210031205,-66.58362064602015,665.6487222633466,3464.4887465093425,-415.86426221909744,Vision,NoMovement,2
0.137,0.014308220569469355,0.010601227424273461,62.11715986541282,61.25290023201856,0.17538920555516188,-4.4819088593997485,0.0048546052732243924,0.002447694826381829,0.0024117493177719957,0.003135829335068951,-589.1190143818093,3701.3391433660845,-66.59053558157909,665.6619207719094,3464.5247977906774,-415.8340831897619,Vision,NoMovement,2
0.138,0.014307750018212858,0.01060873206080574,62.11715986541282,61.25290023201856,0.1760557459725323,-4.479266319992834,0.004785789508839602,0.0024658531987533693,0.002476775970213048,0.0031225064346258537,-589.1012121725232,3701.3141657290485,-66.59745051713801,665.6751192804721,3464.560849072013,-415.80390416042627,Vision,NoMovement,2
0.139,0.014307316480185187,0.010616206301900013,62.11715986541282,61.25290023201856,0.1767252186156052,-4.476611160872028,0.004716334465957797,0.002481741413961665,0.002540839310159158,0.003107171224595986,-589.0834099632372,3701.2891880920124,-66.60436545269695,665.688317789035,3464.5969003533482,-415.7737251310907,Vision,NoMovement,2
0.14,0.014306918411620203,0.010623666042956444,62.11715986541282,61.25290023201856,0.17739762704214307,-4.473943341588306,0.00464624054036467,0.0024953676623795528,0.0026032249006402294,0.003089966113056902,-589.0650564593236,3701.2640901489235,-66.61124640010351,665.7015162975978,3464.6329516346836,-415.7435461017551,Vision,NoMovement,2
0.14100000000000001,0.014306554261303306,0.010631121396368796,62.11715986541282,61.25290023201856,0.1780729747641035,-4.471262821611492,0.004575530697798158,0.0025067625182869234,0.0026632524561554455,0.0030710607460039123,-589.0435301371937,3701.2382998188273,-66.61793173844077,665.7147148061605,3464.669002916019,-415.71336707241954,Vision,NoMovement,2
0.14200000000000002,0.014306222476779552,0.010638581834932572,62.11715986541282,61.25290023201856,0.1787512652478975,-4.4685695603323214,0.004504259376228808,0.002515974798927885,0.002720285616669232,0.0030506508244573538,-589.0220038150637,3701.2125094887315,-66.62461707677805,665.7279133147233,3464.705054197354,-415.68318804308393,Vision,NoMovement,2
0.14300000000000002,0.01430592151003248,0.010646056715771363,62.11715986541282,61.25290023201856,0.1794325019140802,-4.465863517053416,0.004432519798123254,0.0025230673200056846,0.0027737413383659504,0.0030289563153487378,-589.0004774929337,3701.1867191586357,-66.63130241511533,665.7411118232861,3464.7411054786894,-415.6530090137483,Vision,NoMovement,2
0.14400000000000002,0.014305649822659845,0.010653559628849504,62.11715986541282,61.25290023201856,0.1801166881375438,-4.463144651003238,0.004360449266235373,0.0025281127704026253,0.0028230987343879177,0.00300621909287747,-588.9789511708037,3701.1609288285395,-66.6379877534526,665.7543103318488,3464.777156760025,-415.62282998441276,Vision,NoMovement,2
0.145,0.014305405890567535,0.010661108034770784,62.11715986541282,61.25290023201856,0.1808038272448931,-4.460412921326691,0.004288232118154883,0.0025311898948439256,0.0028679071443874307,0.0029827000414086634,-588.9574248486738,3701.1351384984437,-66.64467309178987,665.7675088404117,3464.81320804136,-415.59265095507715,Vision,NoMovement,2
0.146,0.014305188208208584,0.01066871352287373,62.11715986541282,61.25290023201856,0.1814939225176513,-4.457668287087595,0.0042161001951970985,0.0025323801391313704,0.002907793155999363,0.0029586756594043783,-588.9358985265437,3701.109348168348,-66.65135843012715,665.7807073489745,3464.8492593226956,-415.5624719257416,Vision,NoMovement,2
0.147,0.014304995292388392,0.01067638037497874,62.11715986541282,61.25290023201856,0.182186977189538,-4.454910707270803,0.004144330869372591,0.002531764874002965,0.0029424662625016406,0.002934434231909739,-588.9143722044138,3701.083557838252,-66.65804376846442,665.7939058575372,3464.885310604031,-415.532292896406,Vision,NoMovement,2
0.148,0.014304825685661238,0.01068411283364568,62.11715986541282,61.25290023201856,0.18288299444675857,-4.452140140773005,0.0040732427950061914,0.002529423268886024,0.0029717228452154363,0.002910271673118519,-588.8928458822838,3701.057767508156,-66.6647291068017,665.8115972810249,3464.925578691395,-415.5045268978419,Vision,NoMovement,2
0.149,0.01430467795934117,0.010691919225461284,62.11715986541282,61.25290023201856,0.1835819774282017,-4.44935654641699,0.0040031896214451305,0.0025254308443972517,0.0029954482447068164,0.0028864871542529005,-588.8713195601539,3701.03197717806,-66.67141444513896,665.8316013993269,3464.9680173485567,-415.47800298906714,Vision,NoMovement,2
0.15,0.014304550716148522,0.010699810525920712,62.11715986541282,61.25290023201856,0.18428392922276793,-4.446559882942057,0.003934551965628011,0.002519858699335648,0.0030136168130537877,0.002863378619194164,-588.8497932380238,3701.0061868479643,-66.67809978347624,665.8516055176291,3465.010456005718,-415.4514790802924,Vision,NoMovement,2
0.151,0.014304442592516089,0.010707793272112997,62.11715986541282,61.25290023201856,0.1849888528726418,-4.443750109006569,0.0038677280203197476,0.002512773381983489,0.0030262899590805317,0.0028412382821264327,-588.8282669158939,3700.9803965178685,-66.68478512181352,665.8716096359312,3465.0528946628797,-415.42495517151764,Vision,NoMovement,2
0.152,0.014304352260576225,0.010715870855669012,62.11715986541282,61.25290023201856,0.18569675137051772,-4.440927183190112,0.0038031232420096704,0.00250423735439434,0.0030336122785607545,0.0028203482186200477,-588.806740593764,3700.9546061877722,-66.6914704601508,665.8916137542333,3465.095333320041,-415.3984312627429,Vision,NoMovement,2
0.153,0.014304278429848718,0.010724037470579272,62.11715986541282,61.25290023201856,0.18640762765987706,-4.438091063984123,0.0037411395830318677,0.002494309978894105,0.0030358059105136874,0.0028009761884893476,-588.7852142716339,3700.9288158576765,-66.69815579848806,665.9116178725354,3465.1377719772026,-415.37190735396814,Vision,NoMovement,2
0.154,0.014304219848652856,0.01073228049132796,62.11715986541282,61.25290023201856,0.18712148463467376,-4.435241709806488,0.0036821647136476,0.0024830489340347058,0.003033163299143984,0.002783371828309788,-588.763687949504,3700.9030255275807,-66.70484113682534,665.9316219908376,3465.180210634364,-415.3453834451934,Vision,NoMovement,2
0.155,0.014304175305260602,0.010740591134797013,62.11715986541282,61.25290023201856,0.18783832513953577,-4.432379078991742,0.0036265616390386743,0.002470511940871108,0.003026038570823353,0.002767763305096974,-588.742161627374,3700.877235197485,-66.71152647516261,665.9516261091396,3465.2226492915256,-415.31885953641864,Vision,NoMovement,2
0.156,0.01430414362881324,0.010748966614545458,62.11715986541282,61.25290023201856,0.18855815196703982,-4.429503129793603,0.003574659079692575,0.002456758656544653,0.003014837755867071,0.0027543544456540975,-588.720635305244,3700.8514448673886,-66.71821181349989,665.9716302274418,3465.265087948687,-415.2923356276439,Vision,NoMovement,2
0.157,0.01430412369001832,0.010757414810988906,62.11715986541282,61.25290023201856,0.18928096786106174,-4.426613820385117,0.0035267429634332124,0.0024418525795989092,0.0030000081060709487,0.0027433222832072357,-588.6993612466222,3700.823836940483,-66.72544022045001,665.9916343457439,3465.3075266058486,-415.26581171886914,Vision,NoMovement,2
0.158,0.014304114401646821,0.010765952906487838,62.11715986541282,61.25290023201856,0.19000677551394146,-4.423711108860886,0.0034830493703111175,0.002425862816776823,0.0029820267882011945,0.002734814938164167,-588.6781979660088,3700.7954308412354,-66.73290710842308,666.011638464046,3465.34996526301,-415.2392878100944,Vision,NoMovement,2
0.159,0.014304114718846054,0.01077459873971808,62.11715986541282,61.25290023201856,0.19073557756679452,-4.42079495322748,0.0034437592439592224,0.0024088655873949665,0.002961389262414868,0.0027289497879246934,-588.6570346853956,3700.767024741988,-66.74037399639614,666.0316425823481,3465.3924039201715,-415.21276390131965,Vision,NoMovement,2
0.16,0.014304123639287902,0.010783368458568,62.11715986541282,61.25290023201856,0.19146737660971852,-4.417865311418431,0.0034089951146956013,0.0023909453930385936,0.002938597667335796,0.0027258119528990516,-588.6358714047823,3700.73861864274,-66.74784088436921,666.0516467006503,3465.434842577333,-415.1862399925449,Vision,NoMovement,2
0.161,0.014304140203165734,0.010792277673030282,62.11715986541282,61.25290023201856,0.1922021751790224,-4.414922141284197,0.0033788199684626663,0.0023721958445023714,0.002914149523984035,0.002725453180300951,-588.614708124169,3700.7102125434926,-66.75530777234228,666.0716508189523,3465.4772812344945,-415.15971608377015,Vision,NoMovement,2
0.162,0.01430416349305851,0.010801338078379135,62.11715986541282,61.25290023201856,0.19293997576064323,-4.411965400594864,0.003353238269132056,0.0023527201845646908,0.002888527048509992,0.002727891209293941,-588.5935448435557,3700.681806444245,-66.76277466031534,666.0916549372545,3465.5197198916558,-415.13319217499543,Vision,NoMovement,2
0.163,0.014304192633674785,0.010810554317281791,62.11715986541282,61.25290023201856,0.19368078078725945,-4.408995047042451,0.0033321990258963373,0.0023326315539034994,0.0028621873315213776,0.002733109651115943,-588.5723815629425,3700.6534003449974,-66.77024154828841,666.1116590555565,3465.5621585488175,-415.1066682662207,Vision,NoMovement,2
0.164,0.014304226791491985,0.01081992614995857,62.11715986541282,61.25290023201856,0.19442459263861372,-4.40601103823112,0.003315600695947396,0.002312053028783726,0.0028355536040099096,0.002741058346903735,-588.5512182823293,3700.62499424575,-66.77770843626148,666.131256918525,3465.604929104657,-415.08056396628047,Vision,NoMovement,2
0.165,0.014304265174304507,0.010829449594891058,62.11715986541282,61.25290023201856,0.19517141364172375,-4.403013331692518,0.0033032976305507,0.002291117446973398,0.0028090077808059846,0.002751654112471082,-588.5300550017159,3700.596588146502,-66.78517532423454,666.1443174619778,3465.653040458579,-415.0612118657463,Vision,NoMovement,2
0.166,0.01430430703069328,0.010839119795689871,62.11715986541282,61.25290023201856,0.19592124606806668,-4.400001884875525,0.003295107712344591,0.002269967045162047,0.002782884462794156,0.0027647817717264722,-588.5088917211027,3700.5681820472546,-66.79264221220761,666.1573780054307,3465.701151812501,-415.0418597652121,Vision,NoMovement,2
0.167,0.014304351649429843,0.010848926069945251,62.11715986541282,61.25290023201856,0.19667409213706294,-4.396976655148944,0.0032908207931624718,0.0022487529428148845,0.0027574665785665147,0.002780295417883695,-588.4877284404894,3700.539775948007,-66.80010910018068,666.1704385488836,3465.749263166423,-415.0225076646779,Vision,NoMovement,2
0.168,0.014304398358825592,0.010858860979529103,62.11715986541282,61.25290023201856,0.19742995401313812,-4.393937599801698,0.003290207518727507,0.002227634507201445,0.002732982823684097,0.0027980198928085286,-588.4665651598762,3700.5113698487594,-66.80757598815374,666.1834990923365,3465.797374520345,-415.0031555641437,Vision,NoMovement,2
0.169,0.014304446526038038,0.01086891966628446,62.11715986541282,61.25290023201856,0.1981888338060567,-4.390884676045172,0.003293028117997352,0.002206778616385323,0.0027096069990176224,0.0028177525031250084,-588.4454018792629,3700.482963749512,-66.81504287612681,666.1965596357894,3465.845485874267,-414.9838034636095,Vision,NoMovement,2
0.17,0.014304495556345135,0.01087908884896252,62.11715986541282,61.25290023201856,0.1989507335711381,-4.387817841003232,0.003299040750383207,0.002186358812065866,0.0026874592645377187,0.002839264991497718,-588.4242385986496,3700.454557650264,-66.82250976409986,666.2096201792423,3465.893597228189,-414.96445136307534,Vision,NoMovement,2
0.171,0.014304544892395243,0.010889343816030074,62.11715986541282,61.25290023201856,0.1997156553063961,-4.3847370517279485,0.0033080090505749867,0.0021665543138855332,0.0026666092271739857,0.002862305772484058,-588.4030753180364,3700.4261515510166,-66.82997665207293,666.2226807226951,3465.941708582111,-414.94509926254113,Vision,NoMovement,2
0.17200000000000001,0.01430459401344503,0.010899655881693863,62.11715986541282,61.25290023201856,0.20048360095608989,-4.381642265189118,0.0033197085859153525,0.0021475488592796505,0.002647080682047338,0.002886602439354591,-588.381912037423,3700.397745451769,-66.837443540046,666.235741266148,3465.9898199360327,-414.9257471620069,Vision,NoMovement,2
0.17300000000000001,0.0143046424345918,0.010910003866303383,62.11715986541282,61.25290023201856,0.20125457240773553,-4.37853343827714,0.0033339320299043042,0.00212952933745796,0.0026288577350192088,0.002911864541685043,-588.3607487568098,3700.3693393525214,-66.84491042801906,666.2488018096009,3466.037931289955,-414.9063950614727,Vision,NoMovement,2
0.17400000000000002,0.014304689706009309,0.010920383451835452,62.11715986541282,61.25290023201856,0.20202857149242304,-4.375410527805426,0.0033504929453184993,0.002112684194692783,0.0026118919534754374,0.0029377866178181256,-588.3395854761965,3700.3409332532738,-66.85237731599213,666.2618623530537,3466.0860426438767,-414.8870429609385,Vision,NoMovement,2
0.17500000000000002,0.01430473541219377,0.010930805973401153,62.11715986541282,61.25290023201856,0.2028055999844962,-4.37227349050023,0.003369228158345242,0.0020972015974962924,0.002596110132732613,0.002964051453199709,-588.319988309724,3700.3131049753183,-66.85932538554964,666.2749228965066,3466.134153997799,-414.86769086040437,Vision,NoMovement,2
0.176,0.01430477917122896,0.010941292451397933,62.11715986541282,61.25290023201856,0.20358565960177372,-4.36912228301672,0.003389998789086537,0.0020832673421677665,0.0025814222403726574,0.0029903335462848775,-588.3072885772581,3700.2878215209653,-66.86398849024422,666.2879834399596,3466.1822653517206,-414.84833875987016,Vision,NoMovement,2
0.177,0.0143048206340743,0.010951867699926142,62.11715986541282,61.25290023201856,0.204368752002637,-4.36595686192829,0.0034126900721338322,0.0020710624921454358,0.002567729114216217,0.0030163027991299747,-588.2945888447923,3700.2625380666123,-66.86865159493883,666.3010439834125,3466.230376705643,-414.82898665933595,Vision,NoMovement,2
0.178,0.01430485948388405,0.010962558537952336,62.11715986541282,61.25290023201856,0.2051548787896617,-4.362777183729515,0.0034372101466480444,0.002060760718597356,0.002554929535699689,0.0030416284795358613,-588.2818891123264,3700.237254612259,-66.87331469963343,666.3141045268653,3466.2784880595646,-414.80963455880175,Vision,NoMovement,2
0.179,0.014304895435362003,0.010973394886049708,62.11715986541282,61.25290023201856,0.20594404150656886,-4.35958320483861,0.0034634880230563713,0.0020525253316117952,0.0025429263681688266,0.0030659834994734994,-588.2691893798606,3700.2119711579066,-66.87797780432803,666.3271650703182,3466.3265994134867,-414.79028245826754,Vision,NoMovement,2
0.18,0.014304928234156234,0.010984411057036578,62.11715986541282,61.25290023201856,0.20673624163858467,-4.356374881587082,0.0034914709491744426,0.0020465060235841503,0.0025316315382601204,0.0030890490121688397,-588.2564896473947,3700.1866877035536,-66.88264090902261,666.340225613771,3466.3747107674085,-414.7709303577334,Vision,NoMovement,2
0.181,0.014304957656300202,0.010995636705901361,62.11715986541282,61.25290023201856,0.20753148061266743,-4.353152170236143,0.00352112138696058,0.0020428353949852045,0.00252096974484086,0.003110519262641061,-588.2437899149289,3700.1614042492006,-66.88730401371721,666.3404330453855,3466.4148359755845,-414.7518975831901,Vision,NoMovement,2
0.182,0.014304983507701591,0.011007100060166468,62.11715986541282,61.25290023201856,0.20832975979455215,-4.349915026965806,0.0035524137602987206,0.0020416253809233164,0.002510880886687875,0.003130106554242274,-588.231090182463,3700.136120794848,-66.89196711841181,666.3253586459057,3466.4454659788707,-414.7332444743588,Vision,NoMovement,2
0.183,0.014305005623684492,0.011018830653446426,62.11715986541282,61.25290023201856,0.20913108049244955,-4.346663407877935,0.003585331049964907,0.0020429637381896727,0.002501321287219478,0.0031475461278198604,-588.2183904499972,3700.110837340495,-66.8966302231064,666.310284246426,3466.4760959821565,-414.7145913655275,Vision,NoMovement,2
0.184,0.014305023868586945,0.01103085073882997,62.11715986541282,61.25290023201856,0.20993544395394712,-4.343397268998755,0.003619861210509532,0.0020469107818283467,0.0024922638560767414,0.003162600705266931,-588.2056907175314,3700.085553886142,-66.901293327801,666.2952098469462,3466.5067259854427,-414.69593825669625,Vision,NoMovement,2
0.185,0.014305038135416602,0.011043173404337124,62.11715986541282,61.25290023201856,0.21074285136635065,-4.3401165662683105,0.0036559932918143285,0.0020534965657001913,0.002483697372141076,0.0031750644412977735,-588.1929909850655,3700.060270431789,-66.9059564324956,666.2801354474666,3466.537355988729,-414.67728514786495,Vision,NoMovement,2
0.186,0.014305048345566573,0.011055806197024618,62.11715986541282,61.25290023201856,0.21155330385636373,-4.33682125555724,0.0036937130956867965,0.002062718673326331,0.0024756251001601896,0.0031847660736657453,-588.1802912525997,3700.0349869774363,-66.9106195371902,666.2650610479868,3466.5679859920147,-414.65863203903365,Vision,NoMovement,2
0.187,0.01430505444859327,0.01106874840620714,62.11715986541282,61.25290023201856,0.21236680249032108,-4.333511292655658,0.0037329982236982743,0.0020745407294362754,0.0024680629551178082,0.003191571155457667,-588.1675915201339,3700.0097035230833,-66.91528264188479,666.249986648507,3466.598615995301,-414.6399789302024,Vision,NoMovement,2
0.188,0.014305056422057563,0.011081985361566344,62.11715986541282,61.25290023201856,0.2131833482711823,-4.330186633276155,0.003773812485109972,0.002088891677491693,0.002461037407216359,0.0031953833465928,-588.154891787668,3699.9844200687303,-66.91994574657939,666.2349122490274,3466.6292459985866,-414.6213258213711,Vision,NoMovement,2
0.189,0.014305054271429701,0.011095499623517918,62.11715986541282,61.25290023201856,0.21400294214231214,-4.326847233054096,0.003816099793858511,0.0021056658112051227,0.0024545832833318963,0.00319614479231783,-588.1421920552021,3699.9591366143773,-66.92460885127399,666.2198378495476,3466.659876001873,-414.6026727125398,Vision,NoMovement,2
0.19,0.014305048030058273,0.011109277728287802,62.11715986541282,61.25290023201856,0.21482558498432305,-4.323493047550178,0.0038597778204582734,0.002124723507061104,0.002448741576083897,0.0031938356299218533,-588.1294923227363,3699.9338531600247,-66.92927195596857,666.204763450068,3466.690506005159,-414.5840196037085,Vision,NoMovement,2
0.191,0.014305037759204026,0.0111233078876436,62.11715986541282,61.25290023201856,0.2156512776154634,-4.320124032239679,0.0039047317450275425,0.002145892584036118,0.0024435573334971694,0.0031884726840612277,-588.1167925902705,3699.9085697056717,-66.93393506066317,666.1896890505882,3466.721136008445,-414.56536649487725,Vision,NoMovement,2
0.192,0.014305023548136814,0.011137576605587082,62.11715986541282,61.25290023201856,0.21648002079185652,-4.316740142529658,0.00395080849325507,0.0021689702106147276,0.002439077691563303,0.0031801074555772193,-588.1040928578046,3699.8832862513186,-66.93859816535777,666.1746146511085,3466.751766011731,-414.54671338604595,Vision,NoMovement,2
0.193,0.01430500551429513,0.011152055529834616,62.11715986541282,61.25290023201856,0.21731181520445333,-4.313341333747571,0.003997811859043533,0.0021937252808061697,0.0024353501289191043,0.003168823557097468,-588.0913931253388,3699.858002796966,-66.94326127005236,666.1595402516288,3466.782396015017,-414.52806027721465,Vision,NoMovement,2
0.194,0.01430498380350784,0.011166702943374933,62.11715986541282,61.25290023201856,0.21814666148288067,-4.3099275611445105,0.0040454989205621055,0.002219901187520969,0.0024324210358455715,0.0031547337747197795,-588.078693392873,3699.832719342613,-66.94792437474696,666.1444658521491,3466.813026018303,-414.50940716838335,Vision,NoMovement,2
0.195,0.014304958590274613,0.011181467556344932,62.11715986541282,61.25290023201856,0.21898456019223506,-4.3064987798978285,0.004093578109452332,0.0022472189340957357,0.0024303346654693664,0.0031379769330711323,-588.0659936604071,3699.80743588826,-66.95258747944156,666.1293914526693,3466.843656021589,-414.4907540595521,Vision,NoMovement,2
0.196,0.014304930078103573,0.011196282746012498,62.11715986541282,61.25290023201856,0.21982551183345053,-4.30305494510019,0.004141709194522377,0.00227538054246827,0.0024291324785978,0.003118714721714677,-588.0532939279412,3699.782152433907,-66.95725058413616,666.1143170531897,3466.874286024875,-414.4721009507208,Vision,NoMovement,2
0.197,0.014304898499904217,0.011211070001150413,62.11715986541282,61.25290023201856,0.2206695168429795,-4.2995960117771315,0.004189505312011087,0.0023040727290731104,0.0024288528387283906,0.0030971286153981914,-588.0405941954754,3699.7568689795544,-66.96191368883075,666.0992426537099,3466.904916028161,-414.4534478418895,Vision,NoMovement,2
0.198,0.014304864118430662,0.011225747095624702,62.11715986541282,61.25290023201856,0.22151657559304047,-4.296121934875463,0.004236537044154309,0.002332970827701598,0.0024295309798752053,0.0030734169899517202,-588.0278944630096,3699.7315855252014,-66.96657679352535,666.0542914033248,3466.9024851405907,-414.42936312204006,Vision,NoMovement,2
0.199,0.014304827226773589,0.01124023303689671,62.11715986541282,61.25290023201856,0.22236668838852075,-4.292632669266442,0.004282338424180993,0.0023617429454524355,0.0024311991453839564,0.003047792497025616,-588.0151947305437,3699.7063020708483,-66.97123989821995,666.0042801817918,3466.894455029916,-414.40435849951666,Vision,NoMovement,2
0.2,0.01430478814889479,0.011254452427497195,62.11715986541282,61.25290023201856,0.22321985547090756,-4.28912816974612,0.004326414637475871,0.002390054342182797,0.00243388676775811,0.003020479710874618,-588.0024949980779,3699.6810186164957,-66.97590300291454,665.9542689602588,3466.886424919242,-414.3793538769932,Vision,NoMovement,2
0.201,0.014304747240202097,0.011268337816972234,62.11715986541282,61.25290023201856,0.2240760770150245,-4.285608391038041,0.0043682511097580265,0.002417572017965561,0.0024376205398437484,0.002991713009034489,-587.9897952656121,3699.6557351621427,-66.98056610760914,665.9042577387258,3466.8783948085675,-414.3543492544698,Vision,NoMovement,2
0.202,0.014304704888156364,0.011281826093087526,62.11715986541282,61.25290023201856,0.22493535312945004,-4.282073287782056,0.004407323647133475,0.002443969480001054,0.0024424242385454524,0.002961734611377027,-587.9770955331462,3699.6304517077897,-66.98522921230374,665.8542465171928,3466.8703646978934,-414.32934463194636,Vision,NoMovement,2
0.203,0.014304661512909102,0.011294849416591273,62.11715986541282,61.25290023201856,0.2257976838567715,-4.278522814552327,0.0044431093120884,0.0024689316419174846,0.0024483182110078107,0.0029307926943409964,-587.9643958006803,3699.6051682534367,-66.98989231699834,665.8042352956599,3466.862334587219,-414.30434000942296,Vision,NoMovement,2
0.20400000000000001,0.014304617567960646,0.011307340812064533,62.11715986541282,61.25290023201856,0.22666306917044807,-4.274956925845448,0.004475097759324941,0.0024921597911871855,0.002455318508976048,0.002899139522386507,-587.9516960682145,3699.579884799084,-66.99455542169292,665.7542240741269,3466.8543044765447,-414.2793353868995,Vision,NoMovement,2
0.20500000000000002,0.01430457354083563,0.01131924578378509,62.11715986541282,61.25290023201856,0.22753150897881055,-4.271375576083885,0.0045028027911691955,0.002513376547508422,0.0024634357327652135,0.002867029588360148,-587.9389963357487,3699.554601344731,-66.99921852638752,665.7042128525939,3466.84627436587,-414.25433076437605,Vision,NoMovement,2
0.20600000000000002,0.01430452995376606,0.011330518875161299,62.11715986541282,61.25290023201856,0.22840300312175063,-4.2677787196187165,0.004525773921614236,0.0025323307237356493,0.0024726736905684127,0.002834717798211082,-587.9262966032828,3699.529317890378,-67.00388163108212,665.6542016310609,3466.838244255196,-414.22932614185265,Vision,NoMovement,2
0.20700000000000002,0.014304487364376405,0.011341120446804994,62.11715986541282,61.25290023201856,0.2292775513711166,-4.264166310718261,0.004543607768891888,0.002548801986807389,0.0024830279792270576,0.0028024577532082514,-587.913596870817,3699.504034436025,-67.00854473577671,665.6041904095279,3466.8302141445215,-414.2043215193292,Vision,NoMovement,2
0.20800000000000002,0.014304446366361382,0.01135101878478542,62.11715986541282,61.25290023201856,0.23015515343039958,-4.260538303586454,0.004555959114580396,0.002562605189964766,0.002494484568659894,0.0027705001774081545,-587.8961910084814,3699.4623038759723,-67.01462320704897,665.5541791879949,3466.8221840338474,-414.1793168968058,Vision,NoMovement,2
0.209,0.014304407590148165,0.011360187656550632,62.11715986541282,61.25290023201856,0.23103580893499542,-4.256894652350747,0.004562551456925949,0.0025735942118973194,0.0025070184560241557,0.002739091526590545,-587.8666051054107,3699.3780061911384,-67.02436482044618,665.5041679664619,3466.814153923173,-414.15431227428235,Vision,NoMovement,2
0.21,0.014304371703533702,0.011368594042822582,62.11715986541282,61.25290023201856,0.2319195174490221,-4.2532353110656285,0.004563186836633042,0.002581665102715782,0.0025205924583779266,0.002708472810247143,-587.83701920234,3699.293708506304,-67.03410643384339,665.4541567449289,3466.8061238124988,-414.12930765175895,Vision,NoMovement,2
0.211,0.014304339412287531,0.01137619418574086,62.11715986541282,61.25290023201856,0.2328062784694016,-4.249560233715424,0.0045577546331992645,0.00258675832055729,0.0025351562184171713,0.0026788786486651606,-587.8074332992693,3699.20941082147,-67.0438480472406,665.404145523396,3466.798093701824,-414.1043030292355,Vision,NoMovement,2
0.212,0.014304311460708546,0.011382957485440508,62.11715986541282,61.25290023201856,0.23369609142249373,-4.245869374202728,0.004546238943931562,0.0025888598647457474,0.0025506454844070885,0.0026505365647087843,-587.7778473961986,3699.1251131366357,-67.05358966063781,665.3541343018629,3466.79006359115,-414.0792984067121,Vision,NoMovement,2
0.213,0.014304288632127215,0.011388875461587707,62.11715986541282,61.25290023201856,0.23458895566454796,-4.242162686367155,0.00452872409525488,0.0025880011731458765,0.0025669816936072774,0.0026236664794749846,-587.7482614931278,3699.040815451802,-67.06333127403502,665.30412308033,3466.7820334804755,-414.05429378418864,Vision,NoMovement,2
0.214,0.014304271749338475,0.011393960646325424,62.11715986541282,61.25290023201856,0.23548487048197317,-4.238440123973005,0.004505397812918702,0.002584257730804198,0.002584071857473489,0.0025984803560484206,-587.718675590057,3698.9565177669674,-67.07307288743223,665.2505977434029,3466.7676128412277,-414.0283187561478,Vision,NoMovement,2
0.215,0.014304261674955703,0.011398242855108516,62.11715986541282,61.25290023201856,0.23638383508811658,-4.234701640712879,0.0044765516013511785,0.002577746416899077,0.0026018087276992188,0.0025751819280741607,-587.6890896869863,3698.8722200821335,-67.08281450082944,665.1867240186112,3466.7343733355165,-413.9994860721814,Vision,NoMovement,2
0.216,0.014304259311671525,0.011401758884305415,62.11715986541282,61.25290023201856,0.23728584862741575,-4.2309471902105305,0.004442577962756514,0.002568621697238206,0.0026200712197921544,0.002553966453885721,-587.6595037839156,3698.787922397299,-67.09255611422665,665.1228502938196,3466.7011338298057,-413.970653388215,Vision,NoMovement,2
0.217,0.014304265602412328,0.011404535632940933,62.11715986541282,61.25290023201856,0.23819091017198593,-4.2271767260091115,0.004403964241729287,0.002557070853498993,0.002638725083364637,0.002535020445352944,-587.6299178808449,3698.703624712465,-67.10229772762386,665.058976569028,3466.6678943240945,-413.9418207042485,Vision,NoMovement,2
0.218,0.014304281530372808,0.0114065950402286,62.11715986541282,61.25290023201856,0.23909901872204725,-4.223390201590291,0.004361283112485634,0.002543308513212866,0.0026576238241717612,0.0025185213294773995,-587.6003319777742,3698.619327027631,-67.11203934102106,664.9951028442364,3466.6346548183833,-413.9129880202821,Vision,NoMovement,2
0.219,0.014304308118915223,0.011407966741702486,62.11715986541282,61.25290023201856,0.24001017320561818,-4.219587570361698,0.004315180005892339,0.002527570780770862,0.0026766098843862213,0.0025046370162814264,-587.5707460747034,3698.5350293427964,-67.12178095441827,664.9312291194449,3466.6014153126725,-413.88415533631564,Vision,NoMovement,2
0.22,0.01430434643131858,0.011408682678540845,62.11715986541282,61.25290023201856,0.24092437247879528,-4.215768785660444,0.004266358031537874,0.002510109255957936,0.002695516067289883,0.0024935253736009157,-587.5411601716327,3698.4507316579625,-67.13152256781548,664.8673553946533,3466.5681758069613,-413.85532265234923,Vision,NoMovement,2
0.221,0.014304397570361433,0.01140876855458568,62.11715986541282,61.25290023201856,0.24184161532248785,-4.2119338007535845,0.004215561111199771,0.0024911851751081514,0.0027141671704543615,0.0024853336317359515,-587.511574268562,3698.366433973128,-67.14126418121269,664.8034816698616,3466.53493630125,-413.82648996838276,Vision,NoMovement,2
0.222,0.014304462677721728,0.011408240588509115,62.11715986541282,61.25290023201856,0.2427619004466533,-4.208082568841033,0.0041635560716843795,0.0024710638453326076,0.002732381784390487,0.0024801977451095196,-587.4819883654912,3698.282136288294,-67.1510057946099,664.73960794507,3466.5016967955394,-413.79765728441635,Vision,NoMovement,2
0.223,0.014304542933176938,0.011407102731912186,62.11715986541282,61.25290023201856,0.24368522648683108,-4.204215043043571,0.004111114389649406,0.002450009485156103,0.002749974213922846,0.0024782417224518943,-587.4524024624205,3698.19783860346,-67.16074740800711,664.6757342202785,3466.468457289828,-413.76882460044993,Vision,NoMovement,2
0.224,0.014304639553586558,0.011405352600934926,62.11715986541282,61.25290023201856,0.24461159200463034,-4.200331176422435,0.004058994212859359,0.0024282805412077827,0.0027667564692778297,0.0024795769047972318,-587.4228165593498,3698.113540918626,-67.17048902140432,664.6118604954869,3466.435217784117,-413.73999191648346,Vision,NoMovement,2
0.225,0.014304753791637318,0.01140298314805475,62.11715986541282,61.25290023201856,0.24554099548801855,-4.196430921966473,0.004007923260738857,0.002406125519139731,0.0027825402640863505,0.0024843011256047405,-587.3877450638474,3698.0021814931665,-67.18088152184124,664.5479867706953,3466.4019782784057,-413.71115923251705,Vision,NoMovement,2
0.226,0.014304886934335114,0.011399974187858894,62.11715986541282,61.25290023201856,0.24647343534802052,-4.192514232595956,0.003958583213166492,0.002383779338835266,0.002797138969775035,0.0024924976470013654,-587.3515141847661,3697.8851025509744,-67.19141158768336,664.4841130459037,3466.368738772695,-413.6823265485506,Vision,NoMovement,2
0.227,0.014305040301220094,0.011396294769635293,62.11715986541282,61.25290023201856,0.247408909923023,-4.188581061165558,0.00391159616692795,0.0023614602006337346,0.0028103695083417936,0.002504233756591894,-587.3152833056847,3697.768023608782,-67.20194165352548,664.420239321112,3466.335499266984,-413.65349386458416,Vision,NoMovement,2
0.228,0.014305215242289244,0.011391924592487349,62.11715986541282,61.25290023201856,0.24834741747526548,-4.184631360452156,0.0038675136319744606,0.0023393669442219244,0.002822054193503184,0.002519558944644242,-587.2790524266034,3697.6509446665905,-67.2124717193676,664.3563655963205,3466.3022597612726,-413.6246611806177,Vision,NoMovement,2
0.229,0.014305413135601646,0.011386865102331653,62.11715986541282,61.25290023201856,0.2492889561913452,-4.180665083174803,0.0038268083597599784,0.0023176768970483612,0.0028320225447716644,0.002538502646465767,-587.242821547522,3697.5338657243983,-67.22300178520972,664.2924918715289,3466.269020255562,-413.5958284966513,Vision,NoMovement,2
0.23,0.014305635384549039,0.01138113293501884,62.11715986541282,61.25290023201856,0.2502335241824694,-4.1766821819816515,0.0037898690934466653,0.0022965442355099993,0.002840113105002175,0.0025610715989273247,-587.2065906684406,3697.4167867822066,-67.23353185105184,664.2286181467373,3466.2357807498506,-413.5669958126848,Vision,NoMovement,2
0.231,0.014305883414767628,0.011374762791030769,62.11715986541282,61.25290023201856,0.25118111948052646,-4.172682609453851,0.0037569981460578833,0.0022760989045316877,0.002846175289021202,0.002587246904553935,-587.1703597893593,3697.2997078400144,-67.24406191689394,664.17750805101,3466.211796814223,-413.54134866120955,Vision,NoMovement,2
0.232,0.014306158670670538,0.01136780911322964,62.11715986541282,61.25290023201856,0.2521317400461039,-4.1686663181085875,0.0037284115800433485,0.0022564461507198798,0.002850071281504837,0.002616980928752962,-587.134128910278,3697.1826288978227,-67.25459198273606,664.133215615168,3466.1927567177304,-413.51740305378326,Vision,NoMovement,2
0.233,0.01430646261157849,0.01136033611002697,62.11715986541282,61.25290023201856,0.2530853837571981,-4.164633260386681,0.003704241695958816,0.0022376667165446714,0.0028516779903242995,0.0026501941823656727,-587.0978980311967,3697.0655499556306,-67.26512204857818,664.0889231793259,3466.1737166212374,-413.49345744635696,Vision,NoMovement,2
0.234,0.014306796707426338,0.011352420978234194,62.11715986541282,61.25290023201856,0.2540420484177009,-4.160583388672951,0.0036845415207224165,0.00221981771550681,0.0028508890504173657,0.0026867723576041672,-587.0616671521153,3696.948471013439,-67.2756521144203,664.0446307434837,3466.154676524745,-413.46951183893066,Vision,NoMovement,2
0.23500000000000001,0.014307162434021628,0.011344167121936274,62.11715986541282,61.25290023201856,0.25500173175365715,-4.156516655282887,0.0036692909945086113,0.0022029341764629247,0.0028476168644096514,0.0027265636842877085,-587.025436273034,3696.8313920712467,-67.28618218026241,664.0003383076416,3466.135636428252,-413.44556623150436,Vision,NoMovement,2
0.23600000000000002,0.014307561267834402,0.011335693390769586,62.11715986541282,61.25290023201856,0.2559644314107141,-4.152433012466667,0.0036584045502222953,0.0021870312086342642,0.002841794663752993,0.0027693767489649166,-586.9892053939526,3696.714313129055,-67.29671224610453,663.9560458717996,3466.1165963317594,-413.42162062407806,Vision,NoMovement,2
0.23700000000000002,0.014307994680292866,0.011327116328666982,62.11715986541282,61.25290023201856,0.2569301449585664,-4.148332412412229,0.003651739758127001,0.0021721066973531093,0.002833378581725587,0.002814978882428424,-586.9529745148712,3696.597234186863,-67.30724231194665,663.9117534359575,3466.097556235267,-413.3976750166517,Vision,NoMovement,2
0.23800000000000002,0.01430846413156396,0.01131854595059385,62.11715986541282,61.25290023201856,0.2578988698873618,-4.144214807232672,0.0036491066938849326,0.0021581443923104162,0.002822349739745373,0.002863095188346201,-586.9167436357899,3696.480155244671,-67.31777237778877,663.8674610001153,3466.078516138774,-413.3737294092254,Vision,NoMovement,2
0.23900000000000002,0.014308971063794912,0.011310078293872405,62.11715986541282,61.25290023201856,0.25887060360819525,-4.140080148987025,0.0036502777187811006,0.0021451171986661545,0.0028087163416198003,0.0029134082754230157,-586.8805127567085,3696.363076302479,-67.32830244363089,663.8231685642733,3466.0594760422814,-413.3497838017991,Vision,NoMovement,2
0.24,0.014309516893792222,0.011301798988431352,62.11715986541282,61.25290023201856,0.2598453434528261,-4.13592838966667,0.0036549974399999767,0.002132990437555111,0.0027925157266518673,0.002965558770418251,-586.8442818776272,3696.245997360287,-67.33883250947301,663.7788761284312,3466.040435945789,-413.3258381943728,Vision,NoMovement,2
0.241,0.014310103005118178,0.01129379630628862,62.11715986541282,61.25290023201856,0.26082308667394766,-4.131759481199234,0.003662992695123106,0.0021217248255275033,0.0027738162547129375,0.0030191467077396454,-586.806617042781,3696.126122653446,-67.34945974226648,663.7345836925891,3466.021395849296,-413.3018925869465,Vision,NoMovement,2
0.242,0.014310730739579744,0.011286159400535095,62.11715986541282,61.25290023201856,0.26180383044117944,-4.127573375449169,0.003673982419845031,0.0021112789587095374,0.0027527188168416676,0.00307373390027529,-586.7665350910196,3696.001535325622,-67.36025076245664,663.6902912567471,3466.0023557528034,-413.2779469795202,Vision,NoMovement,2
0.243,0.014311401388090467,0.011278964932659738,62.11715986541282,61.25290023201856,0.2627875718493324,-4.123370024220904,0.0036876872021239454,0.0021016111811838737,0.0027293577346463867,0.0031288473789883708,-586.7264531392581,3695.8769479977987,-67.37104178264681,663.6459988209049,3465.983315656311,-413.2540013720939,Vision,NoMovement,2
0.244,0.014312116180884054,0.0112722760817997,62.11715986541282,61.25290023201856,0.26377430790680306,-4.119149379245996,0.003703838246006663,0.0020926808364553524,0.002703900855345261,0.0031839839407935217,-586.6863711874965,3695.7523606699747,-67.38183280283698,663.6017063850628,3465.964275559818,-413.2300557646676,Vision,NoMovement,2
0.245,0.014312876277058562,0.011266142743959179,62.11715986541282,61.25290023201856,0.26476403554434713,-4.114911392204365,0.0037221854309849095,0.00208444899066341,0.002676548736621976,0.003238615772996472,-586.6462892357351,3695.627773342151,-67.39262382302715,663.5574139492207,3465.9452354633254,-413.2061101572413,Vision,NoMovement,2
0.246,0.014313682753433471,0.011260595634978686,62.11715986541282,61.25290023201856,0.26575675161123036,-4.11065601471043,0.0037425041917200975,0.0020768787437521813,0.0026475328891958035,0.0032921970511201448,-586.6062072839736,3695.503186014327,-67.40341484321732,663.5131215133787,3465.9261953668324,-413.182164549815,Vision,NoMovement,2
0.247,0.014314536592700468,0.011255645958418232,62.11715986541282,61.25290023201856,0.2667524528726364,-4.1063831983173245,0.0037646010425253684,0.002069935215085439,0.0026171130862578406,0.003344171338906331,-586.5661253322121,3695.3785986865037,-67.41420586340749,663.4705355202735,3465.9086601455924,-413.1586909088823,Vision,NoMovement,2
0.248,0.014315438670851393,0.011251286569044908,62.11715986541282,61.25290023201856,0.2677511360142654,-4.102092894520103,0.0037883176604601504,0.002063585245861636,0.0025855737735307,0.003393979560377182,-586.5260433804507,3695.2540113586797,-67.42499688359766,663.460264593065,3465.9196228879205,-413.1441549416331,Vision,NoMovement,2
0.249,0.014316389743869612,0.011247493858446625,62.11715986541282,61.25290023201856,0.26875279763865195,-4.097785054742682,0.003813533461180088,0.002057796841678979,0.0025532196402302384,0.0034410682699705228,-586.4859614286892,3695.1294240308557,-67.43578790378783,663.4499936658565,3465.930585630248,-413.12961897438385,Vision,NoMovement,2
0.25,0.014317390433667847,0.011244243512271062,62.11715986541282,61.25290023201856,0.269757434265698,-4.09345963035949,0.00384016656341793,0.002052538394379271,0.002520370441911637,0.0034848979361979874,-586.4458794769276,3695.004836703032,-67.44657892397801,663.4397227386479,3465.941548372576,-413.11508300713456,Vision,NoMovement,2
0.251,0.01431844121326473,0.011241523523120356,62.11715986541282,61.25290023201856,0.2707650423324078,-4.089116572681341,0.0038681730052708405,0.0020477777527834425,0.002487355200202133,0.003524950983329878,-586.4057975251662,3694.880249375208,-67.45736994416818,663.4294518114393,3465.9525111149037,-413.1005470398853,Vision,NoMovement,2
0.252,0.014319542391187174,0.01123932855547825,62.11715986541282,61.25290023201856,0.27177561819317747,-4.08475583295953,0.003897544114107392,0.0020434812292461084,0.0024545059462958993,0.003560739383297988,-586.3657155734047,3694.7556620473847,-67.46816096435835,663.4191808842309,3465.9634738572317,-413.0860110726361,Vision,NoMovement,2
0.253,0.014320694095092934,0.011237663438914657,62.11715986541282,61.25290023201856,0.2727891581157152,-4.080377362386471,0.003928302056265205,0.002039612621406042,0.0024221512205597254,0.003591811646914202,-586.3256336216432,3694.6310747195607,-67.47895198454852,663.4089099570223,3465.97443659956,-413.0714751053868,Vision,NoMovement,2
0.254,0.014321896254608519,0.011236538496712797,62.11715986541282,61.25290023201856,0.27380565828955034,-4.075981112098969,0.003960493755872149,0.002036132305311773,0.002390609588684783,0.003617759128579605,-586.2855516698818,3694.506487391737,-67.48974300473868,663.3986390298138,3465.9853993418874,-413.0569391381376,Vision,NoMovement,2
0.255,0.014323148583379401,0.011235950927486358,62.11715986541282,61.25290023201856,0.274825114814124,-4.071567033164898,0.003994183488296527,0.002032996441712172,0.002360183468871224,0.0036382216412394874,-586.2454697181203,3694.3819000639132,-67.50053402492885,663.3883681026052,3465.9963620842154,-413.04240317088835,Vision,NoMovement,2
0.256,0.014324450560334994,0.01123587869444699,62.11715986541282,61.25290023201856,0.27584752370784554,-4.06713507660536,0.004029444479318751,0.0020301563490317492,0.002331153562893122,0.0036528924659289374,-586.2053877663587,3694.2573127360897,-67.51132504511902,663.3780971753968,3466.0073248265435,-413.02786720363906,Vision,NoMovement,2
0.257,0.014325801410172371,0.011236279955990087,62.11715986541282,61.25290023201856,0.2768728809041444,-4.06268519338024,0.004066349800074361,0.0020275581231338903,0.002303774140818419,0.0036615228958949645,-586.1653058145973,3694.1327254082657,-67.52211606530919,663.3678262481882,3466.018287568871,-413.01333123638983,Vision,NoMovement,2
0.258,0.014327200083066488,0.011237094413244926,62.11715986541282,61.25290023201856,0.2779011822488404,-4.058217334392657,0.004104962830610571,0.0020251425893198804,0.002278269365350514,0.0036639264416678287,-586.126647039466,3694.0260404189353,-67.53377035634068,663.3575553209796,3466.029250311199,-412.9987952691406,Vision,NoMovement,2
0.259,0.014328645233619616,0.01123824625443339,62.11715986541282,61.25290023201856,0.2789324235048963,-4.0537314504922835,0.004145327609703499,0.0020228456390751267,0.0022548307701252697,0.003659982749821421,-586.0881133991682,3693.920929518232,-67.54550055169126,663.3472843937711,3466.0402130535267,-412.9842593018913,Vision,NoMovement,2
0.26,0.01433013519906676,0.011239658125616805,62.11715986541282,61.25290023201856,0.27996660034865345,-4.049227492461814,0.004187459461368999,0.0020205989509046326,0.0022336159383778767,0.0036496411935781604,-586.0495797588704,3693.8158186175287,-67.55723074704184,663.3370134665626,3466.0511757958548,-412.9697233346421,Vision,NoMovement,2
0.261,0.01433166797675609,0.011241265151845469,62.11715986541282,61.25290023201856,0.2810037083704073,-4.044705411039528,0.004231336331117525,0.0020183310482997235,0.0022147483728527234,0.0036329240118298262,-586.0110461185726,3693.7107077168253,-67.56896094239242,663.3267425393541,3466.062138538183,-412.95518736739285,Vision,NoMovement,2
0.262,0.014333241200933537,0.011243006856647553,62.11715986541282,61.25290023201856,0.2820437430741637,-4.040165156904608,0.004276891255071681,0.0020159686197358316,0.002198318505922109,0.0036099288127652393,-585.9725124782749,3693.6055968161218,-67.580691137743,663.3164716121455,3466.0731012805104,-412.94065140014357,Vision,NoMovement,2
0.263,0.014334852118860169,0.01124482131773252,62.11715986541282,61.25290023201856,0.2830866998779503,-4.035606680681668,0.004324006348365895,0.002013438017021153,0.0021843857667468406,0.0035808302240536746,-585.9339788379772,3693.5004859154187,-67.59242133309358,663.3062006849369,3466.0840640228384,-412.92611543289433,Vision,NoMovement,2
0.264,0.01433649756630013,0.011246652450384535,62.11715986541282,61.25290023201856,0.28413257410967313,-4.031029932944139,0.004372508652937239,0.002010666858512824,0.0021729815926300024,0.0035458804727973104,-585.8954451976794,3693.3953750147152,-67.60415152844416,663.2959297577285,3466.0950267651665,-412.9115794656451,Vision,NoMovement,2
0.265,0.014338173942422464,0.011248454723556602,62.11715986541282,61.25290023201856,0.28518136101586505,-4.026434864200518,0.004422168120455334,0.002007585682695595,0.0021641132418398954,0.00350540871677226,-585.8569115573816,3693.2902641140117,-67.61588172379474,663.2856588305199,3466.105989507494,-412.8970434983959,Vision,NoMovement,2
0.266,0.014339877184166032,0.011250188565288676,62.11715986541282,61.25290023201856,0.28623305574948577,-4.021821424917354,0.004472697902923402,0.0020041296141640685,0.0021577682285710085,0.003459819009767875,-585.8183779170838,3693.1851532133087,-67.62761191914532,663.2806292834814,3466.1194798350666,-412.88214957384184,Vision,NoMovement,2
0.267,0.014341602740123508,0.011251809452148678,62.11715986541282,61.25290023201856,0.28728765337925877,-4.017189565504291,0.004523757000984283,0.002000240019705152,0.002153919159235073,0.0034095868490577916,-585.7798442767861,3693.080042312605,-67.6393421144959,663.2843998133189,3466.13721388161,-412.86665465266134,Vision,NoMovement,2
0.268,0.01434334554400749,0.011253265208986788,62.11715986541282,61.25290023201856,0.28834514888562907,-4.0125392363187045,0.004574955193000761,0.0019958661525189625,0.002152528715212285,0.003355254313760518,-585.7413106364884,3692.9749314119017,-67.65107230984648,663.2881703431564,3466.1549479281534,-412.85115973148083,Vision,NoMovement,2
0.269,0.014345099987771288,0.011254507755784795,62.11715986541282,61.25290023201856,0.28940553715810163,-4.00787038766914,0.004625860063067665,0.0019909667959141977,0.0021535545036024967,0.0032974238422279153,-585.7027769961906,3692.8698205111987,-67.66280250519706,663.2919408729939,3466.172681974697,-412.8356648103004,Vision,NoMovement,2
0.27,0.014346859894461052,0.011255500175605414,62.11715986541282,61.25290023201856,0.29046881300014904,-4.003182969801349,0.004676005851812691,0.001985511907115673,0.002156953481156223,0.003236750719214596,-585.6642433558928,3692.764709610495,-67.67453270054764,663.2957114028313,3466.1904160212403,-412.8201698891199,Vision,NoMovement,2
0.271,0.014348618490888554,0.011256209542790292,62.11715986541282,61.25290023201856,0.29153497112537025,-3.998476932921689,0.004724903778201148,0.001979484223647006,0.0021626856557245785,0.003173934378917123,-585.625709715595,3692.6595987097917,-67.68626289589822,663.2994819326689,3466.2081500677837,-412.8046749679394,Vision,NoMovement,2
0.272,0.01435036838022093,0.011256606700390397,62.11715986541282,61.25290023201856,0.2926040061581121,-3.993752227181908,0.0047720534450688265,0.00197288074206761,0.0021707168096707944,0.003109708695645853,-585.5871760752973,3692.5544878090886,-67.6979930912488,663.3032524625063,3466.225884114327,-412.7891800467589,Vision,NoMovement,2
0.273,0.014352101514591485,0.01125666647676517,62.11715986541282,61.25290023201856,0.2936759126332505,-3.9890088026836183,0.004816954951579813,0.001965713932751717,0.002181020080282238,0.0030448315163503054,-585.5486424349995,3692.449376908385,-67.70972328659938,663.3070229923438,3466.2436181608705,-412.7736851255784,Vision,NoMovement,2
0.274,0.014353809167848317,0.011256359337024565,62.11715986541282,61.25290023201856,0.2947506849965272,-3.98424660947905,0.004859121387146084,0.001958012536001498,0.002193576343916425,0.002980073743371693,-585.5115168186235,3692.3540828591017,-67.72461164335759,663.3107935221814,3466.2613522074134,-412.7581902043979,Vision,NoMovement,2
0.275,0.014355481908566168,0.011255643695588263,62.11715986541282,61.25290023201856,0.2958283176003503,-3.979465597574552,0.004898091442539661,0.001949821809830704,0.002208373438481567,0.0029162082846103735,-585.4760046414692,3692.2700378325585,-67.74311890275278,663.3145640520188,3466.279086253957,-412.7426952832174,Vision,NoMovement,2
0.276,0.014357109573456919,0.011254460898449833,62.11715986541282,61.25290023201856,0.29690880471277736,-3.9746657169163675,0.004933441905017549,0.0019412031640295931,0.0022254043037455446,0.0028539991540279977,-585.4404924643148,3692.1859928060153,-67.76162616214798,663.3183345818563,3466.2968203005003,-412.7272003620369,Vision,NoMovement,2
0.277,0.014358681241326018,0.011252735711460252,62.11715986541282,61.25290023201856,0.29799214050503875,-3.96984691741455,0.004964799781515234,0.0019322331926203084,0.0022446641377444777,0.0027941909489634727,-585.4049802871605,3692.101947779472,-67.78013342154316,663.3221051116938,3466.3145543470437,-412.7117054408564,Vision,NoMovement,2
0.278,0.014360185207733526,0.011250387744402724,62.11715986541282,61.25290023201856,0.2990783190611515,-3.96500914892742,0.0049918537516451325,0.001923002179317475,0.00226614669779251,0.00273749886861942,-585.3694681100062,3692.017902752929,-67.79864068093835,663.3258756415313,3466.332288393587,-412.69621051967596,Vision,NoMovement,2
0.279,0.01436160896053026,0.011247346759792358,62.11715986541282,61.25290023201856,0.3001673343737882,-3.9601523612664282,0.005014364614342389,0.001913612194484555,0.002289839939402268,0.0026845993913738758,-585.3339559328518,3691.9338577263857,-67.81714794033353,663.3296461713687,3466.3500224401305,-412.68071559849545,Vision,NoMovement,2
0.28,0.01436293915645068,0.011243562164065694,62.11715986541282,61.25290023201856,0.3012591803415918,-3.955276504199709,0.0050321743562024065,0.0019041749280171204,0.002315721273851257,0.0026361216997180395,-585.2984437556976,3691.849812699842,-67.83565519972872,663.3334167012063,3466.367756486674,-412.66522067731495,Vision,NoMovement,2
0.281,0.014364161598958244,0.011238998164745686,62.11715986541282,61.25290023201856,0.3023538507742361,-3.9503815274376235,0.005045213401380929,0.0018948094060805617,0.0023437527899467002,0.0025926399321586657,-585.2629315785432,3691.765767673299,-67.85416245912391,663.3371872310437,3466.3854905332173,-412.64972575613444,Vision,NoMovement,2
0.28200000000000003,0.014365261217551682,0.011233635349116769,62.11715986541282,61.25290023201856,0.3034513393885155,-3.945467380657116,0.005053505531858372,0.0018856397131898084,0.0023738767903293307,0.0025546663311478922,-585.2274194013888,3691.6817226467556,-67.87266971851909,663.3409577608812,3466.4032245797607,-412.634230834954,Vision,NoMovement,2
0.28300000000000003,0.014366222048751622,0.011227483737208232,62.11715986541282,61.25290023201856,0.30455163980901506,-3.9405340134858893,0.005057169959594933,0.001876792789962559,0.002406011936681816,0.0025226453260463904,-585.1919072242346,3691.5976776202124,-67.89117697791428,663.3388341523647,3466.4014157004794,-412.6144744619383,Vision,NoMovement,2
0.28400000000000003,0.014367027219005306,0.011220566707807302,62.11715986541282,61.25290023201856,0.30565474556792105,-3.9355813755070796,0.005056420110849928,0.0018683963174766258,0.002440050208274837,0.002496948553341173,-585.1563950470802,3691.513632593669,-67.90968423730946,663.3349659178365,3466.393822244269,-412.59345672733366,Vision,NoMovement,2
0.28500000000000003,0.01436765892975556,0.011212899990797774,62.11715986541282,61.25290023201856,0.3067606501054507,-3.9306094162600873,0.00505155881811052,0.0018605766501788102,0.002475854797871644,0.0024778707879996357,-585.1208828699258,3691.429587567126,-67.92819149670466,663.3310976833083,3466.3862287880584,-412.5724389927291,Vision,NoMovement,2
0.28600000000000003,0.014368098444938995,0.01120449153598596,62.11715986541282,61.25290023201856,0.3078693467662235,-3.9256180852441847,0.005042969789131736,0.001853456744973136,0.0025132590243537064,0.0024656267504971157,-585.0853706927716,3691.3455425405828,-67.94669875609985,663.32722944878,3466.378635331848,-412.55142125812444,Vision,NoMovement,2
0.28700000000000003,0.014368326081189335,0.011195346941363206,62.11715986541282,61.25290023201856,0.3089808288044034,-3.9206073319037964,0.005031105452099603,0.0018471540672477887,0.002552066331422161,0.00246034875921832,-585.0498585156172,3691.261497514039,-67.96520601549503,663.3233612142518,3466.3710418756373,-412.5304035235198,Vision,NoMovement,2
0.28800000000000003,0.014368321201039208,0.01118547822285428,62.11715986541282,61.25290023201856,0.3100950893797545,-3.9155771056533726,0.005016471548906963,0.0018417785125976489,0.0025920514349940162,0.002462085213679183,-585.0143463384628,3691.177452487496,-67.98371327489022,663.3194929797236,3466.3634484194267,-412.5093857889152,Vision,NoMovement,2
0.289,0.014368062209426345,0.01117491410135096,62.11715986541282,61.25290023201856,0.311212121558406,-3.910527355861538,0.004999609097167847,0.0018374304189823672,0.0026329626487160015,0.0024707999094504907,-584.9788341613086,3691.0934074609527,-68.0022205342854,663.3156247451954,3466.3558549632166,-412.48836805431057,Vision,NoMovement,2
0.29,0.014367526553826422,0.01116370213776725,62.11715986541282,61.25290023201856,0.3123319183132985,-3.905458031858986,0.00498107450167536,0.0018341987364555142,0.002674525344452476,0.0024863721892572663,-584.9433422135666,3691.0094225218677,-68.0208973667308,663.3117565106671,3466.348261507006,-412.467350319706,Vision,NoMovement,2
0.291,0.01436669072834808,0.011151898817727544,62.11715986541282,61.25290023201856,0.31345447252053604,-3.9003690829235813,0.004961418659149438,0.0018321593899622774,0.002716446413192461,0.0025085979296901786,-584.9094061715365,3690.9300590922066,-68.05261657889689,663.3078882761389,3466.3406680507956,-412.44633258510135,Vision,NoMovement,2
0.292,0.014365530282143232,0.011139559288788844,62.11715986541282,61.25290023201856,0.3145797769645989,-3.8952604583055868,0.004941165907939533,0.0018313738505824587,0.0027584195081345256,0.0025371913698337047,-584.8754701295065,3690.850695662545,-68.08433579106298,663.3040200416106,3466.333074594585,-412.42531485049676,Vision,NoMovement,2
0.293,0.014364019832497141,0.011126729364019339,62.11715986541282,61.25290023201856,0.315707824334371,-3.890132107211281,0.0049207936747930545,0.001831887938264828,0.0028001308073290305,0.002571787815068126,-584.8415340874765,3690.771332232884,-68.11605500322908,663.3001518070823,3466.3254811383745,-412.4042971158921,Vision,NoMovement,2
0.294,0.014362133082981286,0.011113447046533277,62.11715986541282,61.25290023201856,0.31683860722393153,-3.884983978807826,0.004900713678173361,0.001833730899381579,0.00284126503045836,0.0026119472729948558,-584.8075980454465,3690.6919688032226,-68.14777421539517,663.2962835725541,3466.317887682164,-412.3832793812875,Vision,NoMovement,2
0.295,0.014359842847062047,0.01109975230354198,62.11715986541282,61.25290023201856,0.3179721181330165,-3.8798160222241505,0.004881255544867228,0.0018369148063930017,0.0028815114704008908,0.002657159076797212,-584.7736620034165,3690.612605373561,-68.17949342756127,663.2924153380259,3466.3102942259534,-412.3622616466829,Vision,NoMovement,2
0.296,0.014357121077578293,0.01108568589759135,62.11715986541282,61.25290023201856,0.3191083494633549,-3.8746281865546566,0.004862653643192732,0.0018414343024772124,0.0029205698299381486,0.002706847524170555,-584.7397259613865,3690.5332419439,-68.21121263972735,663.2885471034976,3466.302700769743,-412.34124391207826,Vision,NoMovement,2
0.297,0.014353938902507815,0.011071284982160307,62.11715986541282,61.25290023201856,0.32024729352395037,-3.869420420844053,0.0048450378011913806,0.0018472666817852313,0.0029581556760117315,0.002760378524569036,-584.7057899193564,3690.4538785142386,-68.24293185189345,663.2846788689694,3466.2951073135323,-412.32022617747367,Vision,NoMovement,2
0.298,0.014350266667463222,0.011056587655664422,62.11715986541282,61.25290023201856,0.321388942527082,-3.864192674113105,0.004828428370266172,0.0018543722855971325,0.002994005332246882,0.0028170672128443233,-584.6718538773265,3690.374515084577,-68.27465106405954,663.2808106344412,3466.2875138573218,-412.29920844286903,Vision,NoMovement,2
0.299,0.014346073985367247,0.011041622187180699,62.11715986541282,61.25290023201856,0.32253328858912383,-3.858944895341916,0.004812735854416791,0.0018626952092807296,0.0030278800274420948,0.002876186458876943,-584.6379178352964,3690.295151654916,-68.30637027622564,663.275013654323,3466.27640827705,-412.2776153517257,Vision,NoMovement,2
0.3,0.014341329793779872,0.011026401405609315,62.11715986541282,61.25290023201856,0.32368032373102185,-3.8536770334752335,0.0047977650968724795,0.0018721643276272575,0.00305956911269166,0.002936976176113054,-584.6039817932665,3690.2157882252545,-68.33808948839173,663.2597957719564,3466.2481478280197,-412.25321194815024,Vision,NoMovement,2
0.301,0.01433600242040359,0.01101092352939875,62.11715986541282,61.25290023201856,0.32483003987461656,-3.8483890374262164,0.004783223818193038,0.0018826946347029225,0.0030888921873465855,0.0029986533128726904,-584.5700457512364,3690.136424795593,-68.36980870055783,663.2445778895899,3466.2198873789894,-412.22880854457486,Vision,NoMovement,2
0.302,0.014330059657594492,0.010995178044652365,62.11715986541282,61.25290023201856,0.3259824288479924,-3.8430808560610243,0.004768735133906456,0.001894188862899228,0.003115700052704406,0.003060422395322924,-584.5361097092064,3690.057061365932,-68.40152791272392,663.2293600072234,3466.1916269299586,-412.2044051409994,Vision,NoMovement,2
0.303,0.01432346884819282,0.010979147250212293,62.11715986541282,61.25290023201856,0.32713748238145496,-3.8377524382250208,0.004753853532470081,0.0019065393153318267,0.0031398745214506443,0.003121486477016663,-584.5021736671764,3689.9776979362705,-68.43324712489002,663.2141421248567,3466.1633664809283,-412.18000173742405,Vision,NoMovement,2
0.304,0.014316196992160688,0.010962808900288315,62.11715986541282,61.25290023201856,0.32829519210830405,-3.8324037327257656,0.004738083640069822,0.0019196298408020451,0.003161327206804541,0.00318105833394459,-584.4682376251463,3689.8983345066094,-68.46496633705611,663.1989242424902,3466.1351060318975,-412.1555983338487,Vision,NoMovement,2
0.305,0.014308210936086831,0.010946133257317773,62.11715986541282,61.25290023201856,0.32945554956470935,-3.8270346883380864,0.004720900928253643,0.0019333379091650731,0.0031799974721420173,0.003238371719881466,-584.4343015831164,3689.818971076948,-68.4966855492222,663.1837063601237,3466.106845582867,-412.13119493027324,Vision,NoMovement,2
0.306,0.014299477899552106,0.010929084749612511,62.11715986541282,61.25290023201856,0.33061854619021014,-3.821645253805023,0.004701773359734974,0.0019475367851444687,0.0031958497442444765,0.003292692484270866,-584.4003655410863,3689.7396076472864,-68.5284047613883,663.168488477757,3466.0785851338364,-412.10679152669786,Vision,NoMovement,2
0.307,0.014289966417135452,0.010911637764297988,62.11715986541282,61.25290023201856,0.3317841733240224,-3.8162353778416547,0.004680182873181818,0.001962097809044124,0.0032088703798088506,0.00334332935865785,-584.3697281705299,3689.663949886497,-68.56291367808076,663.1532705953905,3466.050324684806,-412.0823881231224,Vision,NoMovement,2
0.308,0.014279646327319656,0.010893771981097663,62.11715986541282,61.25290023201856,0.33295242221046895,-3.8108050091194046,0.004655645633496637,0.0019768927564510707,0.003219064230474991,0.003389644224527902,-584.3416861672861,3689.5912077151916,-68.59961751111985,663.138052713024,3466.022064235776,-412.05798471954705,Vision,NoMovement,2
0.309,0.014268488991562064,0.010875459366307013,62.11715986541282,61.25290023201856,0.33412328399493046,-3.805354096292787,0.004627730144275391,0.0019917961865211333,0.00322645100398194,0.0034310616640364344,-584.3136441640422,3689.5184655438866,-68.63632134415894,663.1228348306574,3465.993803786745,-412.0335813159717,Vision,NoMovement,2
0.31,0.014256466579293985,0.010856659766435156,62.11715986541282,61.25290023201856,0.33529674972472384,-3.799882587982048,0.004596072588335477,0.0020066876361609846,0.003231061502653177,0.0034670775777344695,-584.2856021607984,3689.445723372581,-68.67302517719803,663.1076169482908,3465.9655433377147,-412.00917791239624,Vision,NoMovement,2
0.311,0.014243551937201728,0.010837323220183142,62.11715986541282,61.25290023201856,0.3364728103496197,-3.794390432778708,0.00456038902691652,0.0020214534984787777,0.0032329338367925323,0.0034972666508026494,-584.2575601575544,3689.372981201276,-68.70972901023713,663.0923990659243,3465.937282888684,-411.98477450882086,Vision,NoMovement,2
0.312,0.014229718713121266,0.010817389110158886,62.11715986541282,61.25290023201856,0.337651456718138,-3.7888775792494327,0.004520484267161332,0.0020359884481349092,0.003232109737999641,0.003521288467367235,-584.2295181543105,3689.3002390299707,-68.74643284327621,663.0771811835577,3465.9090224396537,-411.96037110524543,Vision,NoMovement,2
0.313,0.014214941552162217,0.0107967832484128,62.11715986541282,61.25290023201856,0.3388326795830468,-3.7833439759201055,0.004476257326495764,0.002050196333988314,0.0032286311219478594,0.0035388920873957387,-584.2014761510667,3689.2274968586657,-68.7831366763153,663.0619633011912,3465.8807619906233,-411.93596770167005,Vision,NoMovement,2
0.314,0.01419919633822419,0.010775415571748569,62.11715986541282,61.25290023201856,0.3400164695972916,-3.7777895713030314,0.004427703567661164,0.002063990525958304,0.003222537074108108,0.003549918912936536,-584.1734341478228,3689.1547546873603,-68.81984050935439,663.0467454188246,3465.8525015415926,-411.9115642980947,Vision,NoMovement,2
0.315,0.01418246057299613,0.010753185382116717,62.11715986541282,61.25290023201856,0.3412028173148259,-3.7722143138792754,0.004374913771736849,0.0020772937619475845,0.003213861447161579,0.0035543037034024634,-584.145392144579,3689.082012516055,-68.85654434239348,663.031527536458,3465.8242410925623,-411.88716089451924,Vision,NoMovement,2
0.316,0.014164714303053648,0.010729988143573859,62.11715986541282,61.25290023201856,0.3423917131905277,-3.7666181521043165,0.004318070603931736,0.002090037589572513,0.0032026312443429465,0.00355207366068179,-584.1173501413351,3689.00927034475,-68.89324817543257,663.0155320246971,3465.799259518504,-411.86465721084363,Vision,NoMovement,2
0.317,0.014145940755452297,0.010705720465431095,62.11715986541282,61.25290023201856,0.3435831475807393,-3.761001034411971,0.00425744303524425,0.0021021615380374626,0.003188865910460744,0.003543345582997966,-584.0893081380913,3688.9365281734445,-68.92995200847166,662.9989457239379,3465.7767690067367,-411.8435968028784,Vision,NoMovement,2
0.318,0.014126126521661349,0.010680295821512305,62.11715986541282,61.25290023201856,0.3447771107395526,-3.755362909198224,0.0041933792953343955,0.002113612177642429,0.003172577583453913,0.0035283211656691573,-584.0612661348473,3688.8637860021395,-68.96665584151074,662.9823594231788,3465.754278494969,-411.82253639491313,Vision,NoMovement,2
0.319,0.01410526175444626,0.010653649844862917,62.11715986541282,61.25290023201856,0.3459735928243869,-3.7497037248488865,0.004126298876568689,0.002124342219623499,0.003153772305571753,0.0035072806031845134,-584.0332241316034,3688.791043830834,-69.00335967454984,662.9657731224196,3465.7317879832017,-411.8014759869478,Vision,NoMovement,2
0.32,0.014083339674075592,0.010625736145411208,62.11715986541282,61.25290023201856,0.3471725838918968,-3.744023429721628,0.004056684026721263,0.0021343097811392714,0.0031324521622375723,0.0034805747167832744,-584.0051821283596,3688.718301659529,-69.04006350758893,662.9491868216604,3465.709297471434,-411.78041557898257,Vision,NoMovement,2
0.321,0.014060356694481328,0.01059653500980785,62.11715986541282,61.25290023201856,0.3483740738989147,-3.738321972151751,0.00398507107152921,0.0021434779041690183,0.0031086182901622255,0.0034486158907418765,-583.9771401251157,3688.6455594882236,-69.07676734062802,662.9326005209012,3465.6868069596667,-411.7593551710173,Vision,NoMovement,2
0.322,0.014036312727024873,0.010566056751682009,62.11715986541282,61.25290023201856,0.34957805270300885,-3.7325993004561506,0.0039120418154497015,0.0021518143802826354,0.003082274649434576,0.003411868139573873,-583.9490981218719,3688.5728173169186,-69.11347117366711,662.9160142201421,3465.664316447899,-411.73829476305207,Vision,NoMovement,2
0.323,0.014011211543404853,0.010534339078780684,62.11715986541282,61.25290023201856,0.35078451005876177,-3.7268553629169148,0.0038382151818955788,0.002159291892549927,0.003053432386200748,0.0033708366413342217,-583.921056118628,3688.500075145613,-69.15017500670619,662.8994279193829,3465.641825936131,-411.71723435508676,Vision,NoMovement,2
0.324,0.013985061222923397,0.010501436855254866,62.11715986541282,61.25290023201856,0.3519934356234147,-3.721090107809433,0.0037642391698020135,0.002165888435430528,0.0030221145447511984,0.003326057060089699,-583.8930141153842,3688.427332974308,-69.18687883974529,662.8828416186238,3465.6193354243637,-411.6961739471215,Vision,NoMovement,2
0.325,0.01395787490282588,0.010467412944782485,62.11715986541282,61.25290023201856,0.3532048189527574,-3.7153034833841403,0.0036907831300220404,0.0021715879253375804,0.002988360847835445,0.0032780849483972285,-583.865573330243,3688.3559106913167,-69.2228220285175,662.8662553178647,3465.596844912596,-411.67511353915626,Vision,NoMovement,2
0.326,0.013929672084077999,0.010432338902763804,62.11715986541282,61.25290023201856,0.3544186495020194,-3.709495437871991,0.0036185303202930807,0.0021763808994298152,0.0029522322758496456,0.003227485485355451,-583.8495934979792,3688.3096492903796,-69.2442651414283,662.8496690171055,3465.5743544008287,-411.65405313119095,Vision,NoMovement,2
0.327,0.013900478530184735,0.010396287525405671,62.11715986541282,61.25290023201856,0.355634916625832,-3.703665919485528,0.0035481707033897213,0.0021802652300123787,0.0029138152356572708,0.0031748237799984025,-583.8336136657153,3688.2633878894426,-69.2657082543391,662.8330827163463,3465.551863889061,-411.6329927232257,Vision,NoMovement,2
0.328,0.013870326479913335,0.010359329393690875,62.11715986541282,61.25290023201856,0.3568536095788092,-3.6978148764229006,0.0034803939785232117,0.0021832468258152645,0.0028732251906425713,0.0031206559636067915,-583.8176338334515,3688.2171264885055,-69.2871513672499,662.8164964155872,3465.5293733772937,-411.61193231526045,Vision,NoMovement,2
0.329,0.013839255900030739,0.01032154175089314,62.11715986541282,61.25290023201856,0.358074717511821,-3.6919422568511617,0.0034158828428453307,0.002185340304271071,0.0028306096836478584,0.003065521290344977,-583.8016540011877,3688.1708650875685,-69.3085944801607,662.799910114828,3465.506882865526,-411.59087190729514,Vision,NoMovement,2
0.33,0.013807314410406026,0.010283011205977991,62.11715986541282,61.25290023201856,0.35929822947771517,-3.6860480089349528,0.0033553064531391457,0.0021865695972725003,0.0027861507039532744,0.0030099354379442733,-583.7856741689237,3688.1246036866314,-69.33003759307151,662.7833238140688,3465.4843923537587,-411.5698114993299,Vision,NoMovement,2
0.331,0.0137745580640603,0.010243824706617147,62.11715986541282,61.25290023201856,0.36052413442719033,-3.6801320808178604,0.0032993140178779845,0.0021869684345013547,0.002740066336320966,0.002954385141690852,-583.7696943366599,3688.0783422856944,-69.35148070598231,662.7667375133096,3465.461901841991,-411.54875109136464,Vision,NoMovement,2
0.332,0.013741052205625793,0.010204067403837235,62.11715986541282,61.25290023201856,0.36175242120980483,-3.674194420628427,0.003248528414393461,0.002186580661364261,0.0026926116172540297,0.00289932423346222,-583.753714504396,3688.0320808847573,-69.37292381889311,662.7501512125505,3465.4394113302237,-411.5276906833993,Vision,NoMovement,2
0.333,0.013706871932996238,0.010163825135383166,62.11715986541282,61.25290023201856,0.3629830785745787,-3.6682349764842206,0.0032035397254090558,0.0021854603810799065,0.002644078529775767,0.0028451710972168163,-583.7377346721322,3687.9858194838203,-69.3943669318039,662.7363986790891,3465.430309709391,-411.5126995533047,Vision,NoMovement,2
0.334,0.013672101745258783,0.010123185452048773,62.11715986541282,61.25290023201856,0.36421609516626335,-3.662253696474882,0.0031648986382725674,0.0021836719347028194,0.002594795092842258,0.0027923074777399864,-583.7217548398684,3687.939558082883,-69.4158100447147,662.7227440679542,3465.4216707487594,-411.4979181503138,Vision,NoMovement,2
0.335,0.013636835634967242,0.010082238569857214,62.11715986541282,61.25290023201856,0.36545145953112823,-3.656250528691277,0.003133109750411992,0.0021812897336970457,0.0025451235211196455,0.002741078477045564,-583.7057750076045,3687.893296681946,-69.4372531576255,662.7090894568192,3465.4130317881277,-411.48313674732293,Vision,NoMovement,2
0.336,0.013601177745719036,0.010041080716592533,62.11715986541282,61.25290023201856,0.3666891601127338,-3.650225421206543,0.003108624952471629,0.002178397934868171,0.0024954574255097446,0.0026917934643692987,-583.6897951753407,3687.847035281009,-69.45869627053631,662.6954348456842,3465.404392827496,-411.46835534433205,Vision,NoMovement,2
0.337,0.013565243842460365,0.009999821952863737,62.11715986541282,61.25290023201856,0.36792918525227464,-3.644178322081791,0.003091837168693569,0.0021750899001256934,0.002446218008472321,0.002644727565532254,-583.6738153430769,3687.800773880072,-69.48013938344711,662.6817802345493,3465.395753866864,-411.4535739413412,Vision,NoMovement,2
0.338,0.01352916255703226,0.00995859117450847,62.11715986541282,61.25290023201856,0.36917152319294133,-3.6381091793672216,0.0030830747829430445,0.0021714673308514095,0.0023978492058256457,0.0026001234098063856,-583.657835510813,3687.754512479135,-69.50158249635791,662.6681256234143,3465.3871149062325,-411.4387925383503,Vision,NoMovement,2
0.339,0.013493075540723643,0.00991753788570076,62.11715986541282,61.25290023201856,0.3704161620709795,-3.6320179411062448,0.0030825970452423566,0.0021676389394039994,0.0023508117673455686,0.0025581928851566736,-583.6418556785491,3687.708251078198,-69.52302560926871,662.6544710122793,3465.3784759456007,-411.4240111353594,Vision,NoMovement,2
0.34,0.013457136974682662,0.009876833318860072,62.11715986541282,61.25290023201856,0.37166308992195723,-3.625904555318226,0.0030905906524893306,0.0021637185398673533,0.0023055763442663803,0.0025191187471973655,-583.6258758462852,3687.661989677261,-69.54446872217952,662.6408164011443,3465.369836984969,-411.40922973236854,Vision,NoMovement,2
0.341,0.013421514239480683,0.009836661818787963,62.11715986541282,61.25290023201856,0.37291229468149867,-3.6197689700282125,0.003107167560644346,0.0021598224999728045,0.0022626157269638805,0.002483056020714555,-583.6098960140214,3687.615728276324,-69.56591183509032,662.6271617900094,3465.361198024337,-411.39444832937767,Vision,NoMovement,2
0.342,0.013386388892497759,0.009797212438499391,62.11715986541282,61.25290023201856,0.3741637641821732,-3.613611133247594,0.0031323639366867316,0.0021560665720563423,0.002222396415913816,0.0024501332082144654,-583.5939161817575,3687.5694668753868,-69.5873549480011,662.6135071788743,3465.3525590637055,-411.3796669263868,Vision,NoMovement,2
0.343,0.013351956552297919,0.00975867610573851,62.118556327177544,61.25290023201856,0.37541748615457415,-3.607430992980364,0.003166140020305295,0.0021525622003269033,0.002185369720658215,0.002420453368657218,-583.5779363494937,3687.5232054744497,-69.60879806091191,662.5998525677394,3465.3439201030737,-411.3648855233959,Vision,NoMovement,2
0.34400000000000003,0.013318427286026169,0.009721252166571048,62.13642992695898,61.25290023201856,0.37667344822796534,-3.6012284972272757,0.0032083805725917403,0.0021494124810806955,0.002151962585932677,0.0023940951478247916,-583.5619565172299,3687.4769440735126,-69.63024117382271,662.5861979566045,3465.335281142442,-411.35010412040504,Vision,NoMovement,2
0.34500000000000003,0.01328602675679577,0.009685158227998864,62.15430442095889,61.25290023201856,0.3779316379265517,-3.5950035939683502,0.0032588955843873284,0.0021467080133316828,0.0021225683594868015,0.0023711138428422524,-583.545976684966,3687.4306826725756,-69.65168428673351,662.5725433454694,3465.3266421818103,-411.3353227174142,Vision,NoMovement,2
0.34600000000000003,0.013254998185552178,0.009650631312721657,62.17217977233275,61.25290023201856,0.3791920426754042,-3.588756231193069,0.003317421007311593,0.002144522893905977,0.0020975377318579545,0.002351542569401736,-583.5299968527022,3687.3844212716385,-69.67312739964432,662.5588887343345,3465.3180032211785,-411.32054131442334,Vision,NoMovement,2
0.34700000000000003,0.013225601941071058,0.009617922557266019,62.1900559441426,61.25290023201856,0.38045464979620575,-3.5824863568807204,0.003383619399365351,0.0021429110836347098,0.0020771700782055234,0.0023353935700968355,-583.5140170204384,3687.3381598707015,-69.69457051255512,662.5452341231995,3465.3093642605468,-411.30575991143246,Vision,NoMovement,2
0.34800000000000003,0.013198115469862035,0.009587295611494165,62.20793289936342,61.25290023201856,0.38171944650766465,-3.576193919006768,0.003457080480229747,0.0021419033257357827,0.002061705424540983,0.0023226596678528584,-583.4980371881745,3687.2918984697644,-69.71601362546592,662.5315795120645,3465.300725299915,-411.2909785084416,Vision,NoMovement,2
