Time,Amplitude_Envelope_P1,Amplitude_Envelope_P2,Filtered_ECG_P1,Filtered_ECG_P2,Filtered_Respiration_P1,Filtered_Respiration_P2,Filtered_EMG_Bicep_P1,Filtered_EMG_Tricep_P1,Filtered_EMG_Bicep_P2,Filtered_EMG_Tricep_P2,right_index_x_P1,right_index_y_P1,right_index_z_P1,right_index_x_P2,right_index_y_P2,right_index_z_P2,ConditionVision,ConditionMovement,Trial
0.0,0.0166612095929374,0.0085890623267235,84.01008120974518,63.8637573177222,-0.1083400155675309,0.9671377131557036,0.00337032284509,0.0017771842252776,0.0030619051222215,0.0037255190209125,-602.4515302107131,3688.573835476316,-37.08014659532606,596.0511408359647,3455.67692927133,-257.7511311099665,Vision,NoMovement,0
0.001,0.016663341982863372,0.008589062327597796,84.01008120974518,63.8637573177222,-0.10864950998668522,0.9825354629229993,0.0033797283379490084,0.0018186499589329754,0.003039404617550974,0.003721717000979539,-602.4179244009912,3688.681885107326,-37.09341538223252,595.9828957357242,3455.4261396953702,-257.70026034920716,Vision,NoMovement,0
0.002,0.016665454554702797,0.008589062328048198,84.01008120974518,63.8637573177222,-0.1089597230232261,0.9979799180766741,0.0033886472767716857,0.0018597267577936966,0.00301592533415858,0.003718632210823323,-602.3843185912691,3688.789934738336,-37.10668416913899,595.9146506354838,3455.1753501194107,-257.6493895884479,Vision,NoMovement,0
0.003,0.016667539107277876,0.008589062328033303,84.01008120974518,63.8637573177222,-0.10927065170809067,1.0134709517590526,0.003396998216116592,0.0019001789722456117,0.0029917052998661205,0.003716146068790775,-602.3507127815471,3688.8979843693455,-37.119952956045445,595.8464055352433,3454.9245605434508,-257.59851882768857,Vision,NoMovement,0
0.004,0.016669588172387506,0.008589062327510215,84.01008120974518,63.8637573177222,-0.10958229305489726,1.029008435848814,0.003404701534617006,0.0019397911711895761,0.0029670077799613752,0.0037141108338642572,-602.3171069718252,3689.006034000355,-37.13322174295191,595.7781604350027,3454.6737709674912,-257.5476480669293,Vision,NoMovement,0
0.005,0.01667159508452373,0.008589062326433635,84.01008120974518,63.8637573177222,-0.10989464405889941,1.0445922408782526,0.0034116793500988006,0.001978373664102227,0.0029421177396542104,0.003712351581149324,-602.2835011621032,3689.114083631365,-37.14649052985837,595.7099153347623,3454.4229813915313,-257.49677730617,Vision,NoMovement,0
0.006,0.016673553789997107,0.008589062324756761,84.01008120974518,63.8637573177222,-0.11020770169735165,1.060222236091547,0.0034178552656754933,0.0020157678378751685,0.002917337433964984,0.003710669380873081,-602.2498953523811,3689.222133262375,-37.159759316764834,595.6416702345218,3454.1721918155718,-257.44590654541065,Vision,NoMovement,0
0.007,0.016675458916378658,0.008589062322430495,84.01008120974518,63.8637573177222,-0.11052146292931164,1.0758982894326126,0.003423153989780563,0.0020518512078287468,0.0028929811750186274,0.003708845679503698,-602.2162895426592,3689.3301828933845,-37.17302810367129,595.5734251342814,3453.921402239612,-257.3950357846514,Vision,NoMovement,0
0.008,0.01667730581044301,0.00858906231940434,84.01008120974518,63.8637573177222,-0.11083592469743306,1.0916202675328788,0.0034275008978130223,0.0020865420609333437,0.0028693693820605725,0.003706647807100236,-602.1826837329372,3689.438232524394,-37.18629689057776,595.5051800340409,3453.6706126636523,-257.34416502389206,Vision,NoMovement,0
0.009000000000000001,0.016679090595161716,0.00858906231562569,84.01008120974518,63.8637573177222,-0.11115108392405994,1.1073880357704424,0.0034308216705015745,0.0021198035591161266,0.002846822059852104,0.003703835455019304,-602.1490779232153,3689.546282155404,-37.199565677484216,595.4369349338004,3453.4198230876923,-257.2932942631328,Vision,NoMovement,0
0.01,0.016680810156672925,0.008589062311040055,84.01008120974518,63.8637573177222,-0.11146693751587969,1.1232014581864802,0.003433042222604166,0.0021516471743953133,0.002825651882289755,0.0037001678867944754,-602.1154721134932,3689.654331786414,-37.21283446439068,595.36868983356,3453.1690335117323,-257.24242350237347,Vision,NoMovement,0
0.011,0.016682462033591815,0.008589062305591531,84.01008120974518,63.8637573177222,-0.11178348236144157,1.1390603975445321,0.0034340891739173805,0.0021821353167525742,0.0028061570920020437,0.0036954115827916327,-602.0818663037712,3689.7623814174235,-37.22610325129714,595.3004447333194,3452.918243935773,-257.19155274161415,Vision,NoMovement,0
0.012,0.016684044418152286,0.008589062299222417,84.01008120974518,63.8637573177222,-0.11210071533181697,1.154964715318394,0.003433891093698038,0.0022113829891830658,0.002788614464900368,0.0036893479849612718,-602.0482604940493,3689.870431048433,-37.239372038203605,595.232199633079,3452.667454359813,-257.1406819808549,Vision,NoMovement,0
0.013000000000000001,0.016685556099469066,0.00858906229187332,84.01008120974518,63.8637573177222,-0.11241863328097453,1.1709142716800292,0.0034323806806965296,0.0022395582666176984,0.002773272616658268,0.0036817809903905464,-602.0146546843273,3689.978480679443,-37.25264082511006,595.1639545328385,3452.4166647838533,-257.08981122009556,Vision,NoMovement,0
0.014,0.016686996116194792,0.008589062283483639,84.01008120974518,63.8637573177222,-0.11273723304471939,1.186908925559626,0.0034294979440147267,0.002266881387573957,0.002760345931586053,0.003672543835677951,-601.9810488746052,3690.086530310453,-37.26590961201653,595.095709432598,3452.1658752078934,-257.0389404593363,Vision,NoMovement,0
0.015,0.016688363465376818,0.00858906227399127,84.01008120974518,63.8637573177222,-0.11305651144251279,1.2029485345611948,0.0034251943379895854,0.002293622287571852,0.0027500093609971765,0.0036615050253781525,-601.9512883392233,3690.1684481398515,-37.27783644991218,595.0274643323576,3451.915085631934,-256.98806969857696,Vision,NoMovement,0
0.016,0.0166896570304962,0.00858906226333302,84.01008120974518,63.8637573177222,-0.11337646527640982,1.219032955022846,0.0034194376940172707,0.0023200964703836368,0.0027423942755882224,0.0036485729952643957,-601.924054426057,3690.2331954933243,-37.288881530647444,594.9592192321171,3451.664296055974,-256.93719893781764,Vision,NoMovement,0
0.017,0.01669087565864681,0.008589062251444285,84.01008120974518,63.8637573177222,-0.1136970913314391,1.2351620420047231,0.003412217701078282,0.002346659178090467,0.0027375854921154763,0.0036336992741199765,-601.8968205128907,3690.2979428467966,-37.299926611382716,594.8998719003914,3451.4478413777683,-256.8929546525705,Vision,NoMovement,0
0.018000000000000002,0.016692018505744293,0.008589062238259974,84.01008120974518,63.8637573177222,-0.11401838637541015,1.2513356492770489,0.0034035516164363237,0.0023736978823575817,0.002735619547355701,0.003616880012836038,-601.8695865997244,3690.3626902002693,-37.31097169211798,594.8539644849544,3451.2832489334273,-256.8587195371531,Vision,NoMovement,0
0.019,0.016693084952784005,0.008589062223714179,84.01008120974518,63.8637573177222,-0.11434034716074132,1.267553629381072,0.003393489827000387,0.002401623206870884,0.0027364842661839733,0.003598155864289575,-601.8423526865581,3690.4274375537416,-37.32201677285325,594.8080570695174,3451.1186564890863,-256.8244844217357,Vision,NoMovement,0
0.02,0.016694074607389607,0.008589062207740207,84.01008120974518,63.8637573177222,-0.11466297042048813,1.2838158335438694,0.0033821208327274917,0.002430858503494502,0.0027401196525158487,0.003577610296092087,-601.8151187733918,3690.4921849072143,-37.33306185358852,594.7621496540804,3450.954064044745,-256.79024930631823,Vision,NoMovement,0
0.021,0.016694987481977404,0.008589062190271356,84.01008120974518,63.8637573177222,-0.1149862528730946,1.300122111739596,0.0033695752099378805,0.0024618284113840047,0.0027464200993717264,0.0035553664900021867,-601.7878848602254,3690.556932260687,-37.34410693432379,594.7162422386434,3450.789471600404,-256.7560141909008,Vision,NoMovement,0
0.022,0.01669582403009393,0.008589062171240927,84.01008120974518,63.8637573177222,-0.11531019121986617,1.316472312677541,0.0033560281673167165,0.0024949467929107614,0.002755237854427599,0.003531583032171682,-601.7606509470592,3690.6216796141593,-37.355152015059055,594.6703348232064,3450.624879156063,-256.7217790754834,Vision,NoMovement,0
0.023,0.016696584887154548,0.008589062150582225,84.01008120974518,63.8637573177222,-0.11563478214565043,1.3328662838048082,0.0033417004322807056,0.0025306044747984654,0.0027663876063413026,0.0035064486344774173,-601.7334170338928,3690.686426967632,-37.36619709579433,594.6244274077694,3450.460286711722,-256.687543960066,Vision,NoMovement,0
0.024,0.016697270589589235,0.008589062128229246,84.01008120974518,63.8637573177222,-0.11596002231922226,1.3493038712945227,0.0033268573645702836,0.0025691572278118972,0.0027796520059256975,0.003480176155712705,-601.7061831207265,3690.751174321105,-37.37724217652959,594.5785199923324,3450.295694267381,-256.6533088446486,Vision,NoMovement,0
0.025,0.016697881825515327,0.008589062104116793,84.01008120974518,63.8637573177222,-0.11628590839221184,1.3657849201078207,0.0033118063269087323,0.002610914394619776,0.0027947879161816314,0.003452996202176675,-601.6789492075602,3690.815921674577,-37.38828725726486,594.5326125768954,3450.13110182304,-256.6190737292312,Vision,NoMovement,0
0.026000000000000002,0.01669841944851284,0.008589062078180868,84.01008120974518,63.8637573177222,-0.11661243700096381,1.3823092739077227,0.0032968924237328423,0.0026561285204352004,0.002811533183835359,0.003425150570808441,-601.6517152943939,3690.88066902805,-37.39933233800013,594.4867051614584,3449.966509378699,-256.5848386138138,Vision,NoMovement,0
0.027,0.016698884378165305,0.00858906205035907,84.01008120974518,63.8637573177222,-0.11693960476545935,1.3988767751215292,0.003282492766271253,0.002704986263273569,0.00282961373148147,0.0033968857649266807,-601.6244813812276,3690.9454163815226,-37.41037741873539,594.4407977460214,3449.801916934358,-256.5506034983964,Vision,NoMovement,0
0.028,0.016699277862928408,0.008589062020591101,84.01008120974518,63.8637573177222,-0.117267408289708,1.4154872649288577,0.0032690094545762675,0.002757600777228814,0.00284875077628378,0.003368446786547299,-601.5972474680613,3691.010163734995,-37.421422499470665,594.3948903305844,3449.637324490017,-256.516368382979,Vision,NoMovement,0
0.029,0.016699601300143314,0.00858906198881876,84.01008120974518,63.8637573177222,-0.11759584416156113,1.4321405832499932,0.003256861494417928,0.002814005678224037,0.002868667981701004,0.0033400713864445894,-601.5700135548949,3691.0749110884676,-37.43246758020593,594.3489829151474,3449.472732045676,-256.4821332675616,Vision,NoMovement,0
0.03,0.016699856054968286,0.008589061954987048,84.01008120974518,63.8637573177222,-0.11792490895457045,1.4488365688087195,0.0032464758966111473,0.002874150639626432,0.0028890983385428805,0.003311984923490121,-601.5427796417287,3691.1396584419404,-37.4435126609412,594.3030754997104,3449.308139601335,-256.4478981521442,Vision,NoMovement,0
0.031,0.016700043738378127,0.008589061919044265,84.01008120974518,63.8637573177222,-0.1182545992239556,1.465575059045443,0.0032382782412019025,0.0029378986438391647,0.00290979056333876,0.0032843959490528782,-601.5151255248005,3691.19861964401,-37.454919511115484,594.2571680842734,3449.143547156994,-256.4136630367268,Vision,NoMovement,0
0.032,0.016700166307379614,0.00858906188094251,84.01008120974518,63.8637573177222,-0.1185849115114464,1.4823558901805276,0.0032326830103883942,0.0030050249420192723,0.002930514815404091,0.0032574925947096538,-601.4850958740805,3691.2248700532905,-37.46837154889931,594.2112606688364,3448.978954712653,-256.3794279213094,Vision,NoMovement,0
0.033,0.016700226082656297,0.008589061840638486,84.01008120974518,63.8637573177222,-0.11891584234271352,1.499178897202487,0.003230083985717112,0.0030752177951809696,0.002951067571628415,0.0032314398038274144,-601.4550662233605,3691.251120462571,-37.48182358668315,594.1653532533994,3448.814362268312,-256.345192805892,Vision,NoMovement,0
0.034,0.016700225875251825,0.00858906179809369,84.01008120974518,63.8637573177222,-0.11924738822806692,1.5160439138711626,0.0032308449654070088,0.003148081071197786,0.002971275546977498,0.003206377405484379,-601.4250365726406,3691.2773708718523,-37.49527562446698,594.1391580519057,3448.7186425331797,-256.3255936775617,Vision,NoMovement,0
0.035,0.01670016885105228,0.008589061753275725,84.01008120974518,63.8637573177222,-0.11957954566285135,1.532950772706241,0.003235291012706505,0.0032231387317830256,0.00299099858247802,0.0031824189930436445,-601.3950069219206,3691.303621281133,-37.508727662250806,594.1179942124344,3448.64050192612,-256.3097302508529,Vision,NoMovement,0
0.036000000000000004,0.016700058027884726,0.008589061706158283,84.01008120974518,63.8637573177222,-0.11991231112636248,1.5498993050510705,0.0032437004202214227,0.003299841192683999,0.003010131431414593,0.0031596515460609433,-601.3649772712007,3691.329871690414,-37.52217970003464,594.0968303729632,3448.5623613190605,-256.2938668241442,Vision,NoMovement,0
0.037,0.016699896103431082,0.008589061656722073,84.01008120974518,63.8637573177222,-0.12024568108374245,1.566889340984915,0.0032562975732265817,0.0033775734934409283,0.0030286043784421195,0.0031381357214973734,-601.3349476204808,3691.356122099695,-37.53563173781847,594.0756665334919,3448.484220712001,-256.2780033974354,Vision,NoMovement,0
0.038,0.016699685430575806,0.008589061604955586,84.01008120974518,63.8637573177222,-0.12057965198488772,1.5839207093873846,0.0032732468885777253,0.0034556651588907175,0.003046382656325423,0.0031179067303307773,-601.3049179697607,3691.382372508976,-37.549083775602305,594.0545026940206,3448.4060801049413,-256.2621399707266,Vision,NoMovement,0
0.039,0.016699428078999108,0.008589061550856121,84.01008120974518,63.8637573177222,-0.12091422026485123,1.6009932379265701,0.0032946479646103247,0.003533401562284361,0.003063464679744185,0.003098975708327785,-601.2748883190408,3691.4086229182567,-37.562535813386134,594.0333388545494,3448.3279394978817,-256.24627654401786,Vision,NoMovement,0
0.04,0.016699126136844208,0.008589061494430079,84.01008120974518,63.8637573177222,-0.12124938234366234,1.618106753047706,0.003320532008895786,0.0036100364982210543,0.003079879170600286,0.00308133148076577,-601.2448586683208,3691.4348733275374,-37.57598785116996,594.0121750150781,3448.2497988908217,-256.23041311730907,Vision,NoMovement,0
0.041,0.01669878193159704,0.008589061435694156,84.01008120974518,63.8637573177222,-0.1215851346282108,1.6352610800377838,0.003350859560470974,0.0036848055747944063,0.003095681284507896,0.0030649426156643678,-601.2148290176009,3691.4611237368185,-37.5894398889538,593.9910111756068,3448.171658283762,-256.2145496906003,Vision,NoMovement,0
0.042,0.01669839790587005,0.008589061374676049,84.01008120974518,63.8637573177222,-0.12192147350816017,1.6524560429371062,0.003385519512948145,0.0037569399674652975,0.0031109478690307542,0.0030497596723394107,-601.184799366881,3691.4873741460992,-37.60289192673763,593.9698473361356,3448.0935176767025,-256.19868626389155,Vision,NoMovement,0
0.043000000000000003,0.016697976730388725,0.008589061311415555,84.01008120974518,63.8637573177222,-0.12225839536087332,1.6696914646046088,0.0034243294434431904,0.0038256800756867456,0.003125772005245372,0.0030357175846701897,-601.154769716161,3691.5136245553804,-37.61634396452146,593.9486834966643,3448.015377069643,-256.18282283718275,Vision,NoMovement,0
0.044,0.016697521077798563,0.008589061245965372,84.01008120974518,63.8637573177222,-0.12259589654880208,1.6869671667060397,0.003467037198695764,0.003890288675756685,0.0031402570086558994,0.0030227381499805025,-601.124740065441,3691.539874964661,-37.62979600230529,593.9275196571931,3447.9372364625833,-256.16695941047396,Vision,NoMovement,0
0.045,0.01669703386300178,0.008589061178392293,84.01008120974518,63.8637573177222,-0.12293397342020426,1.7042829697027742,0.003513323589662939,0.003950063291353254,0.0031545100886939004,0.0030107326062579526,-601.094710414721,3691.566125373942,-37.64324804008913,593.9063558177218,3447.8590958555237,-256.15109598376523,Vision,NoMovement,0
0.046,0.016696517960301353,0.008589061108777713,84.01008120974518,63.8637573177222,-0.12327262230954508,1.7216386929171894,0.0035628059371813387,0.0040043476551424075,0.003168635877465074,0.002999604294202659,-601.0646807640011,3691.592375783223,-37.656700077872955,593.8851919782505,3447.780955248464,-256.13523255705644,Vision,NoMovement,0
0.047,0.01669597610506613,0.008589061037219431,84.01008120974518,63.8637573177222,-0.12361183953640466,1.7390341544435524,0.003615042159190711,0.004052542261637608,0.003182730039619805,0.0029892514343407665,-601.0346511132811,3691.6186261925036,-37.670152115656784,593.8640281387793,3447.7028146414045,-256.11936913034765,Vision,NoMovement,0
0.048,0.01669541123189625,0.008589060963832038,84.01008120974518,63.8637573177222,-0.12395162140740576,1.7564691712142042,0.003669535135851119,0.004094114049723361,0.003196873179029734,0.002979570076811793,-601.0014456004604,3691.6317241663705,-37.68904659988309,593.842864299308,3447.624674034345,-256.1035057036389,Vision,NoMovement,0
0.049,0.01669482642785531,0.008589060888748425,84.01008120974518,63.8637573177222,-0.12429196421510748,1.7739435589877846,0.0037257372347608425,0.004128605191810532,0.003211125269367191,0.0029704572643262676,-600.9668603198404,3691.639108004581,-37.710305579831655,593.8217004598367,3447.5465334272853,-256.0876422769301,Vision,NoMovement,0
0.05,0.016694224763403532,0.008589060812120988,84.01008120974518,63.8637573177222,-0.12463286423842088,1.7914571323381963,0.0037830550862732663,0.004155640857852524,0.0032255208483753465,0.002961814379184912,-600.9322750392203,3691.646491842792,-37.73156455978021,593.8023731232548,3447.4738557620726,-256.0732800721385,Vision,NoMovement,0
0.051000000000000004,0.01669360960262729,0.00858906073412242,84.01008120974518,63.8637573177222,-0.12497431774272363,1.8090097047207265,0.0038408548810661036,0.004174935727509011,0.003240065210045688,0.002953550550947374,-600.8976897586001,3691.6538756810023,-37.752823539728766,593.7906277399147,3447.423731706704,-256.0651156220293,Vision,NoMovement,0
0.052000000000000005,0.016692984349755358,0.008589060654947309,84.01008120974518,63.8637573177222,-0.12531632098026543,1.8266010883822825,0.003898468544303274,0.0041862989913943275,0.0032547317899395104,0.0029455859208025958,-600.8631044779801,3691.6612595192128,-37.77408251967733,593.7788823565746,3447.373607651336,-256.05695117192005,Vision,NoMovement,0
0.053,0.016692352211791155,0.008589060574812946,84.01008120974518,63.8637573177222,-0.12565887018907,1.844231094428419,0.003955201092087956,0.004189637611228149,0.003269460871235556,0.002937854519860112,-600.8285191973599,3691.668643357423,-37.795341499625884,593.7671369732345,3447.323483595968,-256.04878672181087,Vision,NoMovement,0
0.054,0.01669171615869052,0.008589060493961024,84.01008120974518,63.8637573177222,-0.1260019615948797,1.861899532811809,0.004010339331271011,0.004184957673367456,0.0032841596601277685,0.002930306525835698,-600.7939339167398,3691.676027195634,-37.81660047957445,593.7553915898944,3447.2733595406,-256.04062227170164,Vision,NoMovement,0
0.055,0.01669107892452555,0.00858906041265853,84.01008120974518,63.8637573177222,-0.12634559141004145,1.8796062123363013,0.004063161883645502,0.004172363749146696,0.0032987037056851267,0.00292290970366761,-600.7593486361196,3691.6834110338445,-37.837859459523,593.7436462065543,3447.2232354852317,-256.0324578215924,Vision,NoMovement,0
0.056,0.016690443015681122,0.008589060331199149,84.01008120974518,63.8637573177222,-0.12668975583393155,1.897350940646065,0.004112950363957598,0.00415205625530697,0.0033129395743626174,0.0029156499031997908,-600.7247633554996,3691.690794872055,-37.859118439471565,593.7319008232142,3447.1731114298636,-256.02429337148317,Vision,NoMovement,0
0.057,0.016689810720499215,0.008589060249904471,84.01008120974518,63.8637573177222,-0.12703445105336292,1.9151335242925758,0.004159001437868011,0.004124326878037736,0.003326688633798777,0.0029085305710059564,-600.6901780748794,3691.6981787102654,-37.88037741942012,593.7201554398741,3447.122987374495,-256.01612892137393,Vision,NoMovement,0
0.058,0.01668918411913456,0.008589060169125381,84.01008120974518,63.8637573177222,-0.1273796732414846,1.9329537686440958,0.004200639423617907,0.004089552197699924,0.0033397517554221755,0.0029015713188533777,-600.6555927942593,3691.705562548476,-37.901636399368684,593.708410056534,3447.072863319127,-256.0079644712647,Vision,NoMovement,0
0.059000000000000004,0.016688565093393684,0.008589060089243167,84.01008120974518,63.8637573177222,-0.1277254185597374,1.9508114779536931,0.004237229045865278,0.00404818574453012,0.0033519147208936474,0.002894805670771707,-600.6210075136393,3691.712946386687,-37.92289537931724,593.6966646731939,3447.022739263759,-255.9998000211555,Vision,NoMovement,0
0.06,0.01668795533649441,0.008589060010670809,84.01008120974518,63.8637573177222,-0.128071683156735,1.9687064553475577,0.004268187885396098,0.0040007488073167665,0.003362954124603673,0.0028882781828069876,-600.5864222330191,3691.720330224897,-37.9441543592658,593.6849192898538,3446.972615208391,-255.99163557104626,Vision,NoMovement,0
0.061,0.01668735636270823,0.008589059933854289,84.01008120974518,63.8637573177222,-0.12841846316868832,1.9866385028143034,0.004292998033030867,0.0039478203514611895,0.0033726435959892,0.002882041181742488,-600.551836952399,3691.7277140631077,-37.96541333921436,593.6731739065137,3446.9224911530227,-255.98347112093703,Vision,NoMovement,0
0.062,0.01668676951686021,0.008589059859273893,84.01008120974518,63.8637573177222,-0.12876575471952512,2.0046074212726372,0.004311216493703767,0.0038900263749377527,0.003380760187111555,0.002876151389781197,-600.5172516717789,3691.735097901318,-37.98667231916292,593.6614285231736,3446.8723670976547,-255.97530667082782,Vision,NoMovement,0
0.063,0.016686195983659845,0.008589059787445098,84.01008120974518,63.8637573177222,-0.12911355392130064,2.022613010480246,0.004322483999914484,0.0038280289921480293,0.0033870907678927105,0.0028706666923575827,-600.4826663911588,3691.742481739529,-38.007931299111476,593.6496831398337,3446.822243042286,-255.96714222071859,Vision,NoMovement,0
0.064,0.016685636796844823,0.008589059718920189,84.01008120974518,63.8637573177222,-0.12946185687309145,2.040655069102604,0.004326532018222397,0.003762515538600381,0.00339143826423891,0.0028656432705052074,-600.4495141317052,3691.751786543603,-38.03095252234394,593.6379377564936,3446.772118986918,-255.95897777060935,Vision,NoMovement,0
0.065,0.016685092848116204,0.00858905965428884,84.01008120974518,63.8637573177222,-0.12981065966296673,2.058733394701334,0.00432318780010978,0.0036941880185101207,0.0033936275748242223,0.0028611332587773495,-600.4208029336597,3691.7670445935623,-38.05943509591986,593.6261923731535,3446.72199493155,-255.95081332050012,Vision,NoMovement,0
0.066,0.016684564895851878,0.008589059594179728,84.01008120974518,63.8637573177222,-0.13015995836686609,2.0768477837236605,0.00431237732851198,0.0036237532178734046,0.003393510997262891,0.00285718301012623,-600.3920917356143,3691.782302643522,-38.08791766949578,593.6144469898134,3446.671870876182,-255.9426488703909,Vision,NoMovement,0
0.067,0.016684053573581496,0.008589059539261132,84.01008120974518,63.8637573177222,-0.13050974904932341,2.0949980315707415,0.004294126003515459,0.0035519137293433456,0.003390972978720151,0.002853831969589584,-600.3633805375689,3691.7975606934815,-38.11640024307171,593.601041662833,3446.6218402170603,-255.93430289090682,Vision,NoMovement,0
0.068,0.016683559398213487,0.008589059490241925,84.01008120974518,63.8637573177222,-0.13086002776235797,2.1131839325059816,0.00426855697163223,0.0034793600063776475,0.003385934001996577,0.0028511121012827403,-600.3346693395234,3691.8128187434413,-38.14488281664763,593.5864985575499,3446.5718735747037,-255.92583248540063,Vision,NoMovement,0
0.069,0.0166830827780026,0.008589059447872782,84.01008120974518,63.8637573177222,-0.13121079054745427,2.1314052797246066,0.004235887158802541,0.0034067634264595666,0.003378353438897149,0.0028490477914428665,-600.305958141478,3691.8280767934007,-38.17336539022356,593.5719554522667,3446.5219069323475,-255.91736207989445,Vision,NoMovement,0
0.07,0.016682624020250635,0.008589059412946477,84.01008120974518,63.8637573177222,-0.13156203343443099,2.149661865342065,0.004196421266158754,0.0033347702416654493,0.003368231234227084,0.0028476561607073776,-600.2772469434325,3691.84333484336,-38.20184796379948,593.5574123469836,3446.471940289991,-255.90889167438826,Vision,NoMovement,0
0.07100000000000001,0.016682183338733815,0.008589059386298678,84.01008120974518,63.8637573177222,-0.13191375244187234,2.1679534803836416,0.004150544137108076,0.0032639962277781643,0.003355608310191558,0.0028469477389840396,-600.2485357453871,3691.85859289332,-38.23033053737541,593.5428692417005,3446.421973647635,-255.90042126888207,Vision,NoMovement,0
0.07200000000000001,0.01668176086085254,0.008589059368808662,84.01008120974518,63.8637573177222,-0.13226594357724702,2.186279914853415,0.004098711960611948,0.0031950218188601443,0.0033405656088674636,0.0028469274632126375,-600.2198245473417,3691.873850943279,-38.25881311095133,593.5283261364174,3446.372007005278,-255.89195086337588,Vision,NoMovement,0
0.073,0.01668135663449849,0.008589059361399793,84.01008120974518,63.8637573177222,-0.13261860283703136,2.2046409576420323,0.004041442762722749,0.003128387539296705,0.0033232217364378724,0.0028475959448250212,-600.1911133492962,3691.8891089932386,-38.28729568452725,593.5137830311343,3446.322040362922,-255.8834804578697,Vision,NoMovement,0
0.074,0.01668097063463916,0.008589059365039143,84.01008120974518,63.8637573177222,-0.13297172620712389,2.2230363965970223,0.003979306601251034,0.0030645896215780294,0.003303729238051042,0.002848950923761939,-600.1624021512507,3691.9043670431984,-38.31577825810318,593.4992399258512,3446.272073720566,-255.8750100523635,Vision,NoMovement,0
0.075,0.016680602769618216,0.008589059380738577,84.01008120974518,63.8637573177222,-0.1333253096617315,2.2414660185115283,0.003912915831737359,0.0030040757883314966,0.003282269609098544,0.0028509887874189313,-600.1336909532054,3691.9196250931577,-38.3442608316791,593.484696820568,3446.2221070782093,-255.86653964685732,Vision,NoMovement,0
0.076,0.01668025288717113,0.008589059409553764,84.01008120974518,63.8637573177222,-0.13367934916536406,2.2599296091291587,0.0038429157462792564,0.0029472412381417777,0.0032590472324075244,0.002853706006543057,-600.1049797551599,3691.9348831431175,-38.37274340525503,593.4701537152849,3446.172140435853,-255.85806924135113,Vision,NoMovement,0
0.077,0.01667992078015916,0.008589059452584771,84.01008120974518,63.8637573177222,-0.13403384067170085,2.278426953133779,0.003769975796372892,0.002894424909969805,0.003234282518442585,0.002857100353620623,-600.0762685571144,3691.950141193077,-38.40122597883095,593.4556106100018,3446.1221737934966,-255.84959883584494,Vision,NoMovement,0
0.078,0.016679606192022613,0.008589059510974962,84.01008120974518,63.8637573177222,-0.13438878012432157,2.2969578342192007,0.0036947814933889858,0.0028459061273925696,0.0032082045994122977,0.0028611718260726443,-600.047557359069,3691.9653992430362,-38.42970855240688,593.4410675047187,3446.0722071511404,-255.84112843033878,Vision,NoMovement,0
0.079,0.016679308821957995,0.008589059585910401,84.01008120974518,63.8637573177222,-0.1347441634555902,2.3155220349963317,0.0036180269607252917,0.002801901754217295,0.00318104397009697,0.0028659232625108445,-600.0188461610236,3691.980657292996,-38.4581911259828,593.4265243994356,3446.022240508784,-255.8326580248326,Vision,NoMovement,0
0.08,0.01667902832982094,0.008589059678619556,84.01008120974518,63.8637573177222,-0.13509998658865713,2.3341193370643385,0.003540408002668008,0.002762564008337765,0.003153025473049715,0.0028713606726617985,-599.9901349629781,3691.9959153429554,-38.48667369955872,593.4119812941525,3445.9722738664277,-255.8241876193264,Vision,NoMovement,0
0.081,0.016678764340762455,0.008589059790371186,84.01008120974518,63.8637573177222,-0.13545624543631601,2.3527495209991454,0.0034626154837028083,0.0027279790806522784,0.003124362006758756,0.0028774932863467333,-599.9752569885638,3692.020395679925,-38.512015214799355,593.3974381888694,3445.9223072240716,-255.81571721382022,Vision,NoMovement,0
0.082,0.016678516449600826,0.00858905992247376,84.01008120974518,63.8637573177222,-0.13581293590144145,2.3714123663433737,0.003385328796345098,0.0026981666894740556,0.0030952492988651804,0.002884333292448665,-599.9640388377784,3692.0473159358035,-38.53652570758122,593.3828950835863,3445.872340581715,-255.80724680831403,Vision,NoMovement,0
0.083,0.016678284224937338,0.008589060076273039,84.01008120974518,63.8637573177222,-0.1361700538771096,2.390107651676602,0.003309209259811909,0.00267308067910013,0.0030658620313181997,0.002891895230019232,-599.9528206869928,3692.0742361916823,-38.56103620036309,593.3683519783032,3445.822373939359,-255.79877640280785,Vision,NoMovement,0
0.084,0.01667806721302095,0.00858906025315049,84.01008120974518,63.8637573177222,-0.13652759524672584,2.4088351545220306,0.0032348934019691467,0.0026526107466845685,0.003036351519868695,0.0029001950314643163,-599.9416025362073,3692.1011564475607,-38.585546693144956,593.3538088730201,3445.7724072970022,-255.79030599730166,Vision,NoMovement,0
0.085,0.016677864941368317,0.008589060454520674,84.01008120974518,63.8637573177222,-0.13688555588443985,2.427594651418325,0.003162986175933664,0.002636585358365096,0.0030068450336097523,0.002909248779459871,-599.9303843854217,3692.128076703439,-38.61005718592682,593.339265767737,3445.722440654646,-255.78183559179547,Vision,NoMovement,0
0.08600000000000001,0.016677676922147413,0.008589060681828358,84.01008120974518,63.8637573177222,-0.13724393165402624,2.4463859179084886,0.003094054214741882,0.002624775886375982,0.002977446710419064,0.0029190712796236485,-599.9191662346361,3692.154996959318,-38.63456767870869,593.318200896877,3445.671371967201,-255.7707931453983,Vision,NoMovement,0
0.08700000000000001,0.016677502655331623,0.008589060936545809,84.01008120974518,63.8637573177222,-0.1376027184108979,2.4652087285450848,0.003028619243802521,0.0026169019575532763,0.0029482398967942084,0.0029296745455736333,-599.9079480838507,3692.1819172151963,-38.659078171490556,593.2965413856091,3445.6202027976806,-255.7595161859039,Vision,NoMovement,0
0.088,0.016677341631630888,0.008589061220168595,84.01008120974518,63.8637573177222,-0.13796191200096292,2.484062856880363,0.0029671517901677796,0.0026126379595340678,0.002919290626791697,0.002941066250675846,-599.8967299330651,3692.2088374710747,-38.68358866427243,593.2748818743412,3445.56903362816,-255.74823922640948,Vision,NoMovement,0
0.089,0.016677193335208916,0.008589061534212383,84.01008120974518,63.8637573177222,-0.13832150826135947,2.502948075537174,0.0029100653579542156,0.002611620613304567,0.002890651858945197,0.0029532481506086474,-599.8855117822795,3692.2357577269536,-38.70809915705429,593.2532223630733,3445.5178644586395,-255.73696226691507,Vision,NoMovement,0
0.09,0.016677057246194806,0.008589061880207844,84.01008120974518,63.8637573177222,-0.1386815030193348,2.521864156115076,0.0028577112773283974,0.0026134574872370363,0.0028623680300292136,0.0029662144531174663,-599.874293631494,3692.262677982832,-38.732609649836164,593.2315628518054,3445.4666952891184,-255.72568530742066,Vision,NoMovement,0
0.091,0.01667693284299499,0.00858906225969605,84.01008120974518,63.8637573177222,-0.1390418920942637,2.540810869262961,0.002810374453566212,0.0026177362871453985,0.0028344794885638387,0.0029799501287613855,-599.8630754807084,3692.289598238711,-38.75712014261803,593.2099033405375,3445.415526119598,-255.71440834792625,Vision,NoMovement,0
0.092,0.016676819604415853,0.008589062674223179,84.01008120974518,63.8637573177222,-0.1394026712964956,2.5597879846676332,0.002768270238300107,0.002624034712498863,0.0028070264629600867,0.002994429211748265,-599.851857329923,3692.316518494589,-38.7816306353999,593.1882438292696,3445.3643569500773,-255.70313138843184,Vision,NoMovement,0
0.093,0.016676717011603955,0.008589063125334305,84.01008120974518,63.8637573177222,-0.13976383642779688,2.5787952710440876,0.0027315426075219178,0.002631930635113413,0.0027800523725166272,0.0030096131930894164,-599.8406391791374,3692.3434387504676,-38.806141128181764,593.1665843180017,3445.3131877805567,-255.6918544289374,Vision,NoMovement,0
0.094,0.016676624549812002,0.008589063614567113,84.01008120974518,63.8637573177222,-0.1401253832814727,2.5978324962069275,0.0027002637659214145,0.002641012339072922,0.0027536064389547784,0.003025449620836916,-599.8294210283518,3692.3703590063465,-38.830651620963636,593.1449248067338,3445.262018611036,-255.680577469443,Vision,NoMovement,0
0.095,0.016676541709999635,0.008589064143445086,84.01008120974518,63.8637573177222,-0.1404873076424969,2.616899426976042,0.002674435210479621,0.0026508885487975544,0.0027277456438423897,0.003041871006206063,-599.8182028775663,3692.397279262225,-38.8551621137455,593.1232652954659,3445.2108494415156,-255.66930050994858,Vision,NoMovement,0
0.096,0.01667646799027511,0.008589064713469414,84.01008120974518,63.8637573177222,-0.1408496052879277,2.6359958292498566,0.00265399020349957,0.0026611979534108617,0.0027025360983083313,0.0030587941325850793,-599.8069847267807,3692.4241995181033,-38.87967260652737,593.101605784198,3445.159680271995,-255.65802355045417,Vision,NoMovement,0
0.097,0.016676402897188202,0.008589065326110893,84.01008120974518,63.8637573177222,-0.1412122719857831,2.6551214679939417,0.0026387975464036272,0.0026716179107362467,0.002678053884410912,0.0030761198833458145,-599.8014094144403,3692.4496670452936,-38.89957975525631,593.0799462729301,3445.1085111024745,-255.64674659095976,Vision,NoMovement,0
0.098,0.016676345946880364,0.00858906598280142,84.01008120974518,63.8637573177222,-0.141575303497069,2.6742761072314463,0.0026286665098268856,0.0026818720035874676,0.0026543854165056186,0.0030937337097711294,-599.8069052578346,3692.4722843428162,-38.9104552190618,593.0582867616622,3445.057341932954,-255.63546963146536,Vision,NoMovement,0
0.099,0.016676296666100352,0.008589066684923801,84.01008120974518,63.8637573177222,-0.14193869557462743,2.693459510114993,0.0026233527522059263,0.002691736149591367,0.002631627359698684,0.003111506821604819,-599.8124011012288,3692.4949016403384,-38.9213306828673,593.0366272503943,3445.0061727634334,-255.62419267197095,Vision,NoMovement,0
0.1,0.016676254593093073,0.008589067433802047,84.01008120974518,63.8637573177222,-0.14230244396387434,2.712671438831956,0.002622565039346131,0.002701043040001398,0.0026098861271578486,0.0031292981066265635,-599.8178969446232,3692.517518937861,-38.93220614667279,593.0149677391264,3444.955003593913,-255.61291571247654,Vision,NoMovement,0
0.101,0.016676219278368827,0.00858906823069018,84.01008120974518,63.8637573177222,-0.14266654440167267,2.7319116546782927,0.0026259725579729463,0.0027096847857668023,0.0025892769609711925,0.0031469566976438444,-599.8233927880174,3692.540136235383,-38.94308161047829,592.9933082278585,3444.9038344243922,-255.60163875298213,Vision,NoMovement,0
0.10200000000000001,0.01667619028536033,0.008589069076760726,84.01008120974518,63.8637573177222,-0.14303099261836655,2.751179918047191,0.002633212591938427,0.002717613772170549,0.0025699225911500656,0.003164325028617934,-599.8288886314117,3692.562753532906,-38.95395707428378,592.9720475899785,3444.858733784697,-255.59078790924912,Vision,NoMovement,0
0.10300000000000001,0.01667616719097407,0.008589069973091917,84.01008120974518,63.8637573177222,-0.1433957843366171,2.7704759884196584,0.0026438983185863543,0.0027248418602491805,0.002551951472814686,0.0031812421863793485,-599.8343844748059,3692.585370830428,-38.964832538089276,592.951655265286,3444.82684381444,-255.58086468301633,Vision,NoMovement,0
0.10400000000000001,0.016676149586043423,0.008589070920655004,84.01008120974518,63.8637573177222,-0.14376091527184848,2.7897996244368586,0.0026576265160405533,0.0027314381944503396,0.0025354956388660885,0.0031975473813320907,-599.8398803182002,3692.6079881279506,-38.97570800189477,592.9312629405935,3444.794953844183,-255.57094145678354,Vision,NoMovement,0
0.105,0.016676137075689528,0.008589071920299935,84.01008120974518,63.8637573177222,-0.14412638113237003,2.8091505838050104,0.0026739850479320613,0.002737525937104464,0.002520688265876489,0.0032130834041868336,-599.8453761615945,3692.630605425473,-38.986583465700264,592.910870615901,3444.763063873926,-255.56101823055076,Vision,NoMovement,0
0.106,0.01667612927959687,0.00858907297274058,84.01008120974518,63.8637573177222,-0.1444921776195075,2.828528623369789,0.002692560065241151,0.002743278242451129,0.0025076610916797285,0.003227699968854027,-599.8508720049887,3692.653222722995,-38.99745892950576,592.8904782912085,3444.731173903669,-255.55109500431797,Vision,NoMovement,0
0.107,0.016676125832209072,0.008589074078539514,84.01008120974518,63.8637573177222,-0.14485830042801773,2.847933499105427,0.002712942896372548,0.0027489137368858756,0.0024965418129187585,0.0032412568491284374,-599.856367848383,3692.6758400205176,-39.00833439331125,592.8700859665161,3444.6992839334116,-255.54117177808516,Vision,NoMovement,0
0.108,0.016676126382851486,0.00858907523809113,84.01008120974518,63.8637573177222,-0.14522474524495935,2.867364966120563,0.0027347365873457295,0.0027546917176515104,0.0024874515413430527,0.003253626710285687,-599.8618636917772,3692.69845731804,-39.01920985711675,592.8496936418235,3444.6673939631546,-255.53124855185237,Vision,NoMovement,0
0.109,0.016676130595785658,0.008589076451604727,84.01008120974518,63.8637573177222,-0.14559150775173355,2.8868227786490084,0.0027575620319351315,0.0027609072240888204,0.0024805023507298604,0.0032646975281027516,-599.8673595351715,3692.7210746155624,-39.03008532092224,592.829301317131,3444.6355039928976,-255.52132532561959,Vision,NoMovement,0
0.11,0.016676138150201834,0.008589077719086324,84.01008120974518,63.8637573177222,-0.1459585836229224,2.9063066901225874,0.002781063622205084,0.002767886071502139,0.002475794927385352,0.0032743744937521733,-599.8728553785658,3692.7436919130846,-39.04096078472774,592.8089089924385,3444.6036140226406,-255.5114020993868,Vision,NoMovement,0
0.111,0.016676148740154217,0.008589079040319856,84.01008120974518,63.8637573177222,-0.14632596852702937,2.9258164530756168,0.0028049143663835133,0.002775979882021822,0.002473416346210351,0.003282581344608385,-599.8783512219601,3692.7663092106072,-39.051836248533235,592.788516667746,3444.5717240523836,-255.501478873154,Vision,NoMovement,0
0.112,0.016676162074443487,0.008589080414847171,84.01008120974518,63.8637573177222,-0.14669365812534724,2.945351819219935,0.0028288204497482227,0.0027855611222626394,0.002473438014635362,0.003289261145358288,-599.8838470653543,3692.7889265081294,-39.062711712338725,592.7681243430535,3444.5398340821266,-255.4915556469212,Vision,NoMovement,0
0.113,0.01667617787645332,0.008589081841947635,84.01008120974518,63.8637573177222,-0.14706164807400274,2.964912539433612,0.0028525252328016146,0.0027970181725141055,0.0024759138391999263,0.0032943766377518365,-599.8893429087486,3692.811543805652,-39.07358717614422,592.747732018361,3444.5079441118696,-255.4816324206884,Vision,NoMovement,0
0.114,0.016676195883942636,0.008589083320616833,84.01008120974518,63.8637573177222,-0.14742993402278395,2.984498363751873,0.002875812668330511,0.0028107504834709385,0.0024808786612405247,0.003297910329043286,-599.8984128952596,3692.822523415385,-39.07739234946751,592.7273396936685,3444.4760541416126,-255.47170919445563,Vision,NoMovement,0
0.115,0.016676215848800215,0.008589084849544069,84.01008120974518,63.8637573177222,-0.14779851161559635,3.004109041440309,0.0028985100806757937,0.002827163891952798,0.002488346981731877,0.0032998644715578175,-599.9079498795962,3692.8319824439004,-39.08027371807051,592.706947368976,3444.4441641713556,-255.46178596822284,Vision,NoMovement,0
0.116,0.01667623753676483,0.008589086427089266,84.01008120974518,63.8637573177222,-0.14816737649087702,3.023744320899051,0.002920490208565665,0.0028466661534567415,0.0024983119631865874,0.0033002610190601433,-599.9174868639329,3692.8414414724157,-39.08315508667351,592.6865550442835,3444.4122742010986,-255.45186274199003,Vision,NoMovement,0
0.117,0.016676260727114554,0.008589088051259571,84.01008120974518,63.8637573177222,-0.14853652428046177,3.0434039497382868,0.0029416723944418227,0.0028696627173720696,0.002510744672677927,0.0032991415698702124,-599.9270238482696,3692.850900500931,-39.0860364552765,592.666162719591,3444.3803842308416,-255.44193951575724,Vision,NoMovement,0
0.11800000000000001,0.016676285212329417,0.008589089719684357,84.01008120974518,63.8637573177222,-0.14890595061163295,3.063087674767484,0.0029620228122864065,0.0028965527343412555,0.002525593524814807,0.0032965672484586124,-599.9365608326063,3692.860359529446,-39.0889178238795,592.6457703948985,3444.3484942605846,-255.43201628952446,Vision,NoMovement,0
0.11900000000000001,0.016676310797730482,0.00858909142959001,84.01008120974518,63.8637573177222,-0.1492756511059425,3.0827952420015086,0.0029815536487263223,0.0029277252575612613,0.002542783905887111,0.0032926184415181313,-599.946097816943,3692.8698185579615,-39.0917991924825,592.6280236512855,3444.3246359257414,-255.42321418994416,Vision,NoMovement,0
0.12,0.016676337301098715,0.00858909317777425,84.01008120974518,63.8637573177222,-0.14964562137966086,3.1025263966517196,0.003000321181861164,0.002963555596320382,0.0025622180052418553,0.003287394284862896,-599.9556348012796,3692.8792775864767,-39.0946805610855,592.6113412946142,3444.3040089293454,-255.41486314914198,Vision,NoMovement,0
0.121,0.01667636455227667,0.008589094960578917,84.01008120974518,63.8637573177222,-0.15001585704390769,3.1222808831995987,0.0030184227332794135,0.00300440178642655,0.002583774924152447,0.0032810117876998285,-599.9651717856163,3692.888736614992,-39.097561929688496,592.594658937943,3444.283381932949,-255.40651210833977,Vision,NoMovement,0
0.122,0.016676392392756027,0.008589096773863084,84.01008120974518,63.8637573177222,-0.15038635370506326,3.142058445300573,0.003035992501765549,0.0030506011222712877,0.002607311151936703,0.0032736044798321925,-599.974708769953,3692.8981956435073,-39.100443298291495,592.5779765812717,3444.2627549365525,-255.3981610675376,Vision,NoMovement,0
0.123,0.016676420675253194,0.008589098612975644,84.01008120974518,63.8637573177222,-0.15075710696363515,3.1618588258595883,0.0030531963247468524,0.00310246663335706,0.0026326614904694625,0.0032653204856557005,-599.9842457542898,3692.9076546720225,-39.10332466689449,592.5612942246005,3444.2421279401565,-255.38981002673538,Vision,NoMovement,0
0.124,0.01667644926327583,0.008589100472726026,84.01008120974518,63.8637573177222,-0.15112811241630825,3.181681767004872,0.0030702254543435704,0.0031602833267199834,0.00265964047605581,0.003256319983789002,-599.9937827386265,3692.9171137005383,-39.106206035497486,592.5446118679293,3444.22150094376,-255.3814589859332,Vision,NoMovement,0
0.125,0.016676478030682368,0.008589102347356685,84.01008120974518,63.8637573177222,-0.15149936565476452,3.2015270101618074,0.0030872894624780784,0.003224304012868639,0.0026880443016266613,0.0032467720976985916,-600.003319722963,3692.9265727290535,-39.109087404100485,592.5279295112581,3444.2008739473636,-255.37310794513098,Vision,NoMovement,0
0.126,0.01667650686123662,0.008589104230513504,84.01008120974518,63.8637573177222,-0.15187086226614088,3.221394295956555,0.003104608399036461,0.003294744610249518,0.0027176531911603736,0.003236851346639816,-600.0128567072998,3692.936031757569,-39.111968772703484,592.5112471545868,3444.1802469509676,-255.36475690432877,Vision,NoMovement,0
0.127,0.016676535648160292,0.008589106115216604,84.01008120974518,63.8637573177222,-0.15224259783344002,3.2412833642924705,0.003122404340142263,0.00337177893815696,0.0027482341434121645,0.0032267338334718487,-600.0223936916365,3692.945490786084,-39.11485014130648,592.4945647979156,3444.159619954571,-255.3564058635266,Vision,NoMovement,0
0.128,0.016676564293683284,0.008589107993831136,84.01008120974518,63.8637573177222,-0.15261456793439482,3.261193954339426,0.003140892512697748,0.0034555331120228127,0.0027795439566871884,0.003216593355693737,-600.0319306759732,3692.9549498145993,-39.11773150990948,592.4778824412443,3444.1389929581746,-255.34805482272438,Vision,NoMovement,0
0.129,0.01667659270859582,0.00858910985803808,84.01008120974518,63.8637573177222,-0.1529867681435208,3.281125804540138,0.0031602722658413823,0.0035460797251378622,0.002811332469624369,0.003206597616316732,-600.0414676603099,3692.9644088431146,-39.12061287851248,592.4612000845731,3444.1183659617786,-255.3397037819222,Vision,NoMovement,0
0.13,0.01667662081180166,0.008589111698804658,84.01008120974518,63.8637573177222,-0.15335919403093243,3.301078652601562,0.003180718243182576,0.0036434320282869204,0.002843345972982438,0.0031969046925008557,-600.0510046446465,3692.97386787163,-39.123494247115474,592.4445177279019,3444.097738965382,-255.33135274111999,Vision,NoMovement,0
0.131,0.016676648529876072,0.008589113506355616,84.01008120974518,63.8637573177222,-0.15373184116280184,3.3210522355691126,0.003202372154071753,0.003747538311092116,0.002875330732538665,0.0031876598854024044,-600.0605416289832,3692.983326900145,-39.12637561571847,592.4278353712307,3444.0771119689857,-255.32300170031777,Vision,NoMovement,0
0.132,0.016676675796627693,0.008589115270144242,84.01008120974518,63.8637573177222,-0.1541047051017672,3.341046289730001,0.003225335529153767,0.003858276648249882,0.0029070365105944816,0.0031789930199837804,-600.0700786133199,3692.9927859286604,-39.12925698432147,592.4111530145594,3444.0564849725897,-255.3146506595156,Vision,NoMovement,0
0.133,0.016676702552666685,0.008589116978824658,84.01008120974518,63.8637573177222,-0.15447778140579685,3.361060550690132,0.003249663788604776,0.003975450135796584,0.0029382199232053673,0.0031710162015508303,-600.0796155976566,3693.0022449571757,-39.13213835292447,592.3944706578882,3444.0358579761933,-255.30629961871338,Vision,NoMovement,0
0.134,0.016676728744980274,0.008589118620223817,84.01008120974518,63.8637573177222,-0.1548510656302427,3.3810947533629214,0.003275361879703716,0.004098782730590354,0.0029686474616096715,0.0031638219935514206,-600.0891525819932,3693.011703985691,-39.13501972152747,592.3777883012169,3444.015230979797,-255.2979485779112,Vision,NoMovement,0
0.135,0.01667675432651515,0.008589120181315411,84.01008120974518,63.8637573177222,-0.15522455332665347,3.401148631960834,0.0033023816714468643,0.004227915801332727,0.002998098050287283,0.003157481968079103,-600.0986895663299,3693.021163014206,-39.13790109013047,592.3612833698294,3443.9943967650247,-255.28958925005946,Vision,NoMovement,0
0.136,0.016676779255770456,0.00858912164819387,84.01008120974518,63.8637573177222,-0.15559824004322254,3.4212219200698466,0.0033306212218765533,0.0043624054851657,0.0030263650808488424,0.00315204557845165,-600.1096700467746,3693.032349801663,-39.14348551747266,592.3461932607679,3443.97191015225,-255.28116383972824,Vision,NoMovement,0
0.137,0.016676803496398104,0.008589123006050652,84.01008120974518,63.8637573177222,-0.1559721213249182,3.4413143505525903,0.003359925935004436,0.00450172090122456,0.003053257920499209,0.003147539295359309,-600.1247307483419,3693.048420314464,-39.15671047623165,592.3311031517064,3443.949423539475,-255.27273842939698,Vision,NoMovement,0
0.138,0.016676827016815082,0.008589124239150656,84.01008120974518,63.8637573177222,-0.1563461927138886,3.461425655625612,0.003390091498336788,0.004645243246211261,0.0030786029340922824,0.003143965947760484,-600.1397914499092,3693.0644908272648,-39.16993543499064,592.316013042645,3443.9269369267,-255.26431301906575,Vision,NoMovement,0
0.139,0.016676849789825546,0.008589125330811907,84.01008120974518,63.8637573177222,-0.15672044974832597,3.4815555668487903,0.003420868359556816,0.00479226583728003,0.0031022440765369895,0.003141304237136863,-600.1548521514766,3693.0805613400657,-39.18316039374963,592.3009229335834,3443.9044503139253,-255.25588760873453,Vision,NoMovement,0
0.14,0.016676871792254112,0.00858912626338557,84.01008120974518,63.8637573177222,-0.15709488796451976,3.5017038151318665,0.0034519673910800848,0.004941995292741608,0.003124043117178327,0.003139508445003349,-600.1699128530439,3693.0966318528667,-39.19638535250862,592.2858328245219,3443.88196370115,-255.24746219840327,Vision,NoMovement,0
0.14100000000000001,0.016676893004591388,0.008589127018239835,84.01008120974518,63.8637573177222,-0.15746950289566697,3.5218701307261604,0.003483066334919235,0.00509355418403319,0.0031438795548044346,0.0031385084156650847,-600.1849735546112,3693.1127023656677,-39.20961031126761,592.2707427154604,3443.8594770883756,-255.23903678807204,Vision,NoMovement,0
0.14200000000000002,0.016676913410650644,0.008589127575744728,84.01008120974518,63.8637573177222,-0.15784429007233064,3.5420542432992788,0.0035138166538803877,0.005245985587032305,0.0031616502769556782,0.003138209957832546,-600.2000342561785,3693.1287728784687,-39.22283527002659,592.2556526063989,3443.8369904756005,-255.23061137774081,Vision,NoMovement,0
0.14300000000000002,0.01667693299723763,0.008589127915260604,84.01008120974518,63.8637573177222,-0.1582192450228433,3.5622558818380647,0.0035438505283645087,0.005398259948120886,0.0031772690160286497,0.0031384958507811515,-600.2150949577458,3693.1448433912697,-39.23606022878558,592.2405624973375,3443.8145038628254,-255.22218596740956,Vision,NoMovement,0
0.14400000000000002,0.01667695175383256,0.008589128015129835,84.01008120974518,63.8637573177222,-0.1585943632721697,3.5824747747262418,0.003572787865968431,0.005549284579075691,0.0031906656666588237,0.0031392276397523423,-600.2301556593131,3693.1609139040706,-39.24928518754457,592.2254723882759,3443.792017250051,-255.21376055707833,Vision,NoMovement,0
0.145,0.016676969672284426,0.008589127852671121,84.01008120974518,63.8637573177222,-0.15896964034396047,3.6027106497332713,0.0036002432617277414,0.005697915936884968,0.0032017855499973623,0.003140248354062135,-600.2452163608805,3693.1769844168716,-39.26251014630356,592.2103822792144,3443.7695306372757,-255.2053351467471,Vision,NoMovement,0
0.146,0.01667698674651938,0.008589127404178285,84.01008120974518,63.8637573177222,-0.1593450717593598,3.622963234006211,0.003625832846454779,0.005842974643213091,0.0032105887262101527,0.003141386192451101,-600.2602770624478,3693.1930549296726,-39.27573510506255,592.1952921701529,3443.7470440245006,-255.19690973641585,Vision,NoMovement,0
0.147,0.01667700297226105,0.008589126644922769,84.01008120974518,63.8637573177222,-0.1597206530374516,3.6432322541445976,0.0036491809336441122,0.005983262981478729,0.0032170494495041935,0.0031424591137547463,-600.2753377640151,3693.2091254424736,-39.28896006382154,592.1802020610914,3443.724557411726,-255.18848432608462,Vision,NoMovement,0
0.148,0.016677018346764317,0.008589125549160423,84.01008120974518,63.8637573177222,-0.1600963796953874,3.6635174361032634,0.003669926368567397,0.00611758438541601,0.0032211558318201183,0.0031432801657903377,-600.2903984655824,3693.2251959552746,-39.30218502258053,592.1651119520299,3443.702070798951,-255.18005891575336,Vision,NoMovement,0
0.149,0.016677032868563025,0.00858912409014421,84.01008120974518,63.8637573177222,-0.16047224724878661,3.6838185052702728,0.003687728526883832,0.006244764251790822,0.0032229097468189014,0.0031436632959602664,-600.3054591671497,3693.2412664680755,-39.31540998133952,592.1500218429684,3443.6795841861763,-255.17163350542214,Vision,NoMovement,0
0.15,0.016677046537229675,0.008589122240140199,84.01008120974518,63.8637573177222,-0.16084825121059984,3.7041351864558,0.0037022729907124907,0.006363671290584503,0.0032223269740836386,0.0031434293236587267,-600.320519868717,3693.2573369808765,-39.32863494009851,592.1349317339069,3443.657097573401,-255.1632080950909,Vision,NoMovement,0
0.151,0.016677059353149525,0.008589119970451456,84.01008120974518,63.8637573177222,-0.16122438709316045,3.724467203884117,0.0037132769963355004,0.006473238570043532,0.0032194375543962376,0.0031424117255715303,-600.3355805702844,3693.2734074936775,-39.3418598988575,592.1198416248454,3443.634610960626,-255.15478268475965,Vision,NoMovement,0
0.152,0.016677071317307657,0.008589117251446347,84.01008120974518,63.8637573177222,-0.16160065040698954,3.744814281268631,0.0037204947487557575,0.006572483407927947,0.0032142863009164036,0.0031404618964535557,-600.3506412718517,3693.2894780064785,-39.35508485761649,592.105998661771,3443.6117226931974,-255.1465157827526,Vision,NoMovement,0
0.153,0.016677082431088723,0.008589114052594023,84.01008120974518,63.8637573177222,-0.16197703666125335,3.765176141714578,0.0037237226352867326,0.006660525337642795,0.0032069333999293474,0.0031374535991405,-600.3697401912136,3693.3163751540233,-39.383732630146184,592.0933550852156,3443.5884481524836,-255.13840131899187,Vision,NoMovement,0
0.154,0.016677092696091092,0.008589110342507113,84.01008120974518,63.8637573177222,-0.16235354136416047,3.78555250779723,0.003722804287292828,0.006736601549302067,0.003197455046735768,0.0031332863953302524,-600.389797731959,3693.3458424065266,-39.416041581895605,592.0807115086604,3443.5651736117698,-255.13028685523116,Vision,NoMovement,0
0.155,0.01667710211395317,0.00858910608899153,84.01008120974518,63.8637573177222,-0.16273016002182542,3.8059431015507834,0.0037176353829118476,0.006800079442865285,0.003185944085420586,0.0031278879364570636,-600.4098552727045,3693.37530965903,-39.448350533645026,592.0680679321052,3443.541899071056,-255.12217239147043,Vision,NoMovement,0
0.156,0.016677110686193576,0.008589101259104247,84.01008120974518,63.8637573177222,-0.16310688814031787,3.8263476444604807,0.0037081680612591882,0.006850466121301585,0.0031725106251363727,0.0031212150841299475,-600.4299128134498,3693.404776911533,-39.48065948539445,592.05542435555,3443.518624530342,-255.11405792770972,Vision,NoMovement,0
0.157,0.016677118414064468,0.008589095819219895,84.01008120974518,63.8637573177222,-0.1634837212244665,3.8467658575377577,0.0036944148067549897,0.006887414707548628,0.0031572825681485573,0.003113253914838668,-600.4499703541953,3693.434244164036,-39.51296843714386,592.0427807789947,3443.4953499896283,-255.105943463949,Vision,NoMovement,0
0.158,0.016677125298417795,0.008589089735106054,84.01008120974518,63.8637573177222,-0.16386065477830253,3.8671974612228635,0.003676451637114196,0.0069107273317881406,0.003140405919103844,0.0031040187238896245,-600.4700278949407,3693.4637114165394,-39.54527738889328,592.0301372024395,3443.4720754489144,-255.09782900018826,Vision,NoMovement,0
0.159,0.016677131339584914,0.008589082972008246,84.01008120974518,63.8637573177222,-0.1642376843051852,3.887642175463298,0.003654420391911613,0.006920354614450471,0.0031220446938996973,0.0030935501648962247,-600.4900854356862,3693.4931786690427,-39.5775863406427,592.0174936258843,3443.4488009082006,-255.08971453642755,Vision,NoMovement,0
0.16,0.01667713653726907,0.008589075494744322,84.01008120974518,63.8637573177222,-0.16461480530819544,3.9080997197033844,0.0036285298963434,0.006916391562862661,0.003102380245228802,0.0030819126612934935,-600.5101429764316,3693.5226459215455,-39.60989529239212,592.004850049329,3443.4255263674863,-255.08160007266682,Vision,NoMovement,0
0.161,0.016677140890451813,0.008589067267810741,84.01008120974518,63.8637573177222,-0.1649920132890004,3.9285698128910806,0.0035990557923167477,0.0068990700209697895,0.003081609858225787,0.0030691912329320237,-600.530200517177,3693.552113174049,-39.64220424414154,591.9922064727738,3443.4022518267725,-255.07348560890608,Vision,NoMovement,0
0.162,0.016677144397311452,0.008589058255498577,84.01008120974518,63.8637573177222,-0.16536930374989878,3.9490521734702715,0.0035663388797087985,0.0068687481103252785,0.003059944515264796,0.003055487901115184,-600.5502580579224,3693.581580426552,-39.67451319589096,591.9795628962186,3443.3789772860587,-255.06537114514538,Vision,NoMovement,0
0.163,0.016677147055155273,0.008589048422022086,84.01008120974518,63.8637573177222,-0.16574667219262332,3.969546519455995,0.0035307818626660096,0.006825897375118998,0.0030376057805458923,0.0030409178531072153,-600.5703155986679,3693.6110476790554,-39.70682214764037,591.9669193196634,3443.355702745345,-255.05725668138464,Vision,NoMovement,0
0.164,0.016677148860365316,0.00858903773165941,84.01008120974518,63.8637573177222,-0.16612411411879477,3.9900525683370165,0.0034928444198381974,0.006771088486861106,0.0030148218326368063,0.0030256055467504485,-600.5903731394133,3693.6405149315583,-39.739131099389795,591.954275743108,3443.332428204631,-255.04914221762394,Vision,NoMovement,0
0.165,0.016677149808356277,0.008589026148905544,84.01008120974518,63.8637573177222,-0.16650162503031263,4.010570037154483,0.0034530365253727163,0.006704976332694659,0.002991822777423452,0.003009680916975097,-600.6104306801587,3693.6699821840616,-39.771440051139216,591.9416321665528,3443.309153663917,-255.0410277538632,Vision,NoMovement,0
0.166,0.016677149893548085,0.008589013638639337,84.01008120974518,63.8637573177222,-0.1668792004282204,4.031098642490838,0.0034119099784589843,0.006628285152555463,0.0029688354802102053,0.002993275822932551,-600.6304882209041,3693.699449436565,-39.80374900288863,591.9289885899976,3443.2858791232034,-255.03291329010247,Vision,NoMovement,0
0.167,0.016677149109350694,0.008589000166303965,84.01008120974518,63.8637573177222,-0.16725683581474782,4.051638100462246,0.0033700481944655344,0.006541794199463031,0.0029460782253991763,0.002976520853333919,-600.6513374550539,3693.726701002982,-39.83671784506369,591.9163450134423,3443.2626045824895,-255.02479882634177,Vision,NoMovement,0
0.168,0.016677147448162895,0.008588985698102021,84.01008120974518,63.8637573177222,-0.1676345266921115,4.072188126793854,0.00332805447544724,0.006446324249966598,0.0029237555277825127,0.0029595425866469727,-600.6733183159264,3693.7507855232034,-39.87062991808501,591.9037014368871,3443.2393300417757,-255.01668436258103,Vision,NoMovement,0
0.169,0.01667714490138455,0.008588970201205687,84.01008120974518,63.8637573177222,-0.1680122685629551,4.092748436722359,0.0032865391605828376,0.006342725185753343,0.0029020533919747213,0.002942461379688017,-600.6952991767988,3693.774870043425,-39.90454199110633,591.8979193994796,3443.224227261631,-255.01072876320276,Vision,NoMovement,0
0.17,0.01667714145944264,0.008588953643982223,84.01008120974518,63.8637573177222,-0.16839005693047163,4.113318745074815,0.0032461061961613163,0.006231864772743868,0.002881135268905596,0.0029253897313981842,-600.7172800376713,3693.798954563646,-39.93845406412765,591.8928318303429,3443.2099515595382,-255.00499166623072,Vision,NoMovement,0
0.171,0.016677137111830814,0.008588935996235444,84.01008120974518,63.8637573177222,-0.16876788729878997,4.1338987662582785,0.0032073397149875458,0.006114618649776291,0.002861138902692869,0.002908431237118771,-600.7392608985438,3693.8230390838676,-39.97236613714896,591.887744261206,3443.195675857445,-254.99925456925868,Vision,NoMovement,0
0.17200000000000001,0.01667713184716289,0.008588917229463996,84.01008120974518,63.8637573177222,-0.16914575517184122,4.154488214266714,0.0031707911825608177,0.0059918614324819455,0.002842174192995347,0.0028916801111435967,-600.7612417594163,3693.8471236040887,-40.00627821017028,591.8826566920692,3443.181400155352,-254.9935174722866,Vision,NoMovement,0
0.17300000000000001,0.016677125653241233,0.008588897317136544,84.01008120974518,63.8637573177222,-0.16952365605539604,4.175086802673573,0.0031369675869597057,0.005864458790739991,0.0028243221277684596,0.0028752212187044927,-600.7832226202888,3693.87120812431,-40.0401902831916,591.8775691229323,3443.1671244532595,-254.98778037531457,Vision,NoMovement,0
0.17400000000000002,0.016677118517138156,0.008588876234984234,84.01008120974518,63.8637573177222,-0.16990158545586442,4.195694244707062,0.003106321052896123,0.005733260400077079,0.0028076347871464832,0.002859130522283372,-600.8052034811612,3693.8952926445318,-40.07410235621292,591.8724815537954,3443.1528487511664,-254.98204327834253,Vision,NoMovement,0
0.17500000000000002,0.01667711042529297,0.00858885396131098,84.01008120974518,63.8637573177222,-0.1702795388807469,4.216310253152732,0.0030792401494318727,0.005599093738755068,0.0027921363869480137,0.002843475809055106,-600.8271843420338,3693.919377164753,-40.10801442923424,591.8673939846586,3443.1385730490733,-254.97630618137046,Vision,NoMovement,0
0.176,0.01667710136362302,0.008588830477322236,84.01008120974518,63.8637573177222,-0.17065751183901662,4.23693454043242,0.0030560430394100174,0.0054627587419802184,0.0027778253009469876,0.002828317537756544,-600.8491652029063,3693.9434616849744,-40.14192650225555,591.8623064155217,3443.1242973469807,-254.97056908439842,Vision,NoMovement,0
0.177,0.01667709131764982,0.008588805767472176,84.01008120974518,63.8637573177222,-0.17103549983998848,4.257566818593186,0.0030369724968248497,0.005325023295013692,0.0027646769507977402,0.002813709653020573,-600.8711460637787,3693.967546205196,-40.17583857527687,591.857218846385,3443.1100216448876,-254.96483198742638,Vision,NoMovement,0
0.178,0.01667708027264047,0.00858877981982975,84.01008120974518,63.8637573177222,-0.17141349839534997,4.278206799300005,0.003022192717947449,0.005186619488644257,0.002752647374328067,0.0027997002762833066,-600.8931269246513,3693.991630725417,-40.20975064829819,591.8521312772481,3443.0957459427946,-254.95909489045434,Vision,NoMovement,0
0.179,0.0166770682137641,0.008588752626463683,84.01008120974518,63.8637573177222,-0.17179150301796134,4.2988541939110165,0.0030117877865732086,0.005048240551936878,0.0027416772063407714,0.0027863322760894684,-600.9151077855238,3694.0157152456386,-40.24366272131951,591.8470437081112,3443.081470240702,-254.95335779348227,Vision,NoMovement,0
0.18,0.016677055126264204,0.008588724183847124,84.01008120974518,63.8637573177222,-0.17216950922229088,4.319508713380165,0.003005761617941951,0.004910538436185595,0.0027316957698103913,0.0027736437978968216,-600.9370886463962,3694.0397997658597,-40.27757479434083,591.8419561389744,3443.067194538609,-254.94762069651023,Vision,NoMovement,0
0.181,0.016677040995646472,0.008588694493281326,84.01008120974518,63.8637573177222,-0.1725475125245342,4.340170068336217,0.0030040391963173044,0.004774122135321277,0.002722624993275251,0.0027616688486442513,-600.9590695072687,3694.0638842860812,-40.31148686736214,591.8368685698375,3443.052918836516,-254.9418835995382,Vision,NoMovement,0
0.182,0.016677025807882894,0.008588663561338725,84.01008120974518,63.8637573177222,-0.17292550844299187,4.3608379690717065,0.0030064689385153813,0.004639556921294357,0.0027143829277482038,0.002750437980943946,-600.9810503681413,3694.087968806303,-40.34539894038346,591.8317810007007,3443.0386431344227,-254.93614650256612,Vision,NoMovement,0
0.183,0.01667700954963184,0.008588631400326197,84.01008120974518,63.8637573177222,-0.17330349249694013,4.381512125535758,0.0030128260568671795,0.004507364704857906,0.0027068867058723523,0.0027399790422784633,-601.0030312290137,3694.112053326524,-40.37931101340478,591.8266934315639,3443.02436743233,-254.93040940559408,Vision,NoMovement,0
0.184,0.016676992208475228,0.008588598028766534,84.01008120974518,63.8637573177222,-0.17368146020865588,4.402192247409254,0.003022816835405583,0.0043780256777509255,0.0027000548478801245,0.002730317895303017,-601.03114597687,3694.1217096681266,-40.41015370950369,591.8216058624271,3443.010091730237,-254.92467230862204,Vision,NoMovement,0
0.185,0.01667697377317151,0.008588563471900113,84.01008120974518,63.8637573177222,-0.1740594071022155,4.422878044007564,0.003036083742571016,0.004251981265253071,0.002693808870261958,0.0027214790073210506,-601.0595265961495,3694.130740624815,-40.44086336441474,591.8196058067915,3442.9996672645125,-254.91983681396752,Vision,NoMovement,0
0.186,0.01667695423392605,0.008588527762204465,84.01008120974518,63.8637573177222,-0.17443732870394274,4.443569224359613,0.003052211280338949,0.00412963823066231,0.0026880742044216176,0.002713485857041787,-601.0879072154288,3694.139771581504,-40.47157301932579,591.8245943043142,3442.9979600303323,-254.91704208633183,Vision,NoMovement,0
0.187,0.016676933582678778,0.008588490939933146,84.01008120974518,63.8637573177222,-0.17481522054278129,4.464265497196827,0.0030707324405424515,0.0040113735869554005,0.0026827804860248728,0.0027063611930057494,-601.1162878347083,3694.1488025381927,-40.50228267423683,591.8295828018369,3442.996252796152,-254.91424735869614,Vision,NoMovement,0
0.188,0.01667691181340821,0.008588453053672097,84.01008120974518,63.8637573177222,-0.1751930781491683,4.484966570946085,0.003091135637267288,0.0038975398361476405,0.002677861315321791,0.0027001272491080763,-601.1446684539877,3694.1578334948817,-40.53299232914788,591.8345712993596,3442.9945455619713,-254.91145263106046,Vision,NoMovement,0
0.189,0.01667688892245388,0.008588414160913133,84.01008120974518,63.8637573177222,-0.17557089705705317,4.5056721538047935,0.0031128720275840397,0.003788470023305487,0.002673253607466332,0.002694806036774572,-601.1730490732671,3694.1668644515703,-40.56370198405893,591.8395597968822,3442.992838327791,-254.90865790342477,Vision,NoMovement,0
0.19,0.016676864908855147,0.008588374328644581,84.01008120974518,63.8637573177222,-0.17594867280269633,4.526381953643714,0.003135363211462963,0.0036844821746791247,0.0026688966631791544,0.0026904197911546035,-601.2014296925465,3694.175895408259,-40.59441163896998,591.844548294405,3442.9911310936104,-254.90586317578905,Vision,NoMovement,0
0.191,0.01667683977470834,0.00858833363395729,84.01008120974518,63.8637573177222,-0.1763264009251001,4.547095678086053,0.00315800938019379,0.003585882828386106,0.0026647311083465943,0.0026869915827767337,-601.229810311826,3694.184926364948,-40.62512129388103,591.8495367919276,3442.98942385943,-254.90306844815336,Vision,NoMovement,0
0.192,0.016676813525540752,0.008588292164664758,84.01008120974518,63.8637573177222,-0.17670407696612367,4.567813034497224,0.003180198014397971,0.0034929694983237267,0.0026606978703036005,0.002684546043143828,-601.2581909311054,3694.1939573216364,-40.65583094879207,591.8545252894503,3442.98771662525,-254.90027372051767,Vision,NoMovement,0
0.193,0.016676786170702312,0.008588250019937642,84.01008120974518,63.8637573177222,-0.17708169647085178,4.5885337299918145,0.0032013131989039032,0.0034060319839958695,0.0026567373578851748,0.002683110097580957,-601.2865715503848,3694.2029882783254,-40.68654060370312,591.8595137869729,3442.9860093910693,-254.897478992882,Vision,NoMovement,0
0.194,0.01667675772377514,0.008588207310949605,84.01008120974518,63.8637573177222,-0.17745925498647114,4.609257471426689,0.003220745535728209,0.0033253524665728357,0.002652788984033368,0.0026827135543999285,-601.3149521696643,3694.212019235014,-40.71725025861417,591.8645022844956,3442.984302156889,-254.8946842652463,Vision,NoMovement,0
0.195,0.016676728202999043,0.0085881641615338,84.01008120974518,63.8637573177222,-0.17783674806427954,4.629983965475891,0.0032379025334366546,0.0032512043458577085,0.0026487911261546884,0.002683389374959796,-601.3433327889437,3694.2210501917025,-40.74795991352522,591.8694907820183,3442.9825949227084,-254.8918895376106,Vision,NoMovement,0
0.196,0.016676697631715576,0.008588120708848441,84.01008120974518,63.8637573177222,-0.1782141712585015,4.65071291853366,0.0032522192618762284,0.0031838498024273475,0.0026446815766983135,0.0026851734510460034,-601.3717134082231,3694.2300811483915,-40.778669568436264,591.874479279541,3442.980887688528,-254.88909480997492,Vision,NoMovement,0
0.197,0.0166766660388275,0.00858807710404839,84.01008120974518,63.8637573177222,-0.1785915201269822,4.671444036793479,0.0032631689999276297,0.0031235361261507484,0.002640398497782709,0.002688103748823732,-601.4000940275025,3694.23911210508,-40.809379223347314,591.8794677770636,3442.979180454348,-254.88630008233923,Vision,NoMovement,0
0.198,0.016676633459275784,0.008588033512962709,84.01008120974518,63.8637573177222,-0.1789687902300655,4.692177026237028,0.00327027356325978,0.0030704909651487265,0.0026358818535197927,0.002692218747376939,-601.4248966316807,3694.235968624035,-40.83122802954074,591.8844562745863,3442.977473220167,-254.88350535470354,Vision,NoMovement,0
0.199,0.016676599934531147,0.008587990116773086,84.01008120974518,63.8637573177222,-0.1793459771325974,4.712911592627399,0.003273112977770769,0.0030249167894615355,0.002631075250006497,0.002697555193621946,-601.4469098839957,3694.2233341851224,-40.846169088231385,591.889444772109,3442.975765985987,-254.88071062706783,Vision,NoMovement,0
0.2,0.016676565513102246,0.008587947112693478,84.01008120974518,63.8637573177222,-0.1797230764027271,4.733647441583832,0.0032713341702663,0.0029869849717629143,0.0026259280790967457,0.002704145285054374,-601.4689231363107,3694.21069974621,-40.86111014692203,591.8944332696317,3442.9740587518063,-254.87791589943214,Vision,NoMovement,0
0.201,0.01667653025105795,0.008587904714645217,84.01008120974518,63.8637573177222,-0.18010008361233176,4.754384278484888,0.003264658390787414,0.0029568299062817235,0.0026203978577037565,0.002712013458390384,-601.4909363886255,3694.1980653072974,-40.876051205612676,591.8994217671543,3442.972351517626,-254.87512117179645,Vision,NoMovement,0
0.202,0.016676494212563498,0.008587863153927098,84.01008120974518,63.8637573177222,-0.180476994337128,4.775121808547462,0.0032528871494974343,0.002934543529494633,0.002614452678061807,0.0027211730077271743,-601.5129496409405,3694.1854308683846,-40.89099226430333,591.9086674747097,3442.975318603301,-254.8732717987342,Vision,NoMovement,0
0.203,0.016676457470429992,0.008587822679875573,84.01008120974518,63.8637573177222,-0.18085380415703237,4.795859736814841,0.003235906513507199,0.002920170507464389,0.0026080737044361915,0.0027316227765695764,-601.5349628932554,3694.1727964294723,-40.905933322993974,591.9196967063084,3442.9802439578384,-254.87181847439834,Vision,NoMovement,0
0.20400000000000001,0.016676420106675943,0.008587783560511552,84.01008120974518,63.8637573177222,-0.1812305086550432,4.8165977681364325,0.0032136896336542094,0.00291370424854292,0.0026012576374003244,0.0027433441537283634,-601.5569761455704,3694.1601619905596,-40.92087438168462,591.9307259379071,3442.9851693123755,-254.87036515006247,Vision,NoMovement,0
0.20500000000000002,0.01667638221309958,0.008587746083170806,84.01008120974518,63.8637573177222,-0.18160710341923417,4.837335607323477,0.00318629736367882,0.0029150837995464128,0.0025940190238331407,0.002756298563423834,-601.5789893978853,3694.147527551647,-40.935815440375265,591.9417551695059,3442.990094666913,-254.8689118257266,Vision,NoMovement,0
0.20600000000000002,0.016676343891860894,0.008587710555112767,84.01008120974518,63.8637573177222,-0.1819835840415565,4.858072958881339,0.003153876850381337,0.0029241916015399112,0.0025863922500294284,0.0027704256002516955,-601.6010026502003,3694.1348931127345,-40.95075649906591,591.9527844011047,3442.9950200214507,-254.86745850139073,Vision,NoMovement,0
0.20700000000000002,0.01667630525607234,0.008587677304103654,84.01008120974518,63.8637573177222,-0.18235994611827636,4.87880952726388,0.0031166580684651437,0.002940852041585882,0.002578433037902187,0.0027856419251238566,-601.6230159025152,3694.1222586738218,-40.965697557756556,591.9638136327035,3442.9999453759883,-254.86600517705483,Vision,NoMovement,0
0.20800000000000002,0.01667626643039499,0.008587646678969593,84.01008120974518,63.8637573177222,-0.18273618525032967,4.899545016773358,0.003074948443528373,0.0029648307570980495,0.0025702192730239935,0.0028018409852973,-601.6450291548301,3694.109624234909,-40.9806386164472,591.9748428643022,3443.0048707305255,-254.86455185271896,Vision,NoMovement,0
0.209,0.016676227551641245,0.008587619050113932,84.01008120974518,63.8637573177222,-0.18311229704220836,4.920279131571852,0.003029125870955052,0.0029958347063131167,0.002561851016627008,0.0028188935514852935,-601.6670424071451,3694.0969897959967,-40.99557967513785,591.985872095901,3443.009796085063,-254.8630985283831,Vision,NoMovement,0
0.21,0.01667618876937899,0.008587594809993182,84.01008120974518,63.8637573177222,-0.1834882771039442,4.941011575755569,0.002979630515193823,0.0030335130629675017,0.002553449589729388,0.0028366489991833266,-601.68905565946,3694.084355357084,-41.0105207338285,591.9969013274998,3443.0147214396006,-254.86164520404722,Vision,NoMovement,0
0.211,0.01667615024653729,0.008587574373547171,84.01008120974518,63.8637573177222,-0.18386412104991345,4.961742053258469,0.0029269557528329147,0.0030774589896010404,0.0025451556707985854,0.0028549372207335964,-601.711068911775,3694.071720918171,-41.025461792519145,592.0079305590986,3443.019646794138,-254.86019187971135,Vision,NoMovement,0
0.212,0.016676112160010685,0.00858755817857517,84.01008120974518,63.8637573177222,-0.1842398244992546,4.98247026793104,0.0028716385495248763,0.0031272122966366,0.002537126420595133,0.0028735710390351086,-601.73308216409,3694.059086479259,-41.04040285120979,592.0189597906973,3443.0245721486754,-254.85873855537548,Vision,NoMovement,0
0.213,0.01667607470125855,0.008587546686053675,84.01008120974518,63.8637573177222,-0.1846153830759759,5.003195923530168,0.00281424949935097,0.0031822629267810095,0.0025295317266625784,0.0028923489963176563,-601.7550954164049,3694.046452040346,-41.05534390990044,592.029989022296,3443.029497503213,-254.8572852310396,Vision,NoMovement,0
0.214,0.016676038076898637,0.008587540380387457,84.01008120974518,63.8637573177222,-0.18499079240930522,5.023918723726012,0.002755382733454169,0.0032420551498327605,0.002522549723813231,0.0029110584162713444,-601.7763175633904,3694.032511813451,-41.06949716264784,592.0410182538949,3443.0344228577505,-254.85583190670374,Vision,NoMovement,0
0.215,0.01667600250929013,0.008587539769587356,84.01008120974518,63.8637573177222,-0.18536604813258045,5.044638372095604,0.0026956459195747705,0.0033059923245683056,0.0025163617858831046,0.0029294786809698965,-601.7910567922404,3694.007870967715,-41.07719453493726,592.0520474854936,3443.039348212288,-254.85437858236787,Vision,NoMovement,0
0.216,0.01667596823710397,0.008587545385367263,84.01008120974518,63.8637573177222,-0.1857411458852223,5.065354572196816,0.0026356505968969856,0.003373442073504701,0.002511147199239325,0.002947384703124161,-601.8057960210905,3693.9832301219794,-41.084891907226684,592.0630767170924,3443.0442735668253,-254.85292525803197,Vision,NoMovement,0
0.217,0.016675935515876452,0.008587557783152224,84.01008120974518,63.8637573177222,-0.18611608131154103,5.086067027472315,0.0025760030985537206,0.003443741706962284,0.002507077728092913,0.002964550577248309,-601.8205352499405,3693.958589276244,-41.092589279516105,592.0741059486911,3443.049198921363,-254.8514719336961,Vision,NoMovement,0
0.218,0.016675904618542826,0.008587577541989652,84.01008120974518,63.8637573177222,-0.186490850061167,5.106775441328148,0.002517296284441217,0.00351620373666139,0.0025043122786492923,0.002980753354356482,-601.8352744787906,3693.9339484305083,-41.100286651805526,592.0850553223838,3443.0540456980916,-254.8499990960882,Vision,NoMovement,0
0.219,0.016675875835946437,0.008587605264354354,84.01008120974518,63.8637573177222,-0.1868654477893958,5.127479517122679,0.0024601022391616055,0.0035901213441380795,0.0025029918731932156,0.002995776834449511,-601.8500137076406,3693.9093075847727,-41.10798402409495,592.0953098390693,3443.058208756155,-254.8483564702343,Vision,NoMovement,0
0.22,0.01667584947731953,0.008587641575838875,84.01008120974518,63.8637573177222,-0.187239870156083,5.148178958160265,0.00240496598729497,0.003664773724445806,0.002503235148424926,0.003009415254045097,-601.8647529364906,3693.8846667390367,-41.115681396384375,592.1055643557547,3443.0623718142187,-254.8467138443804,Vision,NoMovement,0
0.221,0.016675825870731086,0.008587687124720347,84.01008120974518,63.8637573177222,-0.18761411282760646,5.168873467764943,0.0023524001670046295,0.0037394312891374875,0.0025051345812149624,0.003021476766953979,-601.8794921653407,3693.860025893301,-41.123378768673795,592.1158188724401,3443.0665348722823,-254.8450712185265,Vision,NoMovement,0
0.222,0.016675805363496537,0.008587742581392369,84.01008120974518,63.8637573177222,-0.18798817147567543,5.18956274918468,0.002302880524052194,0.003813360738218868,0.002508753613008771,0.0030317866411399353,-601.8942313941908,3693.8353850475655,-41.131076140963216,592.1260733891255,3443.070697930346,-254.8434285926726,Vision,NoMovement,0
0.223,0.01667578832254514,0.008587808637653575,84.01008120974518,63.8637573177222,-0.18836204177774132,5.210246505669754,0.00225684206410019,0.003885829988021497,0.002514124792613933,0.0030401900967003946,-601.9089706230408,3693.81074420183,-41.13877351325264,592.136327905811,3443.0748609884095,-254.8417859668187,Vision,NoMovement,0
0.224,0.016675775134738495,0.008587886005841264,84.01008120974518,63.8637573177222,-0.18873571941710157,5.230924440462645,0.0022146757325821414,0.003956112899202598,0.0025212489916475542,0.003046554699927554,-601.9237098518909,3693.786103356094,-41.14647088554206,592.1465824224964,3443.079024046473,-254.8401433409648,Vision,NoMovement,0
0.225,0.01667576620713493,0.008587975417800691,84.01008120974518,63.8637573177222,-0.1891092000832378,5.251596256804853,0.00217672553798693,0.004023493757972804,0.002530095677056698,0.0030507722325429257,-601.938449080741,3693.7614625103583,-41.15416825783148,592.1568369391817,3443.0831871045366,-254.83850071511088,Vision,NoMovement,0
0.226,0.01667576196719395,0.008588077623676426,84.01008120974518,63.8637573177222,-0.18948247947071684,5.272261657930701,0.002143286066695437,0.004087271559238436,0.002540604160603857,0.0030527599764575753,-601.9531883095909,3693.7368216646228,-41.1618656301209,592.1670914558672,3443.0873501626,-254.836858089257,Vision,NoMovement,0
0.227,0.01667576286291482,0.008588193390517612,84.01008120974518,63.8637573177222,-0.1898555532811403,5.292920347140613,0.0021146003551588046,0.004146764295388743,0.0025526856975686186,0.0030524613811638884,-601.967927538441,3693.712180818887,-41.16956300241032,592.1773459725526,3443.0915132206637,-254.83521546340307,Vision,NoMovement,0
0.228,0.01667576936290065,0.008588323500682725,84.01008120974518,63.8637573177222,-0.1902284172219566,5.313572027705764,0.002090858106334366,0.004201313587233088,0.0025662262854990753,0.0030498461112111476,-601.982666767291,3693.6875399731516,-41.17726037469974,592.1876004892381,3443.0956762787273,-254.83357283754918,Vision,NoMovement,0
0.229,0.016675781956343793,0.008588468750033487,84.01008120974518,63.8637573177222,-0.19060106700688514,5.334216402946183,0.002072194258569218,0.004250290043668472,0.0025810900125477865,0.0030449095095996964,-601.9974059961411,3693.6628991274156,-41.18495774698917,592.1978550059234,3443.099839336791,-254.83193021169527,Vision,NoMovement,0
0.23,0.016675801152923247,0.00858862994590478,84.01008120974518,63.8637573177222,-0.19097349835625052,5.354853176219687,0.0020586879299993627,0.0042930996756994685,0.0025971228000784678,0.0030376715494234317,-602.0121452249912,3693.63825828168,-41.19265511927859,592.2081095226089,3443.1040023948544,-254.83028758584138,Vision,NoMovement,0
0.231,0.01667582748260659,0.00858880790483879,84.01008120974518,63.8637573177222,-0.19134570699588732,5.375482050915783,0.00205036176956383,0.0043291915421397155,0.0026141563648835026,0.003028175370091173,-602.0268844538411,3693.6136174359444,-41.20035249156801,592.2183640392943,3443.108165452918,-254.82864495998746,Vision,NoMovement,0
0.232,0.01667586149535,0.008589003450070668,84.01008120974518,63.8637573177222,-0.1917176886590784,5.39610273052858,0.0020471817619620394,0.00435806661012322,0.0026320122056443236,0.0030164855152127966,-602.0416236826912,3693.588976590209,-41.20804986385743,592.2286185559797,3443.1123285109816,-254.82700233413357,Vision,NoMovement,0
0.233,0.016675903760685805,0.00858921740875301,84.01008120974518,63.8637573177222,-0.19208943908537085,5.416714918561806,0.0020490575664595632,0.004379287620302678,0.0026505054195474997,0.003002686013482902,-602.0584251666259,3693.5619137967387,-41.21862291810831,592.2388730726651,3443.116491569045,-254.82535970827965,Vision,NoMovement,0
0.234,0.016675954867191548,0.00858945060890578,84.01008120974518,63.8637573177222,-0.19246095402097851,5.4373183186066365,0.002055843507708894,0.004392489596316994,0.0026694481863178323,0.002986878451319101,-602.0766075785887,3693.533229217713,-41.23112158759982,592.2491275893506,3443.1206546271087,-254.82371708242576,Vision,NoMovement,0
0.23500000000000001,0.01667601542182946,0.008589703876079735,84.01008120974518,63.8637573177222,-0.1928322292188816,5.45791263432962,0.0020673403574615018,0.0043973905431646315,0.002688652801687898,0.0029691801636380142,-602.0947899905515,3693.504544638687,-41.24362025709134,592.2570381552365,3443.1233693612066,-254.82194849427918,Vision,NoMovement,0
0.23600000000000002,0.01667608604914823,0.008589978029719688,84.01008120974518,63.8637573177222,-0.19320326043915426,5.478497569453993,0.0020832980278687276,0.004393801831987387,0.0027079341844812085,0.0029497226349019406,-602.1129724025143,3693.475860059661,-41.25611892658284,592.2626179559477,3443.124643918719,-254.8200546524263,Vision,NoMovement,0
0.23700000000000002,0.016676167390337764,0.008590273879215383,84.01008120974518,63.8637573177222,-0.193574043447877,5.499072827910685,0.0021034192418219358,0.004381637734199696,0.0027271118178143843,0.0029286501766681043,-602.1311548144772,3693.447175480635,-41.26861759607436,592.268197756659,3443.1259184762316,-254.8181608105734,Vision,NoMovement,0
0.23800000000000002,0.016676260102126743,0.008590592219626115,84.01008120974518,63.8637573177222,-0.1939445740190594,5.5196381135767,0.0021273641707086205,0.004360923523415608,0.00274601112409624,0.0029061189198081516,-602.14933722644,3693.4184909016094,-41.28111626556587,592.2737775573702,3443.127193033744,-254.81626696872053,Vision,NoMovement,0
0.23900000000000002,0.016676364855513014,0.00859093382706846,84.01008120974518,63.8637573177222,-0.1943148479334608,5.540193130524694,0.002154755948299324,0.004331801546511213,0.00276446432210368,0.0028822961101860646,-602.1675196384028,3693.3898063225834,-41.29361493505738,592.2793573580815,3443.128467591256,-254.81437312686765,Vision,NoMovement,0
0.24,0.01667648233431742,0.008591299453752234,84.01008120974518,63.8637573177222,-0.1946848609790068,5.56073758292437,0.0021851868919171564,0.004294534749275851,0.002782310861832468,0.0028573596465840925,-602.1857020503656,3693.3611217435573,-41.30611360454889,592.2849371587927,3443.1297421487684,-254.81247928501475,Vision,NoMovement,0
0.241,0.016676613233548784,0.008591689822654774,84.01008120974518,63.8637573177222,-0.19505460895111237,5.5812711750542805,0.0022182251957953416,0.004249507342404281,0.002799397579453135,0.002831497769072323,-602.2038844623285,3693.3324371645313,-41.318612274040404,592.290516959504,3443.1310167062807,-254.81058544316187,Vision,NoMovement,0
0.242,0.016676758257571412,0.008592105621820762,84.01008120974518,63.8637573177222,-0.19542408765159935,5.601793611373913,0.002253421823249692,0.004197222520326818,0.002815578746777668,0.002804908797930583,-602.2220668742914,3693.3037525855057,-41.33111094353192,592.2960967602152,3443.1322912637934,-254.808691601309,Vision,NoMovement,0
0.243,0.01667691811806321,0.008592547498276053,84.01008120974518,63.8637573177222,-0.1957932928906071,5.622304596429516,0.002290317334566749,0.004138297294846641,0.002830716187943008,0.0027778008144027943,-602.2402492862542,3693.2750680064796,-41.343609613023425,592.3016765609265,3443.1335658213056,-254.8067977594561,Vision,NoMovement,0
0.244,0.016677093531753603,0.008593016051546335,84.01008120974518,63.8637573177222,-0.19616222048541665,5.642803834931304,0.002328448448440382,0.004073454571006336,0.0028446795845442903,0.002750391159203735,-602.258431698217,3693.2463834274536,-41.35610828251494,592.3072563616377,3443.134840378818,-254.8049039176032,Vision,NoMovement,0
0.245,0.01667728521793021,0.008593511826768013,84.01008120974518,63.8637573177222,-0.1965308662608458,5.6632910317434115,0.002367354220956848,0.004003512635444131,0.0028573470063850757,0.0027229056154104833,-602.2766141101798,3693.2176988484275,-41.36860695200645,592.312836162349,3443.13611493633,-254.80301007575034,Vision,NoMovement,0
0.246,0.016677493895702618,0.008594035307384933,84.01008120974518,63.8637573177222,-0.19689922604934412,5.683765891890449,0.0024065817904553575,0.003929372301805255,0.0028686056377889113,0.0026955771451159134,-602.2947965221426,3693.189014269402,-41.381105621497966,592.3184159630601,3443.1373894938424,-254.80111623389743,Vision,NoMovement,0
0.247,0.01667772028101398,0.008594586907420003,84.01008120974518,63.8637573177222,-0.19726729569130946,5.704228120551702,0.002445691664212544,0.0038520020466753764,0.0028783526506909176,0.0026686440783848095,-602.3129789341056,3693.160329690376,-41.39360429098947,592.3239957637714,3443.138664051355,-254.79922239204456,Vision,NoMovement,0
0.248,0.016677965083386027,0.008595166963315547,84.01008120974518,63.8637573177222,-0.1976350710340129,5.724677423132669,0.0024842625346086595,0.0037724215371525214,0.0028864961949474754,0.0026423477161069656,-602.3311613460684,3693.13164511135,-41.406102960480986,592.3295755644826,3443.1399386088674,-254.79732855019168,Vision,NoMovement,0
0.249,0.01667822900238915,0.008595775725335987,84.01008120974518,63.8637573177222,-0.1980025479334936,5.745113505171437,0.002521895640099751,0.003691683985936661,0.0028929564970123687,0.0026169293863893602,-602.3492278436552,3693.106039196501,-41.41851623471323,592.3351553651939,3443.1412131663797,-254.79543470833877,Vision,NoMovement,0
0.25,0.016678512723825617,0.008596413348526236,84.01008120974518,63.8637573177222,-0.19836972225338895,5.765536072415431,0.0025582187335793827,0.003610857795195817,0.0028976670560751636,0.002592627052112401,-602.3666150473125,3693.0984752015443,-41.43042906643591,592.3407351659051,3443.142487723892,-254.7935408664859,Vision,NoMovement,0
0.251,0.016678816915614007,0.008597079883224414,84.01008120974518,63.8637573177222,-0.19873658986534326,5.785944830810338,0.002592889772560336,0.003531007963622497,0.0029005758992874334,0.00256967159711868,-602.3840022509697,3693.090911206587,-41.4423418981586,592.3463149666164,3443.143762281404,-254.79164702463302,Vision,NoMovement,0
0.252,0.016679142223366097,0.008597775265123474,84.01008120974518,63.8637573177222,-0.19910314664931947,5.806339486494391,0.0026256004699512685,0.0034531777219400897,0.0029016468205827453,0.00254828292666776,-602.4013894546271,3693.08334721163,-41.454254729881285,592.3486932516693,3443.143814541098,-254.78972420817507,Vision,NoMovement,0
0.253,0.016679489265643905,0.008598499304883737,84.01008120974518,63.8637573177222,-0.19946938849253018,5.826719745869419,0.002656079822374402,0.0033783708177014924,0.002900860505577452,0.002528666015105578,-602.4187766582844,3693.0757832166732,-41.46616756160397,592.3507147857893,3443.143730597838,-254.78779816302222,Vision,NoMovement,0
0.254,0.016679858628888353,0.008599251677295569,84.01008120974518,63.8637573177222,-0.19983531129131918,5.847085315507711,0.002684097666751712,0.0033075348075255018,0.0028982154587370783,0.002511007029631572,-602.4361638619417,3693.068219221716,-41.47808039332666,592.3527363199094,3443.1436466545783,-254.78587211786933,Vision,NoMovement,0
0.255,0.01668025086200866,0.008600031909995821,84.01008120974518,63.8637573177222,-0.20020091094999598,5.867435902228357,0.002709468230998139,0.003241545653253762,0.002893728690350244,0.0024954696629475386,-602.453551065599,3693.060655226759,-41.48999322504934,592.3547578540293,3443.1435627113187,-254.78394607271647,Vision,NoMovement,0
0.256,0.01668066647062471,0.008600839371743406,84.01008120974518,63.8637573177222,-0.2005661833812415,5.887771213087244,0.002732053572306162,0.003181193855446008,0.0028874361558762184,0.002482191819647735,-602.4709382692563,3693.0530912318022,-41.50190605677202,592.3567793881493,3443.1434787680587,-254.7820200275636,Vision,NoMovement,0
0.257,0.01668110591095251,0.008601673260260774,84.01008120974518,63.8637573177222,-0.20093112450641412,5.9080909553834156,0.0027517667395340665,0.0031271723124514975,0.0028793929440128416,0.002471282806727615,-602.4883254729136,3693.0455272368454,-41.51381888849471,592.3588009222694,3443.143394824799,-254.78009398241073,Vision,NoMovement,0
0.258,0.01668156958332554,0.008602532589651274,84.01008120974518,63.8637573177222,-0.20129573025448766,5.928394836653476,0.0027685744517552645,0.0030800660656460604,0.0028696731934383735,0.002462821170514789,-602.505712676571,3693.037963241888,-41.525731720217394,592.3608224563894,3443.1433108815395,-254.77816793725785,Vision,NoMovement,0
0.259,0.01668205782534499,0.008603416177405818,84.01008120974518,63.8637573177222,-0.20165999656391906,5.948682564742006,0.002782499060561165,0.003040344062779088,0.0028583697142469246,0.002456853298783422,-602.5230998802282,3693.030399246931,-41.537644551940076,592.3628439905094,3443.1432269382794,-254.776241892105,Vision,NoMovement,0
0.26,0.016682570904652565,0.008604322631013043,84.01008120974518,63.8637573177222,-0.20202391938148792,5.968953847709051,0.002793619577330757,0.003008353025300261,0.0028455933164034564,0.002453392870878045,-602.5404870838855,3693.0228352519744,-41.549557383662766,592.3648655246295,3443.14314299502,-254.7743158469521,Vision,NoMovement,0
0.261,0.016683109011320297,0.008605250334191742,84.01008120974518,63.8637573177222,-0.2023874946626982,5.989208393905945,0.002802071605340368,0.002984313445815615,0.002831471888062941,0.002452421198514503,-602.5578742875429,3693.015271257017,-41.56147021538545,592.3668870587495,3443.1430590517602,-254.77238980179925,Vision,NoMovement,0
0.262,0.01668367224985364,0.008606197432768086,84.01008120974518,63.8637573177222,-0.20275071837207978,6.009445911964205,0.0028080460988029136,0.0029683176961165787,0.0028161492913773988,0.002453888466095192,-602.5752614912001,3693.00770726206,-41.57338304710813,592.3689085928695,3443.1429751085,-254.77046375664636,Vision,NoMovement,0
0.263,0.016684260630804734,0.008607161820222116,84.01008120974518,63.8637573177222,-0.20311358648213332,6.029666110790011,0.0028117869507415854,0.00296033020142224,0.002799784135441353,0.002457715851518818,-602.5926486948574,3693.0001432671033,-41.58529587883082,592.3709301269896,3443.1428911652406,-254.7685377114935,Vision,NoMovement,0
0.264,0.01668487406199413,0.008608141122932303,84.01008120974518,63.8637573177222,-0.20347609497518301,6.049868699634088,0.0028135874739868842,0.0029601896273790595,0.002782548454468533,0.002463798479496997,-602.6100358985148,3692.992579272146,-41.5972087105535,592.3729516611096,3443.142807221981,-254.76661166634065,Vision,NoMovement,0
0.265,0.01668551233934077,0.008609132685151578,84.01008120974518,63.8637573177222,-0.20383823984222238,6.070053387999719,0.0028137858816645114,0.0029676130192787644,0.002764626280787557,0.002472009126113422,-602.6274231021721,3692.985015277189,-41.60912154227619,592.3749731952296,3443.142723278721,-254.76468562118777,Vision,NoMovement,0
0.266,0.016686175137302542,0.008610133553751901,84.01008120974518,63.8637573177222,-0.20420001708329197,6.090219885718115,0.0028127598960816353,0.0029822018186719495,0.00274621206971647,0.002482202567333396,-602.6448103058293,3692.9774512822323,-41.621034373998874,592.3769947293497,3443.1426393354614,-254.7627595760349,Vision,NoMovement,0
0.267,0.016686861998929263,0.008611140462777894,84.01008120974518,63.8637573177222,-0.20456142270756664,6.110367902936186,0.0028109206252214442,0.0030034496644125103,0.0027275089235986216,0.002494220461552384,-602.6621975094866,3692.9698872872755,-41.63294720572156,592.3790162634697,3443.1425553922018,-254.76083353088202,Vision,NoMovement,0
0.268,0.01668757232553355,0.008612149817856995,84.01008120974518,63.8637573177222,-0.2049224527336507,6.130497150099513,0.0028087058605751228,0.0030307518666231764,0.0027087265807664374,0.0025078966734809836,-602.679584713144,3692.962323292318,-41.644860037444246,592.3810563793763,3443.1421294605257,-254.75870615120118,Vision,NoMovement,0
0.269,0.01668830536598822,0.00861315768051576,84.01008120974518,63.8637573177222,-0.2052831031885311,6.150607338096342,0.0028065729724979743,0.00306341642416473,0.002690079168836341,0.0025230629510440226,-602.6969719168013,3692.9547592973613,-41.65677286916693,592.3831402538037,3443.140898175334,-254.75610464590034,Vision,NoMovement,0
0.27,0.016689060205657327,0.008614159752459176,84.01008120974518,63.8637573177222,-0.20564337010941364,6.170698178005603,0.002804991591096278,0.003100676435963233,0.0026717827486717927,0.0025395548327869694,-602.7143591204585,3692.9471953024045,-41.66868570088961,592.3852241282312,3443.1396668901425,-254.75350314059952,Vision,NoMovement,0
0.271,0.016689835754973778,0.008615151359874382,84.01008120974518,63.8637573177222,-0.2060032495425744,6.190769381337935,0.0028044362476876785,0.003141703723070176,0.002654052686344778,0.002557217605214391,-602.7317463241159,3692.939631307447,-41.6805985326123,592.3873080026586,3443.1384356049507,-254.75090163529867,Vision,NoMovement,0
0.272,0.016690630737678264,0.008616127437824908,84.01008120974518,63.8637573177222,-0.20636273754375425,6.210820659939822,0.0028053791243901694,0.0031856234263863996,0.002637100900989065,0.0025759120722820593,-602.7491335277732,3692.9320673124903,-41.69251136433498,592.389391877086,3443.1372043197593,-254.74830012999786,Vision,NoMovement,0
0.273,0.0166914436787351,0.008617082514810078,84.01008120974518,63.8637573177222,-0.20672183017844778,6.230851726005402,0.002808283031467924,0.003231529274482004,0.00262113305053735,0.0025955198619050553,-602.7665207314305,3692.9245033175334,-41.704424196057666,592.3914757515134,3443.1359730345675,-254.74569862469704,Vision,NoMovement,0
0.274,0.016692272891946466,0.00861801069756662,84.01008120974518,63.8637573177222,-0.20708052352086476,6.250862292145156,0.0028135947017991934,0.0032784991425909176,0.002606345737219265,0.002615947976576405,-602.7839079350878,3692.9169393225766,-41.716337027780355,592.3935596259408,3443.1347417493757,-254.7430971193962,Vision,NoMovement,0
0.275,0.01669311646728649,0.008618905656199022,84.01008120974518,63.8637573177222,-0.20743881365575048,6.270852071295111,0.0028217384581124606,0.0033256104632723,0.0025929238283089657,0.002637132304215846,-602.8012951387451,3692.9093753276193,-41.72824985950304,592.3956435003682,3443.1335104641844,-254.74049561409538,Vision,NoMovement,0
0.276,0.016693972257983424,0.008619760609730263,84.01008120974518,63.8637573177222,-0.20779669667724454,6.2908207767911675,0.002833110281086191,0.0033719550096301012,0.0025810379867994304,0.0026590398471213975,-602.8242104296032,3692.908160622619,-41.7421207422476,592.3977273747956,3443.1322791789926,-254.73789410879453,Vision,NoMovement,0
0.277,0.01669483786737736,0.008620568312171544,84.01008120974518,63.8637573177222,-0.2081541686892494,6.310768122359133,0.0028480722899146297,0.003416652566973442,0.002570842492071068,0.0026816694938234698,-602.8551018277124,3692.9161068833964,-41.758816765838546,592.3998112492231,3443.131047893801,-254.73529260349372,Vision,NoMovement,0
0.278,0.01669571063558913,0.00862132103921621,84.01008120974518,63.8637573177222,-0.2085112258055145,6.330693822120664,0.002866947631553235,0.003458863048502144,0.0025624734050151694,0.002705051234650372,-602.8859932258215,3692.9240531441737,-41.77551278942949,592.4018951236505,3443.1298166086094,-254.7326910981929,Vision,NoMovement,0
0.279,0.016696587626036426,0.00862201057567242,84.01008120974518,63.8637573177222,-0.2088678641499194,6.350597590587999,0.002890015753139974,0.0034977967233306467,0.002556047101197979,0.0027292437883913506,-602.9168846239306,3692.931999404951,-41.792208813020444,592.403978998078,3443.1285853234176,-254.73008959289206,Vision,NoMovement,0
0.28,0.016697465611839584,0.008622628203752463,84.01008120974518,63.8637573177222,-0.2092240798554447,6.37047914273189,0.0029175080074148544,0.0035327224214871424,0.0025516591649393312,0.002754330664700637,-602.9477760220396,3692.9399456657284,-41.80890483661139,592.4060628725053,3443.1273540382263,-254.72748808759124,Vision,NoMovement,0
0.281,0.01669834106216119,0.00862316469234973,84.01008120974518,63.8637573177222,-0.20957986906597365,6.390338193891551,0.0029496035237316378,0.003562973822267433,0.002549383615722647,0.0027804147461034517,-602.9786674201488,3692.9478919265057,-41.825600860202336,592.4081467469327,3443.1261227530345,-254.7248865822904,Vision,NoMovement,0
0.28200000000000003,0.016699210128532527,0.008623610287436557,84.01008120974518,63.8637573177222,-0.2099352279351581,6.410174459848328,0.002986425283978997,0.003587954134977173,0.00254927243169016,0.0028076115465620055,-603.0095588182579,3692.9558381872826,-41.84229688379328,592.4102306213601,3443.124891467843,-254.72228507698958,Vision,NoMovement,0
0.28300000000000003,0.016700068631219003,0.008623954703728431,84.01008120974518,63.8637573177222,-0.2102901526268043,6.4299876568145775,0.0030280363970773276,0.003607139588385993,0.002551355342503252,0.002836041388165694,-603.040450216367,3692.96378444806,-41.85899290738423,592.4123144957875,3443.1236601826513,-254.71968357168873,Vision,NoMovement,0
0.28400000000000003,0.016700912045686835,0.008624187117766701,84.01008120974518,63.8637573177222,-0.2106446393151508,6.449777501428462,0.003074436658125161,0.0036200821495619494,0.0025556398782705606,0.0028658208169977852,-603.0713416144762,3692.971730708837,-41.87568893097517,592.414398370215,3443.12242889746,-254.71708206638792,Vision,NoMovement,0
0.28500000000000003,0.01670173548923468,0.008624296162578541,84.01008120974518,63.8637573177222,-0.21099868418384787,6.469543710821228,0.0031255595654455575,0.003626411819660423,0.0025621116706747095,0.002897053618521201,-603.1022330125853,3692.9796769696145,-41.892384954566126,592.4164822446425,3443.121197612268,-254.7144805610871,Vision,NoMovement,0
0.28600000000000003,0.0167025337078621,0.008624269924084866,84.01008120974518,63.8637573177222,-0.21135228342774265,6.489286002527813,0.003181270010686896,0.0036258387241671452,0.002570734996106176,0.0029298217806756877,-603.1331244106943,3692.987623230392,-41.90908097815707,592.4185661190699,3443.1199663270763,-254.71187905578626,Vision,NoMovement,0
0.28700000000000003,0.016703301063449076,0.008624095939431869,84.01008120974518,63.8637573177222,-0.2117054332517528,6.509004094559924,0.003241362850598873,0.0036181550539808927,0.0025814535334153744,0.00296417672446435,-603.1640158088035,3692.995569491169,-41.92577700174802,592.4223364495025,3443.116734266483,-254.70767301298696,Vision,NoMovement,0
0.28800000000000003,0.016704031521330785,0.008623761197432675,84.01008120974518,63.8637573177222,-0.21205812987122724,6.528697705394908,0.0033055625438278458,0.0036032367631676407,0.0025941912932595716,0.0030001311141490436,-603.1949072069126,3693.0035157519465,-41.94247302533896,592.4271351975267,3443.112282113214,-254.70248850731377,Vision,NoMovement,0
0.289,0.01670471863835413,0.008623252141312867,84.01008120974518,63.8637573177222,-0.212410369512025,6.548366553970622,0.0033735240069620743,0.003581044832529186,0.0026088536672059246,0.003037651573824177,-603.2257986050217,3693.0114620127238,-41.95916904892991,592.4319339455508,3443.1078299599453,-254.6973040016406,Vision,NoMovement,0
0.29,0.01670535555150993,0.008622554673963124,84.01008120974518,63.8637573177222,-0.212762148410788,6.568010359752021,0.0034448348274122896,0.003551625890631948,0.002625328543475506,0.0030766526402409107,-603.2566900031309,3693.019408273501,-41.975865072520854,592.436732693575,3443.1033778066762,-254.6921194959674,Vision,NoMovement,0
0.291,0.01670593496724211,0.008621654165909737,84.01008120974518,63.8637573177222,-0.21311346281393023,6.587628842642455,0.00351901897165866,0.0035151120366514895,0.002643487450733576,0.0031169922566132587,-603.28758140124,3693.0273545342784,-41.9925610961118,592.4415314415991,3443.098925653407,-254.68693499029422,Vision,NoMovement,0
0.292,0.01670644915154044,0.00862053546622343,84.01008120974518,63.8637573177222,-0.21346430897940322,6.607221723056127,0.003595542130758707,0.003471719791895004,0.0026631867265662617,0.003158469066953386,-603.318472799349,3693.0353007950557,-42.009257119702745,592.4463301896233,3443.094473500138,-254.68175048462103,Vision,NoMovement,0
0.293,0.016706889920930505,0.008619182916592933,84.01008120974518,63.8637573177222,-0.21381468317557858,6.626788721906966,0.0036738188102204148,0.0034217481680885245,0.0026842687477929106,0.003200821701709189,-603.3493641974582,3693.043247055833,-42.0259531432937,592.4511289376474,3443.0900213468694,-254.67656597894785,Vision,NoMovement,0
0.294,0.016707248634481243,0.008617580368802079,84.01008120974518,63.8637573177222,-0.2141645816816246,6.6463295606035695,0.0037532211932408462,0.003365575848451549,0.0027065632863412918,0.003243730147847275,-603.3802555955673,3693.0511933166104,-42.042649166884644,592.4559276856714,3443.0855691936003,-254.67138147327466,Vision,NoMovement,0
0.295,0.01670751618695849,0.00861571120585104,84.01008120974518,63.8637573177222,-0.214514000787774,6.665843961115069,0.0038330897001683357,0.0033036574651843006,0.0027298890543505324,0.003286819174372836,-603.4136620997947,3693.0694741061156,-42.056330669810386,592.4607264336956,3443.0811170403313,-254.66619696760148,Vision,NoMovement,0
0.296,0.016707683003257513,0.00861355836697654,84.01008120974518,63.8637573177222,-0.2148629367943218,6.685331645883144,0.0039127450589756885,0.0032365189859192354,0.002754055477233517,0.0033296636676315985,-603.4473494840411,3693.0889090268943,-42.0696755194969,592.4655251817197,3443.076664887062,-254.6610124619283,Vision,NoMovement,0
0.297,0.01670773903425906,0.00861110437682708,84.01008120974518,63.8637573177222,-0.21521138601337397,6.704792337893835,0.003991501591804563,0.0031647523169256522,0.002778864698553009,0.0033717956478914015,-603.4810368682876,3693.108343947673,-42.0830203691834,592.4703239297439,3443.0722127337935,-254.65582795625514,Vision,NoMovement,0
0.298,0.016707673754254963,0.00860833137906197,84.01008120974518,63.8637573177222,-0.21555934476773753,6.724225760667617,0.004068681305369418,0.0030890093494583314,0.002804113789880655,0.0034127126820807908,-603.5147242525339,3693.127778868451,-42.09636521886991,592.475122677768,3443.0677605805245,-254.65064345058195,Vision,NoMovement,0
0.299,0.01670747616010308,0.008605221174643438,84.01008120974518,63.8637573177222,-0.2159068093912722,6.743631638263619,0.004143628269938058,0.003009995737188144,0.0028295971220045728,0.003451887368013784,-603.5484116367803,3693.1472137892297,-42.109710068556424,592.4799214257922,3443.0633084272554,-254.64545894490877,Vision,NoMovement,0
0.3,0.0167071347722733,0.00860175526510236,84.01008120974518,63.8637573177222,-0.21625377622896602,6.763009695264265,0.004215722700001106,0.0029284646705513982,0.00285510884180162,0.003488777551794097,-603.5820990210268,3693.166648710008,-42.123054918242936,592.4847201738163,3443.0588562739863,-254.64027443923558,Vision,NoMovement,0
0.301,0.01670663763795678,0.008597914901059763,84.01008120974518,63.8637573177222,-0.21660024163719674,6.782359656910216,0.004284394143782238,0.002845210824324467,0.002880445375911869,0.003522836976872274,-603.6157864052732,3693.1860836307865,-42.13639976792944,592.4895189218405,3443.0544041207177,-254.6350899335624,Vision,NoMovement,0
0.302,0.01670597233641853,0.008593681136292853,84.01008120974518,63.8637573177222,-0.21694620198274103,6.801681248861332,0.004349133262895318,0.0027610645404593233,0.0029054078392777034,0.003553526133891717,-603.6494737895196,3693.205518551565,-42.14974461761595,592.4943176698646,3443.0499519674486,-254.6299054278892,Vision,NoMovement,0
0.303,0.016705125986777345,0.008589034887637674,84.01008120974518,63.8637573177222,-0.21729165364450248,6.820974197425629,0.004409501821359637,0.0026768861998159765,0.0029298041869772573,0.0035803231388521098,-603.683161173766,3693.2249534723433,-42.16308946730246,592.4991293988454,3443.045442158021,-254.6246858578872,Vision,NoMovement,0
0.304,0.016704085258408538,0.008583957001022853,84.01008120974518,63.8637573177222,-0.2176365930124121,6.840238229467371,0.004465140643411895,0.002593560660090927,0.0029534509405322812,0.0036027344703507,-603.7168485580124,3693.244388393122,-42.176434316988974,592.50459311099,3443.0380365031397,-254.6177051424943,Vision,NoMovement,0
0.305,0.016702836384169407,0.008578428323932876,84.01008120974518,63.8637573177222,-0.21798101648779578,6.85947307241854,0.004515775390145482,0.002511991595232959,0.002976174370403163,0.003620305367965747,-603.7505359422588,3693.2638233139005,-42.18977916667548,592.5100568231346,3443.030630848258,-254.61072442710142,Vision,NoMovement,0
0.306,0.016701365176655332,0.008572429784598278,84.01008120974518,63.8637573177222,-0.21832492048363059,6.878678454343075,0.004561220022791069,0.0024330955751349836,0.00299781110143451,0.003632629652514227,-603.7842233265053,3693.2832582346787,-42.20312401636199,592.5155205352792,3443.0232251933767,-254.60374371170852,Vision,NoMovement,0
0.307,0.016699657047700666,0.008565942478210789,84.01008120974518,63.8637573177222,-0.2186683014235641,6.897854103850537,0.004601377807513862,0.00235779576045824,0.0030182081988115554,0.0036393586888679216,-603.8179107107517,3693.3026931554573,-42.2164688660485,592.5209842474238,3443.015819538495,-254.59676299631565,Vision,NoMovement,0
0.308,0.01669769703134617,0.008558947760461563,84.01008120974518,63.8637573177222,-0.21901115574362393,6.916999750166413,0.004636239735041827,0.0022870151381119853,0.0030372228711403413,0.003640209182424934,-603.851598094998,3693.3221280762355,-42.22981371573501,592.5264479595684,3443.0084138836137,-254.58978228092275,Vision,NoMovement,0
0.309,0.016695469810499953,0.008551427348696124,84.01008120974518,63.8637573177222,-0.21935347989112738,6.936115123122205,0.0046658803148347154,0.0022216692719648073,0.0030547219873420686,0.0036349695112671988,-603.8784623636826,3693.337735625864,-42.24085175773164,592.5319116717129,3443.001008228732,-254.58280156552988,Vision,NoMovement,0
0.31,0.016692959747524338,0.008543363430976425,84.01008120974518,63.8637573177222,-0.21969527032502284,6.955199953160561,0.004690450850958598,0.002162658569150015,0.0030705816360657038,0.003623504369902771,-603.8985853310719,3693.3495616973883,-42.24961065239051,592.5373753838576,3442.9936025738507,-254.575820850137,Vision,NoMovement,0
0.311,0.016690150918989018,0.008534738783334595,84.01008120974518,63.8637573177222,-0.22003652351596217,6.974253971330428,0.004710170470638595,0.0021108600686290495,0.0030846869425427744,0.0036057576140534685,-603.9187082984611,3693.3613877689127,-42.258369547049384,592.5428390960021,3442.986196918969,-254.5688401347441,Vision,NoMovement,0
0.312,0.016687027154832296,0.008525536895495915,84.01008120974518,63.8637573177222,-0.22037723594655115,6.993276909350333,0.004725315318635428,0.002067118751463537,0.0030969322998351634,0.0035817533124950494,-603.9388312658504,3693.373213840437,-42.26712844170825,592.5483028081468,3442.9787912640877,-254.56185941935124,Vision,NoMovement,0
0.313,0.016683572082179753,0.00851574210533928,84.01008120974518,63.8637573177222,-0.22071740411038074,7.012268499523012,0.004736206418611199,0.002032238376468112,0.003107222094134313,0.003551595114007452,-603.9589542332395,3693.385039911962,-42.27588733636713,592.5537665202913,3442.971385609206,-254.55487870395834,Vision,NoMovement,0
0.314,0.0166797691740717,0.00850533974235132,84.01008120974518,63.8637573177222,-0.22105702451371476,7.031228474804822,0.004743196725241275,0.002006971875545298,0.003115471937576806,0.003515464112039708,-603.9790772006287,3693.3968659834864,-42.284646231025995,592.5592302324359,3442.9639799543247,-254.54789798856547,Vision,NoMovement,0
0.315,0.016675601803354246,0.008494316280319027,84.01008120974518,63.8637573177222,-0.22139609367441046,7.05015656879462,0.004746657865388578,0.001992011399310295,0.0031216103793555525,0.003473615426699873,-603.999200168018,3693.4086920550108,-42.29340512568487,592.5646939445805,3442.956574299443,-254.54091727317257,Vision,NoMovement,0
0.316,0.01667105330199248,0.008482659499487856,84.01008120974518,63.8637573177222,-0.22173460812227727,7.069052515728978,0.004746967032360992,0.0019879781612585287,0.0031255810459277843,0.003426373731554234,-604.0193231354071,3693.4205181265356,-42.30216402034374,592.5701576567251,3442.9491686445617,-254.5339365577797,Vision,NoMovement,0
0.317,0.016666107026062773,0.00847035865839701,84.01008120974518,63.8637573177222,-0.2220725643993215,7.087916050544655,0.0047444944799181965,0.0019954122755417502,0.0031273451538739692,0.0033741279601774846,-604.0394461027964,3693.43234419806,-42.310922915002614,592.5756213688697,3442.9417629896802,-254.52695584238683,Vision,NoMovement,0
0.318,0.01666074642668647,0.008457404675581206,84.01008120974518,63.8637573177222,-0.2224099590587882,7.106746908794058,0.004739592057630358,0.002014762819454743,0.0031268843305090827,0.0033173254399411875,-604.0595690701856,3693.4441702695844,-42.31968180966148,592.5810850810143,3442.9343573347987,-254.51997512699393,Vision,NoMovement,0
0.319,0.016654955127161367,0.008443790321305315,84.01008120974518,63.8637573177222,-0.2227467886668302,7.125544826713892,0.004732583204445306,0.0020463783824355986,0.003124203647292195,0.003256465687748092,-604.0796920375748,3693.4559963411093,-42.32844070432035,592.5865487931588,3442.9269516799172,-254.51299441160106,Vision,NoMovement,0
0.32,0.01664871700655101,0.008429510419474066,84.01008120974518,63.8637573177222,-0.22308304980143798,7.14430954121404,0.004723754746438652,0.0020904983744105734,0.003119334706646678,0.0031920940487386766,-604.0998150049641,3693.4678224126337,-42.337199598979225,592.591054952952,3442.9192667799775,-254.50611391951674,Vision,NoMovement,0
0.321,0.016642016289985625,0.008414562059828361,84.01008120974518,63.8637573177222,-0.2234187390527942,7.163040789872832,0.0047133507294843426,0.0021472453455698417,0.0031123385437222986,0.003124795276231141,-604.1199379723532,3693.479648484158,-42.34595849363809,592.5942270543487,3442.9111928368548,-254.49937305817548,Vision,NoMovement,0
0.322,0.01663483764592556,0.008398944820508005,84.01008120974518,63.8637573177222,-0.22375385302351386,7.181738310998698,0.004701568382779402,0.002216618518423445,0.003103308059237514,0.003055187080137303,-604.1400609397424,3693.491474555683,-42.35471738829697,592.5973991557455,3442.9031188937324,-254.49263219683422,Vision,NoMovement,0
0.323,0.016627166290633905,0.008382661001026531,84.01008120974518,63.8637573177222,-0.22408838832769618,7.200401843546458,0.004688556179849782,0.0022984886658428483,0.0030923697238794635,0.0029839136341377947,-604.1601839071317,3693.5033006272074,-42.36347628295584,592.6005712571422,3442.89504495061,-254.48589133549297,Vision,NoMovement,0
0.324,0.016618988100095575,0.00836571586566315,84.01008120974518,63.8637573177222,-0.22442234159257574,7.219031127185194,0.00467441385590583,0.002392594409152216,0.003079684375269382,0.002911639017514951,-604.1803068745209,3693.515126698732,-42.37223517761471,592.6037433585388,3442.886971007488,-254.4791504741517,Vision,NoMovement,0
0.325,0.016610289729614227,0.008348117897235476,84.01008120974518,63.8637573177222,-0.22475570945746123,7.237625902287148,0.0046591941588361024,0.0024985399771817072,0.003065447019321292,0.0028390405627411472,-604.2004570079357,3693.526915578323,-42.381364228986854,592.6069154599356,3442.8788970643654,-254.47240961281045,Vision,NoMovement,0
0.326,0.01660105874130614,0.008329879061171396,84.01008120974518,63.8637573177222,-0.22508848857408606,7.256185909923033,0.004642906044454995,0.002615794474661406,0.0030498856146728196,0.0027668020706658634,-604.2211250042232,3693.5379954723,-42.39754953589628,592.6100875613323,3442.8708231212427,-254.4656687514692,Vision,NoMovement,0
0.327,0.01659128373969844,0.008311015079745715,84.01008120974518,63.8637573177222,-0.22542067560684384,7.27471089192284,0.00462551896722529,0.0027436927255193684,0.003033258864260507,0.0026956068589786175,-604.2417930005106,3693.549075366276,-42.4137348428057,592.6132596627291,3442.8627491781203,-254.4589278901279,Vision,NoMovement,0
0.328,0.016580954515626127,0.008291545716295113,84.01008120974518,63.8637573177222,-0.22575226723185074,7.293200590793007,0.004606967879729075,0.002881437754706389,0.003015853077617423,0.002626130643054071,-604.262460996798,3693.5601552602525,-42.42992014971513,592.6164317641258,3442.854675234998,-254.45218702878665,Vision,NoMovement,0
0.329,0.01657006219860431,0.008271495069165599,84.01008120974518,63.8637573177222,-0.22608326013857757,7.311654749783477,0.004587158572268087,0.0030281049468467405,0.002997978201060478,0.0025590343009491683,-604.2831289930855,3693.5712351542293,-42.44610545662455,592.6196038655225,3442.8466012918757,-254.4454461674454,Vision,NoMovement,0
0.33,0.016558599417834576,0.00825089187508393,84.01008120974518,63.8637573177222,-0.22641365102879862,7.3300731128778605,0.004565973080461965,0.0031826478953359575,0.002979963133179987,0.0024949566211265053,-604.3037969893729,3693.5823150482056,-42.46229076353397,592.6227759669192,3442.8385273487534,-254.43870530610414,Vision,NoMovement,0
0.331,0.016546560471983315,0.008229769821575724,84.01008120974518,63.8637573177222,-0.2267434366169157,7.34845542479794,0.004543275042190132,0.0033439059787673956,0.0029621504484102913,0.002434507140560797,-604.3244649856604,3693.593394942182,-42.4784760704434,592.625948068316,3442.830453405631,-254.43196444476288,Vision,NoMovement,0
0.332,0.016533941507846872,0.008208167867982742,84.01008120974518,63.8637573177222,-0.22707261363002482,7.366801430999046,0.004518915039247776,0.0035106137539717007,0.0029448906531661626,0.002378259167248491,-604.3451329819478,3693.6044748361587,-42.49466137735282,592.6291201697127,3442.8223794625083,-254.42522358342163,Vision,NoMovement,0
0.333,0.01652074070799061,0.00818613057455258,84.01008120974518,63.8637573177222,-0.2274011788081454,7.3851108777298125,0.004492736047091586,0.00368141230382262,0.0029285361049302167,0.0023267430721078852,-604.3658009782353,3693.615554730135,-42.51084668426225,592.6322922711093,3442.814305519386,-254.41848272208037,Vision,NoMovement,0
0.334,0.01650695848742361,0.008163708438993013,84.01008120974518,63.8637573177222,-0.2277291289032961,7.403383511950426,0.004464579112248071,0.003854862686832301,0.002913434734754214,0.0022804399498465044,-604.3864689745227,3693.6266346241114,-42.52703199117167,592.6354643725061,3442.8062315762636,-254.41174186073908,Vision,NoMovement,0
0.335,0.016492597699334505,0.008140958239796083,84.01008120974518,63.8637573177222,-0.22805646068110344,7.42161908139868,0.00443428931430731,0.004029461613679467,0.0028999237163025403,0.0022397757773914557,-604.4071369708103,3693.637714518088,-42.54321729808109,592.6386364739028,3442.7981576331413,-254.40500099939783,Vision,NoMovement,0
0.336,0.016477663849883112,0.008117943385542961,84.01008120974518,63.8637573177222,-0.22838317091976323,7.439817334578895,0.004401722006915692,0.004203659425815494,0.0028883232107083756,0.0022051162285084322,-604.4278049670977,3693.6487944120645,-42.55940260499052,592.6418085752996,3442.790083690019,-254.39826013805657,Vision,NoMovement,0
0.337,0.016462165322001867,0.00809473426930498,84.01008120974518,63.8637573177222,-0.2287092564103823,7.457978020757344,0.004366749290692873,0.004375880384067679,0.0028789302908672552,0.0021767623120827,-604.4484729633851,3693.659874306041,-42.57558791189994,592.6423862166235,3442.7821884776763,-254.39291138686724,Vision,NoMovement,0
0.338,0.016446113608121114,0.008071408627150495,84.01008120974518,63.8637573177222,-0.22903471395720248,7.476100890021114,0.004329266638539147,0.0045445451628288724,0.0028720131319623977,0.0021549469878977354,-604.4691409596726,3693.6709542000176,-42.591773218809365,592.6423795383422,3442.7743335187565,-254.38787616420868,Vision,NoMovement,0
0.339,0.016429523551686944,0.008048051899660895,84.01008120974518,63.8637573177222,-0.22935954037666506,7.494185693197275,0.004289199556023737,0.0047080953058538195,0.002867805551034293,0.002139832881351596,-604.48980895596,3693.682034093994,-42.607958525718786,592.6423728600608,3442.766478559837,-254.38284094155009,Vision,NoMovement,0
0.34,0.01641241359729215,0.008024757595241827,84.01008120974518,63.8637573177222,-0.2296837324988421,7.5122321819180815,0.0042465101205325165,0.0048650192442127585,0.002866501969820662,0.002131511171322975,-604.5102330675395,3693.6956337179263,-42.62489599571973,592.6423661817795,3442.7586236009174,-254.3778057188915,Vision,NoMovement,0
0.341,0.016394806049186934,0.008001627653898065,84.01008120974518,63.8637573177222,-0.23000728716753824,7.53024010860991,0.004201203212115325,0.005013879300024173,0.0028682528557830243,0.0021300016667753535,-604.5305277617709,3693.710570435814,-42.64223260084269,592.6423595034981,3442.750768641998,-254.37277049623293,Vision,NoMovement,0
0.342,0.016376727337883184,0.0079787728100136,84.01008120974518,63.8637573177222,-0.23033020123811754,7.548209226488725,0.004153332234510266,0.005153338918615826,0.002873160687375598,0.002135254016764422,-604.5508224560024,3693.7255071537024,-42.65956920596564,592.6423528252168,3442.7429136830783,-254.36773527357434,Vision,NoMovement,0
0.343,0.016358208294502772,0.007956312952546502,84.01008120974518,63.8637573177222,-0.23065247158016905,7.566139289618042,0.004103004137546684,0.005282189204392739,0.002881276514496463,0.002147149926804581,-604.5711171502338,3693.7404438715903,-42.676905811088595,592.6423461469353,3442.735058724159,-254.36270005091578,Vision,NoMovement,0
0.34400000000000003,0.016339284432457406,0.007934377480913144,84.01008120974518,63.8637573177222,-0.23097409507639013,7.584030052829038,0.0040503835848125416,0.005399373700690876,0.0028925972338652768,0.0021655062021884866,-604.5914118444653,3693.755380589478,-42.69424241621155,592.642339468654,3442.727203765239,-254.35766482825719,Vision,NoMovement,0
0.34500000000000003,0.016319996235978865,0.00791310565469102,84.01008120974518,63.8637573177222,-0.23129506862195906,7.601881271784864,0.003995696120049462,0.0055040103119765775,0.0029070637416198928,0.002190078428149281,-604.6117065386966,3693.770317307366,-42.7115790213345,592.6423327903726,3442.7193488063194,-254.3526296055986,Vision,NoMovement,0
0.34600000000000003,0.016300389454945708,0.007892646935123057,84.01008120974518,63.8637573177222,-0.23161538912610002,7.619692702969604,0.003939230158403495,0.005595409337950568,0.0029245601385826914,0.002220565126395735,-604.632001232928,3693.7852540252543,-42.72891562645746,592.6423261120913,3442.7114938474,-254.34759438294003,Vision,NoMovement,0
0.34700000000000003,0.016280515405373834,0.00787316131625271,84.01008120974518,63.8637573177222,-0.23193505351106797,7.637464103683799,0.003881337587247576,0.005673086800888023,0.002944914138676683,0.002256612271066477,-604.6522959271595,3693.800190743142,-42.746252231580414,592.6423194338099,3442.7036388884803,-254.34255916028144,Vision,NoMovement,0
0.34800000000000003,0.016260431274858465,0.007854819643358506,84.01008120974518,63.8637573177222,-0.23225405871248117,7.655195232101465,0.0038224327552403075,0.005736772567389258,0.002967898764340719,0.0022978180757980532,-604.6725906213909,3693.81512746103,-42.76358883670337,592.6423127555285,3442.695783929561,-254.33752393762285,Vision,NoMovement,0
0.34900000000000003,0.016240200432165577,0.0078378039161941,84.01008120974518,63.8637573177222,-0.23257240167953475,7.672885847191178,0.0037629897095696804,0.005786413092708707,0.0029932353159293516,0.00234373797366116,-604.6928853156223,3693.8300641789183,-42.78092544182632,592.6423060772471,3442.687928970641,-254.33248871496428,Vision,NoMovement,0
