Time,Amplitude_Envelope_P1,Amplitude_Envelope_P2,Filtered_ECG_P1,Filtered_ECG_P2,Filtered_Respiration_P1,Filtered_Respiration_P2,Filtered_EMG_Bicep_P1,Filtered_EMG_Tricep_P1,Filtered_EMG_Bicep_P2,Filtered_EMG_Tricep_P2,right_index_x_P1,right_index_y_P1,right_index_z_P1,right_index_x_P2,right_index_y_P2,right_index_z_P2,ConditionVision,ConditionMovement,Trial
0.0,0.0077491215900041,0.0222975377777542,67.2394471423235,64.6377592243469,-0.3620511423191589,-7.807568325422551,0.0035970386256228,0.0015432003691076,0.0035640787537482,0.004036099479499,-727.4673663966795,3727.58496938243,-33.81112780512197,498.45096690640025,3614.460439808529,-534.2853486824488,Vision,Movement,0
0.001,0.007749122608626157,0.022298728447066988,67.2394471423235,64.6377592243469,-0.3617630641481399,-7.799818794510057,0.003546703809142171,0.0015661550731891005,0.0035684306344996113,0.004010064644143063,-727.3311835711831,3727.487014301709,-33.806486353082846,498.2393265422485,3614.027135461744,-533.9458725528323,Vision,Movement,0
0.002,0.007749123680831962,0.0222999145778378,67.2394471423235,64.6377592243469,-0.3614736347507805,-7.7920336478653365,0.0035020191612311594,0.0015873150229840708,0.003570502420405782,0.0039879158934972014,-727.1950007456868,3727.3890592209887,-33.80184490104372,498.02768617809676,3613.593831114959,-533.6063964232158,Vision,Movement,0
0.003,0.007749124807175809,0.02230109171344092,67.2394471423235,64.6377592243469,-0.36118285292939795,-7.784212869344166,0.0034635539381547907,0.0016065965787394713,0.0035700982299952323,0.003969927450507482,-727.0588179201904,3727.2911041402676,-33.797203449004606,497.816045813945,3613.1605267681743,-533.2669202935992,Vision,Movement,0
0.004,0.007749125988039693,0.022302256052115534,67.2394471423235,64.6377592243469,-0.36089071750496365,-7.7763564433932695,0.003431804256771692,0.0016239579248441569,0.0035670420540109375,0.003956312369572408,-726.9226350946941,3727.193149059547,-33.79256199696548,497.6044054497932,3612.7272224213893,-532.9274441639827,Vision,Movement,0
0.005,0.007749127223616416,0.022303404324589698,67.2394471423235,64.6377592243469,-0.3605972273155422,-7.768464355051223,0.0034071834255947854,0.0016394009648050948,0.003561181266131312,0.00394721626724009,-726.7864522691978,3727.0951939788265,-33.78792054492636,497.5440943571111,3612.5870698938165,-532.8240983380714,Vision,Movement,0
0.006,0.007749128513890581,0.02230453369393161,67.2394471423235,64.6377592243469,-0.3603023812173782,-7.760536589956526,0.0033900139283894177,0.001652971943985628,0.0035523899326763446,0.003942712350984289,-726.6502694437014,3726.997238898106,-33.783279092887234,497.51057592264226,3612.498819529127,-532.7625590870516,Vision,Movement,0
0.007,0.007749129858619699,0.02230564187800687,67.2394471423235,64.6377592243469,-0.3600061780846584,-7.752573134319596,0.0033805212219090368,0.0016647607262692847,0.0035405718760294154,0.003942797971770462,-726.514086618205,3726.8992838173854,-33.77863764084812,497.4770574881735,3612.410569164437,-532.7010198360317,Vision,Movement,0
0.008,0.007749131257314288,0.022306727227225164,67.2394471423235,64.6377592243469,-0.35970861680926935,-7.744573974966888,0.0033788294741910266,0.0016748987219308193,0.003525663428770666,0.003947392941200579,-726.3779037927087,3726.801328736665,-33.773996188808994,497.4435390537047,3612.322318799748,-532.6394805850119,Vision,Movement,0
0.009000000000000001,0.007749132709216167,0.022307788683947328,67.2394471423235,64.6377592243469,-0.3594096963019054,-7.736539099312878,0.0033849593555086077,0.0016835555374527626,0.003507635788065705,0.003956339833164143,-726.2417209672124,3726.703373655944,-33.76935473676987,497.4100206192359,3612.2340684350584,-532.5779413339922,Vision,Movement,0
0.01,0.007749134213277568,0.022308825266146467,67.2394471423235,64.6377592243469,-0.3591094154904705,-7.7284684953753775,0.0033988279728259627,0.0016909344840422853,0.0034864968608802308,0.003969406421089032,-726.105538141716,3726.605418575223,-33.764713284730746,497.3765021847671,3612.1458180703685,-532.5164020829724,Vision,Movement,0
0.011,0.007749135768137826,0.022309836093661693,67.2394471423235,64.6377592243469,-0.3588077733211855,-7.720362151746972,0.003420250991823405,0.00169726712868421,0.0034622924985495945,0.003986290289723661,-725.9693553162197,3726.5074634945026,-33.76007183269163,497.3429837502983,3612.057567705679,-532.4548628319526,Vision,Movement,0
0.012,0.007749137372100185,0.022310820474988002,67.2394471423235,64.6377592243469,-0.3585047687583422,-7.712220057639785,0.003448946917150222,0.0017028070968319329,0.0034351070615096404,0.0040066255142975245,-725.8331724907233,3726.409508413782,-33.755430380652506,497.3094653158295,3611.9693173409896,-532.3933235809328,Vision,Movement,0
0.013000000000000001,0.0077491390231077,0.022311777994338245,67.2394471423235,64.6377592243469,-0.3582004007843262,-7.704042202856889,0.003484543411143203,0.0017078233409470668,0.003405063314162506,0.004029991154622473,-725.7478635809014,3726.350353411179,-33.75605296185338,497.2759468813607,3611.8810669762997,-532.331784329913,Vision,Movement,0
0.014,0.007749140718718032,0.022312708267619948,67.2394471423235,64.6377592243469,-0.357894668399365,-7.695828577800345,0.0035265854335141617,0.0017125930774372123,0.0033723216997747205,0.0040559212170278025,-725.6887483599999,3726.3111755847544,-33.75938586026351,497.24242844689195,3611.7928166116103,-532.2702450788933,Vision,Movement,0
0.015,0.007749142456077756,0.022313611007190228,67.2394471423235,64.6377592243469,-0.3575875706226585,-7.687579173471923,0.0035745448857517205,0.0017173945742230358,0.003337079056986266,0.004083915716526432,-725.6296331390982,3726.27199775833,-33.762718758673635,497.20891001242313,3611.7045662469204,-532.2087058278734,Vision,Movement,0
0.016,0.007749144231896153,0.022314486065933982,67.2394471423235,64.6377592243469,-0.35727910649073685,-7.679293981481224,0.003627831362696264,0.0017224999617996188,0.0032995668104640564,0.0041134524967200254,-725.5705179181967,3726.2328199319054,-33.766051657083764,497.1753915779544,3611.616315882231,-532.1471665768536,Vision,Movement,0
0.017,0.007749146042417821,0.022315333083379327,67.2394471423235,64.6377592243469,-0.3569692750585898,-7.670972994016346,0.0036858035708546358,0.0017281682532566008,0.003260048623678854,0.004143999495538066,-725.5114026972951,3726.1936421054806,-33.76938455549389,497.14187314348555,3611.5280655175416,-532.0856273258338,Vision,Movement,0
0.018000000000000002,0.007749147883395266,0.02231615146580632,67.2394471423235,64.6377592243469,-0.3566580753991315,-7.662616203889571,0.003747780973593273,0.0017346387789380522,0.0032188174811505162,0.004175027153162107,-725.4522874763936,3726.154464279056,-33.77271745390402,497.10835470901674,3611.4398151528517,-532.024088074814,Vision,Movement,0
0.019,0.0077491497500605105,0.02231694078307527,67.2394471423235,64.6377592243469,-0.35634550660434655,-7.654223604507939,0.003813055228919296,0.0017421252429236907,0.003176192185452324,0.004206020628014727,-725.3931722554921,3726.1152864526316,-33.77605035231415,497.074836274548,3611.3515647881622,-531.9625488237942,Vision,Movement,0
0.02,0.007749151637096587,0.022317700788974718,67.2394471423235,64.6377592243469,-0.35603156778361766,-7.645795189881373,0.00388090098495036,0.001750810583292962,0.0031325132983199664,0.004236491414468497,-725.3340570345905,3726.076108626207,-33.77938325072428,497.04131784007916,3611.263314423473,-531.9010095727745,Vision,Movement,0
0.021,0.007749153538608348,0.022318431133501397,67.2394471423235,64.6377592243469,-0.35571625806487334,-7.637330954630823,0.003950585621221358,0.0017608427775003454,0.003088138589970632,0.0042659878863518215,-725.274941813689,3726.036930799782,-33.78271614913441,497.01238642646257,3611.1770452660385,-531.8453329484305,Vision,Movement,0
0.022,0.007749155448093154,0.022319131560552232,67.2394471423235,64.6377592243469,-0.355399576594324,-7.628830893958274,0.004021377625458759,0.0017723316955261198,0.0030434380756663012,0.004294104280093197,-725.2158265927874,3725.9977529733574,-33.78604904754454,496.99737057813053,3611.0967864625554,-531.807441672546,Vision,Movement,0
0.023,0.00774915735841099,0.022319801879410083,67.2394471423235,64.6377592243469,-0.35508152253647873,-7.620295003693222,0.00409255346628285,0.0017853470738883705,0.0029987887239739846,0.004320487708904799,-725.1567113718859,3725.958575146933,-33.789381945954666,496.9823547297985,3611.0165276590724,-531.7695503966615,Vision,Movement,0
0.024,0.007749159261755252,0.022320442050500655,67.2394471423235,64.6377592243469,-0.35476209507387796,-7.611723280262531,0.004163403022937843,0.0017999176607447348,0.0029545689274153657,0.004344842948187316,-725.0975961509844,3725.9193973205083,-33.792714844364795,496.96733888146645,3610.9362688555893,-531.7316591207771,Vision,Movement,0
0.025,0.007749161149622357,0.02232105204048124,67.2394471423235,64.6377592243469,-0.3544412934082607,-7.603115720698646,0.004233233814904444,0.0018160315594102291,0.0029111528419434604,0.00436693490389499,-725.0384809300828,3725.8802194940836,-33.796047742774924,496.9523230331344,3610.8560100521063,-531.6937678448926,Vision,Movement,0
0.026000000000000002,0.0077491630127826385,0.02232163206220577,67.2394471423235,64.6377592243469,-0.3541191167588498,-7.594472322647728,0.004301374401723738,0.0018336377732886173,0.00286890471607262,0.004386588828267475,-724.9793657091813,3725.841041667659,-33.79938064118505,496.93730718480236,3610.7757512486232,-531.6558765690081,Vision,Movement,0
0.027,0.00774916484125065,0.022322182612688528,67.2394471423235,64.6377592243469,-0.3537955643635225,-7.58579308433902,0.004367177356876827,0.001852648928480219,0.0028281733353843646,0.00440368844717042,-724.9202504882796,3725.8018638412345,-33.80271353959518,496.9222913364703,3610.6954924451406,-531.6179852931236,Vision,Movement,0
0.028,0.007749166624256264,0.022322704228180286,67.2394471423235,64.6377592243469,-0.35347063547853486,-7.577078004632101,0.004430022161238303,0.0018729451177038382,0.0027892866935243874,0.00441817220112783,-724.8611352673781,3725.76268601481,-33.80604643800531,496.9072754881383,3610.6152336416576,-531.580094017239,Vision,Movement,0
0.029,0.007749168350216176,0.022323197154238035,67.2394471423235,64.6377592243469,-0.35314432937824713,-7.568327082986038,0.0044893182511854274,0.0018943787633106223,0.002752546964677594,0.004430027808570048,-724.8100296870957,3725.7286586451914,-33.810577809709976,496.89225963980624,3610.5349748381745,-531.5422027413546,Vision,Movement,0
0.03,0.007749170006706,0.02232366136547759,67.2394471423235,64.6377592243469,-0.35281664535630997,-7.559540319467651,0.004544508370488842,0.0019167803445649537,0.0027182258171857153,0.004439285386891711,-724.7896180790005,3725.71436848795,-33.81970188509744,496.8772437914742,3610.4547160346915,-531.5043114654701,Vision,Movement,0
0.031,0.007749171580433774,0.022324096647908073,67.2394471423235,64.6377592243469,-0.35248758272391184,-7.550717714759676,0.004595072343429449,0.0019399647875474903,0.002686560094076688,0.004446009433805211,-724.7692064709054,3725.7000783307094,-33.8288259604849,496.86222794314216,3610.3744572312085,-531.4664201895856,Vision,Movement,0
0.032,0.007749173057213855,0.02232450259534904,67.2394471423235,64.6377592243469,-0.3521571408109705,-7.541859270129473,0.0046405313732422095,0.00196373827956538,0.002657747902789082,0.004450290029322848,-724.7487948628101,3725.685788173468,-33.83795003587236,496.8472120948101,3610.2941984277254,-531.4285289137011,Vision,Movement,0
0.033,0.007749174421942425,0.022324878835589493,67.2394471423235,64.6377592243469,-0.3518253189658507,-7.532964987477041,0.004680452933505435,0.0019879052453110175,0.002631945181837032,0.004452233616860698,-724.7283832547149,3725.6714980162274,-33.84707411125982,496.8321962464781,3610.213939624243,-531.3906376378167,Vision,Movement,0
0.034,0.007749175658574688,0.022325224936579794,67.2394471423235,64.6377592243469,-0.3514921165553728,-7.5240348693034855,0.004714456240431206,0.002012275203227178,0.0026092628284577427,0.0044519536784583666,-724.7079716466197,3725.657207858986,-33.85619818664728,496.81718039814604,3610.1336808207598,-531.3527463619322,Vision,Movement,0
0.035,0.007749176750103673,0.022325540517720427,67.2394471423235,64.6377592243469,-0.35115753296453023,-7.515068918719279,0.004742218197650519,0.002036669206851788,0.002589764489506338,0.004449561603657378,-724.6875600385246,3725.6429177017453,-33.86532226203475,496.802164549814,3610.0534220172767,-531.3148550860477,Vision,Movement,0
0.036000000000000004,0.0077491776785406285,0.02232582535951234,67.2394471423235,64.6377592243469,-0.35082156759769684,-7.506067139444606,0.00476347961897131,0.0020609255745506314,0.0025734651383886005,0.004445158098179493,-724.6671484304294,3725.628627544504,-33.874446337422214,496.78714870148195,3609.9731632137937,-531.2769638101632,Vision,Movement,0
0.037,0.00774917842489873,0.022326079367303877,67.2394471423235,64.6377592243469,-0.3504842198768312,-7.4970295358175205,0.004778051471335065,0.002084904639587235,0.002560330567215297,0.0044388255384101155,-724.6467368223341,3725.6143373872633,-33.883570412809675,496.7721328531499,3609.8929044103106,-531.2390725342788,Vision,Movement,0
0.038,0.007749178969177774,0.022326302817530883,67.2394471423235,64.6377592243469,-0.35014548924269173,-7.487956112761886,0.004785820826110521,0.0021084923115043254,0.0025502779023973627,0.00443062168208672,-724.6263252142389,3725.600047230022,-33.89269448819714,496.7595347650831,3609.8038032212985,-531.2070066695,Vision,Movement,0
0.039,0.00774917929035348,0.022326496220221082,67.2394471423235,64.6377592243469,-0.34980537515454097,-7.478846875836324,0.004786756148043212,0.0021316023155342864,0.002543177220899176,0.004420575078174557,-724.6059136061438,3725.585757072781,-33.9018185635846,496.7482601761421,3609.709861647701,-531.178129676098,Vision,Movement,0
0.04,0.007749179366368493,0.022326660050413137,67.2394471423235,64.6377592243469,-0.3494638770898554,-7.469701831201833,0.004780911489978533,0.002154177054631541,0.0025388543224224586,0.004408682406113256,-724.5855019980486,3725.57146691554,-33.91094263897206,496.736985587201,3609.615920074104,-531.149252682696,Vision,Movement,0
0.041,0.007749179174127574,0.02232679466158518,67.2394471423235,64.6377592243469,-0.34912099454555084,-7.460520985630183,0.004768429131901613,0.0021761871218881996,0.002537094697158204,0.00439490784538316,-724.5650903899534,3725.5571767582987,-33.92006671435953,496.72571099825996,3609.521978500507,-531.120375689294,Vision,Movement,0
0.042,0.007749178689496609,0.022326900182538776,67.2394471423235,64.6377592243469,-0.34877672703615004,-7.451304346512094,0.004749540241322796,0.0021976295784644825,0.002537648702163322,0.004379184447774199,-724.5446787818581,3725.542886601058,-33.92919078974699,496.7144364093189,3609.4280369269095,-531.0914986958919,Vision,Movement,0
0.043000000000000003,0.007749177887305604,0.022326976669231818,67.2394471423235,64.6377592243469,-0.34843107409501917,-7.442051921824535,0.004724563254280522,0.0022185251885189204,0.0025402379157455682,0.004361417373440047,-724.524267173763,3725.5285964438167,-33.93831486513445,496.7031618203779,3609.3340953533125,-531.0626217024899,Vision,Movement,0
0.044,0.007749176741355985,0.02232702395613,67.2394471423235,64.6377592243469,-0.34808403527406523,-7.432763720180429,0.004693899858629777,0.002238914848891238,0.002544562577958893,0.004341488775962237,-724.5038555656678,3725.514306286576,-33.94743894052191,496.69188723143685,3609.2401537797155,-531.033744709088,Vision,Movement,0
0.045,0.007749175224433893,0.022327041788301732,67.2394471423235,64.6377592243469,-0.34773561014373766,-7.423439750795572,0.004658028655325507,0.002258855449856263,0.0025503099479886925,0.004319264087367825,-724.4834439575726,3725.5000161293347,-33.956563015909374,496.68061264249576,3609.146212206118,-531.0048677156859,Vision,Movement,0
0.046,0.007749173308327385,0.022327030196848462,67.2394471423235,64.6377592243469,-0.34738579829273075,-7.414080023497017,0.004617496725261551,0.002278415362807315,0.002557163322023205,0.004294599445764444,-724.46831155601,3725.4823440064233,-33.96517777894672,496.6693380535547,3609.052270632521,-530.9759907222839,Vision,Movement,0
0.047,0.007749170963850334,0.022326989539194066,67.2394471423235,64.6377592243469,-0.3470345993292309,-7.404684548723211,0.00457290940923891,0.0022976696994427294,0.0025648113691023487,0.004267349996567273,-724.4549036320475,3725.4635671485476,-33.97362617271365,496.6580634646137,3608.958329058924,-530.9471137288818,Vision,Movement,0
0.048,0.007749168160872822,0.022326920148184992,67.2394471423235,64.6377592243469,-0.34668201287903977,-7.395253337532175,0.004524918633314232,0.0023166954565181277,0.00257295737033148,0.004237378771874571,-724.4414957080851,3725.444790290672,-33.982074566480584,496.64678887567266,3608.864387485327,-530.9182367354799,Vision,Movement,0
0.049,0.007749164868357043,0.022326822256917726,67.2394471423235,64.6377592243469,-0.3463280385868355,-7.385786401568016,0.004474210140679679,0.002335566660313603,0.0025813279102226607,0.004204565807833306,-724.4280877841226,3725.426013432796,-33.99052296024752,496.6355142867316,3608.7704459117294,-530.8893597420779,Vision,Movement,0
0.05,0.007749161054401792,0.022326696131738225,67.2394471423235,64.6377592243469,-0.3459726761158558,-7.3762837531115695,0.0044214900537340295,0.002354349645626294,0.0025896805912801113,0.004168817091350764,-724.41467986016,3725.4072365749203,-33.99897135401445,496.62423969779053,3608.6765043381324,-530.8604827486758,Vision,Movement,0
0.051000000000000004,0.007749156686293272,0.022326541844578416,67.2394471423235,64.6377592243469,-0.34561592514759304,-7.366745405046484,0.004367471258304611,0.0023730986203250367,0.002597810423504469,0.00413007284277918,-724.4012719361975,3725.388459717044,-34.007419747781384,496.6129651088495,3608.5825627645354,-530.8316057552738,Vision,Movement,0
0.052000000000000005,0.007749151730564885,0.022326359152019793,67.2394471423235,64.6377592243469,-0.34525778538305996,-7.3571713708677615,0.004312860106600376,0.0023918516646103884,0.0026055546396809054,0.004088314598237421,-724.387864012235,3725.3696828591683,-34.01586814154832,496.60169051990846,3608.488621190938,-530.8027287618719,Vision,Movement,0
0.053,0.007749146153065423,0.02232614769706075,67.2394471423235,64.6377592243469,-0.344898256540877,-7.347561664689935,0.004258343845914018,0.0024106272956927817,0.002612795765565247,0.0040435706190295375,-724.3744560882725,3725.3509060012925,-34.02431653531524,496.5904159309674,3608.394679617341,-530.7738517684699,Vision,Movement,0
0.054,0.007749139919036275,0.022325907023039854,67.2394471423235,64.6377592243469,-0.34453733835855344,-7.337916301212955,0.004204579036165881,0.0024294217008644526,0.0026194628334313365,0.003995919336719176,-724.36104816431,3725.3321291434168,-34.03276492908218,496.57898078938575,3608.3004102412447,-530.7450656175599,Vision,Movement,0
0.055,0.007749132993198513,0.022325636329167214,67.2394471423235,64.6377592243469,-0.3441750305921656,-7.328235295773584,0.0041521810845344806,0.002448206709449238,0.0026255307020203256,0.003945490774956893,-724.3476402403475,3725.313352285541,-34.04121332284911,496.5641041270262,3608.1991142656093,-530.718226717862,Vision,Movement,0
0.056,0.007749125339850288,0.022325334720121263,67.2394471423235,64.6377592243469,-0.3438113330163525,-7.318518664310792,0.004101714952250131,0.0024669285368663966,0.0026310175465362254,0.003892466090761346,-724.334232316385,3725.2945754276648,-34.04966171661604,496.5492274646667,3608.0978182899735,-530.6913878181641,Vision,Movement,0
0.057,0.007749116922974528,0.022325001444210433,67.2394471423235,64.6377592243469,-0.34344624542400204,-7.308766423374356,0.004053687064810591,0.002485507306571742,0.0026359806807731466,0.0038370755072876504,-724.3208243924225,3725.275798569789,-34.05811011038298,496.5343508023072,3607.9965223143377,-530.6645489184662,Vision,Movement,0
0.058,0.007749107706358626,0.022324635749062707,67.2394471423235,64.6377592243469,-0.3430797676275383,-7.298978590133046,0.004008538440252727,0.0025038373510998476,0.0026405109473998643,0.0037795949484393803,-724.30741646846,3725.2570217119132,-34.06655850414991,496.5194741399477,3607.8952263387023,-530.6377100187682,Vision,Movement,0
0.059000000000000004,0.007749097653725441,0.02232423727204642,67.2394471423235,64.6377592243469,-0.34271189945696556,-7.289155182339888,0.003966639011440881,0.002521788307422824,0.002644725963197405,0.0037203416562630004,-724.2940085444975,3725.2382448540375,-34.07500689791684,496.50459747758816,3607.7939303630665,-530.6108711190703,Vision,Movement,0
0.06,0.0077490867288772846,0.022323805939106538,67.2394471423235,64.6377592243469,-0.34234264076117393,-7.279296218384295,0.003928283080987463,0.0025392070306756672,0.002648762536523625,0.003659669022455784,-724.280600620535,3725.2194679961617,-34.08345529168378,496.4897208152286,3607.6926343874306,-530.5840322193724,Vision,Movement,0
0.061,0.007749074895852612,0.022323341489561506,67.2394471423235,64.6377592243469,-0.34197199140760276,-7.269401717256779,0.0038936858440513653,0.0025559203395656848,0.0026527685803811696,0.0035979608287466714,-724.2671926965725,3725.2006911382855,-34.0919036854507,496.47484415286914,3607.5913384117953,-530.5571933196744,Vision,Movement,0
0.062,0.007749062119096217,0.02232284379802204,67.2394471423235,64.6377592243469,-0.3415999512819216,-7.259471698557613,0.0038629809589946574,0.002571738578931494,0.0026568948334873706,0.003535625076409409,-724.25185591062,3725.17902793787,-34.09900441484535,496.4599674905096,3607.4900424361595,-530.5303544199766,Vision,Movement,0
0.063,0.007749048363644122,0.02232231295248305,67.2394471423235,64.6377592243469,-0.3412265202893349,-7.249506182505014,0.003836219213385193,0.0025864599551018975,0.0026612866905750135,0.0034730875699185287,-724.2320313474281,3725.1506492428143,-34.10296960757268,496.44509082815006,3607.3887464605236,-530.5035155202786,Vision,Movement,0
0.064,0.007749033595322368,0.022321749210470018,67.2394471423235,64.6377592243469,-0.34085169835259016,-7.239505189899786,0.0038133684011493908,0.0025998755681172544,0.0026660764330439938,0.003410785396537034,-724.2122067842364,3725.122270547759,-34.10693480030002,496.4302141657906,3607.2874504848883,-530.4766766205807,Vision,Movement,0
0.065,0.007749017780961605,0.022321152626627982,67.2394471423235,64.6377592243469,-0.3404754854133036,-7.229468742178198,0.0037943145817907298,0.0026117750189648416,0.0026713761288545954,0.003349160414874675,-724.1923822210447,3725.0938918527036,-34.110899993027346,496.41533750343103,3607.1861545092524,-530.4498377208828,Vision,Movement,0
0.066,0.007749000888627577,0.022320522984649305,67.2394471423235,64.6377592243469,-0.34009788143162073,-7.219396861376012,0.003778864907737781,0.0026219524124158353,0.002677271427821929,0.00328865283921684,-724.1725576578528,3725.0655131576477,-34.11486518575468,496.40046084107155,3607.0848585336166,-530.4229988211848,Vision,Movement,0
0.067,0.007748982887867615,0.02231985999441901,67.2394471423235,64.6377592243469,-0.3397188863862045,-7.209289570137071,0.0037667521617885894,0.0026302125227639834,0.002683816418862814,0.0032296949976733692,-724.1527330946611,3725.0371344625923,-34.11883037848201,496.385584178712,3606.9835625579813,-530.396159921487,Vision,Movement,0
0.068,0.007748963749973525,0.0223191633720943,67.2394471423235,64.6377592243469,-0.33933850027390683,-7.199146891713067,0.003757641052381394,0.0026363768532017147,0.0026910296550844985,0.0031727053391374035,-724.1329085314694,3725.008755767537,-34.122795571209345,496.37070751635247,3606.8822665823454,-530.369321021789,Vision,Movement,0
0.069,0.007748943448263068,0.022318432779379,67.2394471423235,64.6377592243469,-0.33895672311109654,-7.1889688499717215,0.0037511362171152775,0.0026402892984533043,0.0026988914090272788,0.0031180827652872323,-724.1130839682776,3724.980377072481,-34.12676076393668,496.355830853993,3606.7809706067096,-530.342482122091,Vision,Movement,0
0.07,0.0077489219583772515,0.022317668060405308,67.2394471423235,64.6377592243469,-0.3385735549316238,-7.178755469360687,0.0037467918192647396,0.0026418211215198445,0.0027073421976928575,0.003066201368058752,-724.0932594050859,3724.9519983774258,-34.13072595666401,496.34095419163344,3606.6796746310742,-530.3156432223932,Vision,Movement,0
0.07100000000000001,0.00774889925859772,0.02231686915604981,67.2394471423235,64.6377592243469,-0.3381889957881712,-7.168506774961317,0.0037441225787756076,0.0026408749948760957,0.0027162825987892105,0.00301740566220624,-724.0734348418941,3724.9236196823704,-34.134691149391344,496.3270593072177,3606.586239358907,-530.2914549405381,Vision,Movement,0
0.07200000000000001,0.007748875330181426,0.022316035740337584,67.2394471423235,64.6377592243469,-0.3378030457518971,-7.158222792451882,0.003742616022173866,0.002637387938978552,0.002725574353483856,0.002972006409238876,-724.0536102787023,3724.8952409873145,-34.13865634211867,496.31439933717326,3606.5026915523745,-530.2706006977977,Vision,Movement,0
0.073,0.007748850157714127,0.022315167643189675,67.2394471423235,64.6377592243469,-0.33741570491210277,-7.147903548116362,0.0037417456490319145,0.0026313330966419445,0.0027350427215051317,0.0029302771359033296,-724.0337857155106,3724.866862292259,-34.14262153484601,496.30173936712873,3606.4191437458426,-530.2497464550574,Vision,Movement,0
0.074,0.007748823729483664,0.022314264932374685,67.2394471423235,64.6377592243469,-0.33702697337757614,-7.137549068852632,0.0037409846158867324,0.002622720378872898,0.002744480032494145,0.002892451446245073,-724.0139611523189,3724.838483597204,-34.146586727573336,496.2890793970842,3606.33559593931,-530.2288922123171,Vision,Movement,0
0.075,0.007748796037872542,0.02231332782186133,67.2394471423235,64.6377592243469,-0.3366368512745221,-7.127159382135745,0.003739819471879789,0.0026115960804462385,0.002753650360178685,0.002858721210220969,-723.994136589127,3724.810104902148,-34.15055192030067,496.2764194270397,3606.252048132778,-530.2080379695767,Vision,Movement,0
0.076,0.007748767079769317,0.022312356751976677,67.2394471423235,64.6377592243469,-0.3362453387479333,-7.116734516072442,0.003737763473565518,0.002598041588050759,0.0027622952234700035,0.0028292356851324367,-723.9743120259353,3724.7817262070926,-34.154517113028,496.2637594569952,3606.168500326246,-530.1871837268363,Vision,Movement,0
0.077,0.007748736857000574,0.022311352181555198,67.2394471423235,64.6377592243469,-0.33585243596123143,-7.106274499363679,0.0037343690553019717,0.002582171300200092,0.002770140191190858,0.0028041015896587474,-723.9544874627436,3724.753347512037,-34.158482305755335,496.2510994869507,3606.0849525197136,-530.166329484096,Vision,Movement,0
0.078,0.007748705376782106,0.02231031449509757,67.2394471423235,64.6377592243469,-0.33545814309624994,-7.095779361313325,0.0037292390938486655,0.0025641298599977168,0.002776902245681733,0.0027833841078169037,-723.9346628995518,3724.7249688169813,-34.16244749848266,496.23843951690617,3606.0014047131813,-530.1454752413556,Vision,Movement,0
0.079,0.0077486726521897005,0.02230924440652898,67.2394471423235,64.6377592243469,-0.33506246035289167,-7.085249131827744,0.0037220366320568628,0.002544088782573215,0.0027822977501734945,0.0027671087532756414,-723.9169785362556,3724.7027127019155,-34.163953975473135,496.22577954686165,3605.9178569066494,-530.1246209986152,Vision,Movement,0
0.08,0.007748638702650215,0.02230814292352558,67.2394471423235,64.6377592243469,-0.33466538795049505,-7.074683841423965,0.003712492713426092,0.0025222425559917497,0.0027860508502004495,0.002755263989785707,-723.8996794893031,3724.6815588811446,-34.16501779130847,496.2131195768172,3605.834309100117,-530.1037667558749,Vision,Movement,0
0.081,0.007748603554451256,0.02230701145590175,67.2394471423235,64.6377592243469,-0.3342669261257225,-7.064083521192255,0.0037004119827809506,0.0024988043150680067,0.0027879021106095455,0.0027478044864171045,-723.8823804423506,3724.6604050603737,-34.166081607143816,496.20045960677265,3605.7507612935847,-530.0829125131346,Vision,Movement,0
0.082,0.007748567241270259,0.02230585180961237,67.2394471423235,64.6377592243469,-0.33386707513394803,-7.053448202851499,0.003685675797382174,0.002474001221220123,0.0027876171569410388,0.002744654873332681,-723.8650813953982,3724.639251239603,-34.167145422979154,496.18779963672813,3605.667213487053,-530.0620582703942,Vision,Movement,0
0.083,0.007748529804721967,0.02230466626915166,67.2394471423235,64.6377592243469,-0.33346583524855755,-7.042777918710925,0.003668242781883184,0.0024480697065206248,0.0027849950613907273,0.0027457138348609923,-723.8477823484457,3724.618097418832,-34.1682092388145,496.1751396666836,3605.5836656805204,-530.0412040276539,Vision,Movement,0
0.084,0.0077484912949248065,0.022303457683422238,67.2394471423235,64.6377592243469,-0.3330632067623292,-7.032072701679053,0.0036481469907557293,0.002421250750745108,0.0027798761827672685,0.0027508583347853476,-723.8304833014932,3724.596943598061,-34.169273054649835,496.1624796966391,3605.500117873988,-530.0203497849135,Vision,Movement,0
0.085,0.007748451771083569,0.02230222932491666,67.2394471423235,64.6377592243469,-0.33265918998529337,-7.021332585271851,0.003625494017546,0.0023937853545133543,0.0027721491413161634,0.002759947738198244,-723.8131842545407,3724.57578977729,-34.17033687048518,496.1498197265946,3605.416570067456,-529.9994955421731,Vision,Movement,0
0.08600000000000001,0.0077484113020900875,0.022300984780998633,67.2394471423235,64.6377592243469,-0.33225378524614346,-7.010557603574718,0.0036004554550512604,0.0023659103515282966,0.002761756607743018,0.0027728276026404166,-723.7958852075883,3724.554635956519,-34.17140068632052,496.1371597565501,3605.333022260924,-529.9786412994328,Vision,Movement,0
0.08700000000000001,0.007748369967138609,0.022299727432539117,67.2394471423235,64.6377592243469,-0.33184699289186237,-6.999747791298577,0.0035732620810248004,0.0023378546638068813,0.0027486996304027333,0.002789332964851585,-723.7785861606358,3724.5334821357483,-34.17246450215586,496.12449978650557,3605.2494744543915,-529.9577870566924,Vision,Movement,0
0.088,0.0077483278563561814,0.02229846006900129,67.2394471423235,64.6377592243469,-0.33143881328769825,-6.988903183740943,0.0035441960942116705,0.002309836053004936,0.002733040305850717,0.002809291025326967,-723.7612871136834,3724.5123283149774,-34.1735283179912,496.11780743568175,3605.18581082348,-529.9424903024852,Vision,Movement,0
0.089,0.007748285071447225,0.022297184805542693,67.2394471423235,64.6377592243469,-0.3310292468168114,-6.978023816794926,0.003513582710805563,0.0022820583724417884,0.0027149026944065396,0.002832523190201615,-723.7439880667308,3724.4911744942065,-34.17459213382654,496.11224136856254,3605.1258999827774,-529.9282424269919,Vision,Movement,0
0.09,0.007748241726349107,0.022295903143561963,67.2394471423235,64.6377592243469,-0.33061829388167546,-6.967109726957385,0.0034817814484902907,0.0022547093008125404,0.002694471976262135,0.0028588464567196534,-723.7266890197784,3724.4700206734356,-34.17565594966188,496.10667530144326,3605.0659891420746,-529.9139945514987,Vision,Movement,0
0.091,0.007748197947898535,0.022294616382787437,67.2394471423235,64.6377592243469,-0.3302059549018964,-6.956160951290322,0.0034491774264377288,0.0022279585475511923,0.0026719919200870437,0.0028880741534985633,-723.7093899728259,3724.4488668526647,-34.176719765497225,496.101109234324,3605.0060783013714,-529.8997466760054,Vision,Movement,0
0.092,0.00774815387650732,0.022293325955052103,67.2394471423235,64.6377592243469,-0.32979223031564775,-6.9451775274776875,0.0034161729604505415,0.0022019565464968163,0.0026477607800589856,0.002920016101281847,-723.6920909258733,3724.4277130318937,-34.17778358133256,496.09554316720477,3604.9461674606687,-529.8854988005121,Vision,Movement,0
0.093,0.007748109666843859,0.02229203292115446,67.2394471423235,64.6377592243469,-0.3293771205792787,-6.934159493785791,0.003383179633638574,0.002176833666847914,0.00262212575264773,0.002954478336269086,-723.6747918789209,3724.406559211123,-34.17884739716791,496.0899771000855,3604.886256619966,-529.8712509250188,Vision,Movement,0
0.094,0.00774806548851953,0.022290737774980147,67.2394471423235,64.6377592243469,-0.3289606261669556,-6.923106889072373,0.0033506109191061484,0.002152699959868329,0.0025954761435784883,0.0029912625938651473,-723.6574928319684,3724.385405390352,-34.179911213003244,496.0844110329663,3604.826345779263,-529.8570030495256,Vision,Movement,0
0.095,0.007748021526777852,0.022289440450627192,67.2394471423235,64.6377592243469,-0.32854274757208124,-6.912019752794741,0.003318875366993073,0.002129645438463967,0.002568235437218233,0.0030301657664555965,-723.6454424711884,3724.37174688331,-34.18075599901202,496.078844965847,3604.76643493856,-529.8427551740323,Vision,Movement,0
0.096,0.00774797798318169,0.022288140435086944,67.2394471423235,64.6377592243469,-0.3281234853050785,-6.900898124970601,0.003288370356881662,0.0021077408719714927,0.0025408525167479566,0.0030709795350967466,-723.6414562395191,3724.3696042443644,-34.181264265605755,496.0732788987278,3604.7065240978573,-529.828507298539,Vision,Movement,0
0.097,0.007747935076298621,0.022286837216374873,67.2394471423235,64.6377592243469,-0.32770283989484683,-6.889742046235549,0.0032594764260355327,0.0020870390711046757,0.0025137923289067564,0.0031134903502780214,-723.6374700078499,3724.3674616054186,-34.18177253219949,496.0677128316085,3604.6466132571545,-529.8142594230458,Vision,Movement,0
0.098,0.007747893042378633,0.022285531109328415,67.2394471423235,64.6377592243469,-0.32728081188836994,-6.878551557802846,0.0032325521628461485,0.0020675766183073383,0.002487526305211989,0.0031574799023404336,-723.6334837761806,3724.365318966473,-34.182280798793215,496.0621467644892,3604.5867024164513,-529.8000115475525,Vision,Movement,0
0.099,0.007747852136022212,0.022284223183256947,67.2394471423235,64.6377592243469,-0.3268574018506867,-6.867326701472327,0.003207929594367528,0.002049375957192701,0.0024625228497394827,0.0032027261582264098,-723.6294975445113,3724.363176327527,-34.18278906538695,496.05658069737,3604.5267915757486,-529.7857636720591,Vision,Movement,0
0.1,0.007747812630834824,0.022282914851745536,67.2394471423235,64.6377592243469,-0.32643261036452526,-6.856067519629633,0.00318590993232448,0.0020324477015644994,0.002439238191501954,0.0032490049471690695,-723.625511312842,3724.3610336885818,-34.18329733198068,496.05101463025073,3604.466880735046,-529.7715157965658,Vision,Movement,0
0.101,0.007747774820063823,0.022281607843838244,67.2394471423235,64.6377592243469,-0.3260064380317435,-6.844774055254352,0.0031667595293416993,0.0020167929887948835,0.0024181078813483876,0.003296091968549601,-723.6215250811728,3724.358891049636,-34.18380559857441,496.0454485631315,3604.406969894343,-529.7572679210726,Vision,Movement,0
0.10200000000000001,0.007747739017213433,0.022280304198573412,67.2394471423235,64.6377592243469,-0.3255788854710723,-6.833446351880157,0.003150705959387,0.002002405702177669,0.0023995391741289188,0.003343765009320197,-723.6175388495034,3724.35674841069,-34.18431386516814,496.03988249601224,3604.34705905364,-529.7430200455793,Vision,Movement,0
0.10300000000000001,0.007747705556632959,0.022279006592913684,67.2394471423235,64.6377592243469,-0.32514995331959545,-6.822084453653141,0.003137934252622399,0.001989274421496471,0.002383904463825763,0.003391806131134305,-723.6135526178341,3724.3546057717444,-34.18482213176188,496.03431642889296,3604.287148212937,-529.728772170086,Vision,Movement,0
0.10400000000000001,0.007747674794073985,0.022277718449790405,67.2394471423235,64.6377592243469,-0.3247196422323402,-6.810688405290812,0.0031285834367389617,0.001977384012095128,0.002371535836518795,0.0034400036320500742,-723.6095663861648,3724.3524631327987,-34.1853303983556,496.0290251435964,3604.2279412941093,-529.7143796421182,Vision,Movement,0
0.105,0.007747647107211179,0.02227644390528564,67.2394471423235,64.6377592243469,-0.32428795288190615,-6.799258252091305,0.003122743622083098,0.0019667168085764357,0.0023627207000846027,0.003488153675745213,-723.6055801544956,3724.350320493853,-34.18583866494934,496.02460609363555,3604.170968822695,-529.6995279462237,Vision,Movement,0
0.106,0.007747622896120511,0.02227518715396628,67.2394471423235,64.6377592243469,-0.3238548859599229,-6.78779403994149,0.003120453886218201,0.001957253372495005,0.0023576983650323803,0.003536061580169198,-723.6015939228263,3724.348177854907,-34.18634693154307,496.0201870436747,3604.113996351281,-529.6846762503293,Vision,Movement,0
0.107,0.007747602583709564,0.02227395213929891,67.2394471423235,64.6377592243469,-0.3234204421747597,-6.776295815276559,0.003121701168110053,0.0019489728113212554,0.002356657404708107,0.003583542828457677,-723.597607691157,3724.3460352159614,-34.1868551981368,496.01576799371384,3604.057023879867,-529.669824554435,Vision,Movement,0
0.108,0.007747586616094356,0.022272742497657063,67.2394471423235,64.6377592243469,-0.32298462225302554,-6.7647636251390555,0.0031264203064929213,0.001941852660675687,0.0023597336186348622,0.0036304238809141947,-723.5936214594877,3724.3438925770156,-34.18736346473053,496.011348943753,3604.0000514084527,-529.6549728585405,Vision,Movement,0
0.109,0.007747575462913966,0.02227156156511727,67.2394471423235,64.6377592243469,-0.3225474269391618,-6.753197517137227,0.003134495285972512,0.0019358683604154962,0.0023670084574629988,0.0036765428334972284,-723.5896352278185,3724.3417499380703,-34.187871731324265,496.0069298937921,3603.943078937038,-529.6401211626462,Vision,Movement,0
0.11,0.007747569617578776,0.02227041239383525,67.2394471423235,64.6377592243469,-0.3221088569954059,-6.741597539454046,0.003145761698424172,0.0019309923854275643,0.0023785078317607455,0.0037217499224339074,-723.5856489961492,3724.3396072991245,-34.18837999791799,496.00251084383126,3603.886106465624,-529.6252694667518,Vision,Movement,0
0.111,0.007747569597442792,0.022269297770017314,67.2394471423235,64.6377592243469,-0.3216689132014159,-6.729963740846281,0.003160010373975251,0.001927193107733199,0.002394201302326363,0.0037659078635404078,-723.5816627644799,3724.3374646601787,-34.188888264511725,495.9980917938704,3603.8291339942098,-529.6104177708573,Vision,Movement,0
0.112,0.007747575943893109,0.022268220231752258,67.2394471423235,64.6377592243469,-0.32122759635574766,-6.718296170652601,0.003176992071742658,0.0019244334679606296,0.00241400172229138,0.003808892029701829,-723.5776765328106,3724.335322021233,-34.18939653110546,495.9936727439096,3603.7721615227956,-529.595566074963,Vision,Movement,0
0.113,0.007747589222349451,0.022267182086362594,67.2394471423235,64.6377592243469,-0.32078490727352454,-6.706594878752504,0.0031964230483317057,0.001922669532554411,0.0024377654572668985,0.0038505904732035693,-723.5736903011413,3724.333179382287,-34.189904797699185,495.98925369394874,3603.7151890513815,-529.5807143790686,Vision,Movement,0
0.114,0.007747610022163043,0.022266185427189465,67.2394471423235,64.6377592243469,-0.32034084678796293,-6.694859915626142,0.003217991266455513,0.0019218490164258654,0.0024652933302092136,0.0038909037664808226,-723.569704069472,3724.3310367433414,-34.19041306429292,495.9848346439879,3603.658216579967,-529.5658626831743,Vision,Movement,0
0.115,0.00774763895640887,0.022265232149766785,67.2394471423235,64.6377592243469,-0.31989541574994407,-6.683091332312223,0.003241362998645153,0.0019219098570156768,0.0024963324166835956,0.003929744578422085,-723.5657178378027,3724.3288941043957,-34.19092133088665,495.980415594027,3603.6012441085527,-529.5510109872798,Vision,Movement,0
0.116,0.007747676661559165,0.022264323967348943,67.2394471423235,64.6377592243469,-0.3194486150276333,-6.671289180426431,0.0032661896160745196,0.0019227789294429807,0.002530578769147502,0.003967036841605044,-723.5617316061334,3724.32675146545,-34.19142959748038,495.97599654406616,3603.5442716371385,-529.5361592913854,Vision,Movement,0
0.117,0.007747723797031294,0.022263462425764,67.2394471423235,64.6377592243469,-0.31900044550798484,-6.659453512119924,0.0032921143901435365,0.0019243709896866299,0.002567681101227557,0.004002714330530574,-723.5577453744642,3724.3246088265046,-34.19193786407411,495.9715774941053,3603.4872991657244,-529.5213075954911,Vision,Movement,0
0.11800000000000001,0.007747781044598157,0.022262648917563077,67.2394471423235,64.6377592243469,-0.3185509080947242,-6.647584380139701,0.0033187791419374197,0.001926587922557542,0.0026072454160529944,0.004036718496935775,-723.5537591427949,3724.322466187559,-34.19244613066785,495.96715844414445,3603.43032669431,-529.5064558995966,Vision,Movement,0
0.11900000000000001,0.00774784910765209,0.02226188469544453,67.2394471423235,64.6377592243469,-0.3181000037080063,-6.635681837785728,0.0033458305499228813,0.0019293183528323755,0.0026488405159059217,0.004068995525643164,-723.5497729111256,3724.320323548613,-34.19295439726157,495.9627393941836,3603.373354222896,-529.4916042037023,Vision,Movement,0
0.12,0.007747928710310296,0.02226117088492918,67.2394471423235,64.6377592243469,-0.31764773328787255,-6.62374593892004,0.0033729258893166153,0.0019324376558465795,0.00269200428749706,0.004099492745277194,-723.5457866794563,3724.3181809096673,-34.19346266385531,495.9583203442227,3603.3163817514815,-529.4767525078079,Vision,Movement,0
0.121,0.00774802059635267,0.022260508496268188,67.2394471423235,64.6377592243469,-0.31719409779027546,-6.6117767379656875,0.0033997379584414155,0.0019358083907149968,0.002736250634381601,0.004128154674183395,-723.5418004477871,3724.3160382707215,-34.19397093044904,495.94962318661493,3603.250374230821,-529.4589722000477,Vision,Movement,0
0.122,0.00774812552797885,0.022259898435564765,67.2394471423235,64.6377592243469,-0.31673909818867496,-6.599774289914795,0.0034259589878714767,0.0019392811814424719,0.0027810769229367465,0.004154919039204502,-723.5378142161178,3724.3138956317757,-34.194479197042774,495.93849750367997,3603.1792378429745,-529.4395294263851,Vision,Movement,0
0.123,0.007748244284374567,0.02225934151509588,67.2394471423235,64.6377592243469,-0.31628273547515506,-6.5877386502864335,0.003451303459643496,0.0019426960784590793,0.002825971810555278,0.004179713081180103,-723.5338279844485,3724.31175299283,-34.1949874636365,495.927371820745,3603.1081014551282,-529.4200866527226,Vision,Movement,0
0.124,0.007748377660073723,0.02225883846281765,67.2394471423235,64.6377592243469,-0.3158250106580217,-6.575669875187767,0.0034755099578923955,0.0019458844340604665,0.002870423322954872,0.004202450409632995,-723.5298417527791,3724.309610353884,-34.195495730230235,495.91624613781005,3603.0369650672815,-529.40064387906,Vision,Movement,0
0.125,0.007748526463105781,0.02225838993104331,67.2394471423235,64.6377592243469,-0.31536592476337144,-6.563568021270445,0.003498342353085287,0.001948671322304235,0.002913927043821225,0.004223028638213869,-723.5258555211099,3724.3074677149384,-34.19600399682397,495.90512045487515,3602.965828679435,-529.3812011053975,Vision,Movement,0
0.126,0.007748691512915152,0.022257996504281695,67.2394471423235,64.6377592243469,-0.31490547883464787,-6.551433145740085,0.0035195907132375974,0.0019508785253148715,0.0029559942680913495,0.004241328015588053,-723.5218692894406,3724.305325075993,-34.196512263417695,495.8939947719402,3602.894692291589,-529.3617583317349,Vision,Movement,0
0.127,0.007748873638039325,0.022257658706226147,67.2394471423235,64.6377592243469,-0.31444367393224887,-6.539265306364318,0.0035390723143748004,0.0019523280775803778,0.0029961599516714517,0.004257211228324826,-723.5178830577713,3724.3031824370473,-34.19702053001143,495.8828690890052,3602.8235559037425,-529.3423155580724,Vision,Movement,0
0.128,0.007749073673534895,0.022257377005884666,67.2394471423235,64.6377592243469,-0.31398051113507147,-6.527064561430132,0.0035566330315774334,0.0019528463033868064,0.003033990273998048,0.004270524470709111,-723.5149227447636,3724.305152968659,-34.19805390046689,495.8717434060703,3602.752419515896,-529.3228727844098,Vision,Movement,0
0.129,0.007749292458136708,0.022257151822843588,67.2394471423235,64.6377592243469,-0.3135159915384274,-6.5148309698056845,0.0035721492800360375,0.001952268220206035,0.003069089640602771,0.004281099770061366,-723.5130391795007,3724.311440457636,-34.19963839102582,495.86061772313536,3602.6812831280495,-529.3034300107473,Vision,Movement,0
0.13,0.007749530831138131,0.02225698353165669,67.2394471423235,64.6377592243469,-0.3130501162536994,-6.502564590896085,0.003585530557094751,0.0019504421353486376,0.0031011069954253647,0.004288758460719927,-723.5111556142376,3724.3177279466126,-34.20122288158475,495.8494920402004,3602.610146740203,-529.2839872370847,Vision,Movement,0
0.131,0.007749789628978936,0.022256872465353746,67.2394471423235,64.6377592243469,-0.31258288641189,-6.4902654846526175,0.0035967225025520786,0.0019472342377062335,0.003129741349463715,0.004293315644629557,-723.5092720489747,3724.3240154355894,-34.20280737214368,495.8383663572655,3602.539010352357,-529.2645444634222,Vision,Movement,0
0.132,0.007750069681528195,0.022256818918062467,67.2394471423235,64.6377592243469,-0.31211430315952676,-6.477933711571534,0.0036057102421215505,0.0019425329720802749,0.0031547464366895456,0.00429458547988451,-723.5073884837118,3724.3303029245662,-34.20439186270261,495.82724067433054,3602.46787396451,-529.2451016897596,Vision,Movement,0
0.133,0.007750371808048411,0.022256823146738852,67.2394471423235,64.6377592243469,-0.3116443676603087,-6.465569332702075,0.0036125216289184608,0.0019362529816287742,0.0031759343854140696,0.004292387180340256,-723.5055049184488,3724.336590413543,-34.20597635326154,495.8161149913956,3602.396737576664,-529.2256589160971,Vision,Movement,0
0.134,0.007750696812829144,0.022256885372000865,67.2394471423235,64.6377592243469,-0.311173081096247,-6.45317240960321,0.0036172298942089808,0.0019283384249444702,0.0031931782807804003,0.004286551631570384,-723.5036213531858,3724.3428779025194,-34.20756084382047,495.8049893084606,3602.3256011888175,-529.2062161424345,Vision,Movement,0
0.135,0.00775104548047568,0.022257005778062344,67.2394471423235,64.6377592243469,-0.3107004446651932,-6.44074300440622,0.0036199552058603325,0.001918765520307004,0.0032064135147310876,0.0042769284821355105,-723.5017377879229,3724.349165391496,-34.2091453343794,495.7938636255257,3602.2544648009707,-529.186773368772,Vision,Movement,0
0.136,0.007751418570841999,0.022257184511762066,67.2394471423235,64.6377592243469,-0.310226459582452,-6.428281179769764,0.003620864734684283,0.0019075442257258652,0.003215637867372169,0.004263393462157588,-723.4998542226599,3724.355452880473,-34.21072982493833,495.78273794259076,3602.1833284131244,-529.1673305951095,Vision,Movement,0
0.137,0.007751816813594679,0.022257421680687485,67.2394471423235,64.6377592243469,-0.30975112708032004,-6.415786998889513,0.0036201710119623644,0.001894719012466551,0.0032209103126757672,0.004245855565591162,-723.497970657397,3724.3617403694498,-34.21231431549726,495.7715022415729,3602.1120231362547,-529.1479453460861,Vision,Movement,0
0.138,0.007752240902396403,0.02225771735038847,67.2394471423235,64.6377592243469,-0.3092744484076854,-6.403260525506161,0.003618128542522923,0.0018803687309249448,0.0032223485781369744,0.0042242636601186635,-723.4960870921341,3724.3680278584266,-34.21389880605619,495.7573392270108,3602.036224133332,-529.1300906877681,Vision,Movement,0
0.139,0.0077526914886972085,0.022258071540680907,67.2394471423235,64.6377592243469,-0.3087964248316096,-6.390701823861656,0.003615028743199072,0.0018646056028630677,0.0032201255114731545,0.004198612092423614,-723.494203526871,3724.3743153474034,-34.21548329661512,495.74317621244865,3601.960425130409,-529.1122360294501,Vision,Movement,0
0.14,0.0077531691751233315,0.02225848422103837,67.2394471423235,64.6377592243469,-0.3083170576351778,-6.378110958762412,0.0036111933007569393,0.0018475733949430597,0.003214464332001014,0.004168944948804096,-723.4923199616081,3724.38060283638,-34.21706778717405,495.7290131978865,3601.884626127486,-529.0943813711322,Vision,Movement,0
0.14100000000000001,0.007753674508453386,0.02225895530507252,67.2394471423235,64.6377592243469,-0.3078363481171547,-6.365487995533803,0.003606966054135586,0.001829444831922621,0.003205632879892045,0.004135358788687235,-723.4904363963452,3724.386890325357,-34.218652277732986,495.71485018332436,3601.8088271245633,-529.0765267128141,Vision,Movement,0
0.14200000000000002,0.007754207972171762,0.022259484644101286,67.2394471423235,64.6377592243469,-0.3073542975956233,-6.352833000029488,0.0036027035834791965,0.0018104183070184025,0.003193937014869076,0.004098003836808645,-723.4885528310822,3724.3931778143337,-34.22023676829191,495.7006871687622,3601.7330281216405,-529.0586720544961,Vision,Movement,0
0.14300000000000002,0.0077547699785918325,0.02226007201980724,67.2394471423235,64.6377592243469,-0.30687090740377304,-6.340146038630071,0.0035987648514631968,0.0017907139541569659,0.003179713343831495,0.00405708373681705,-723.4866692658193,3724.3994653033105,-34.221821258850845,495.6865241542001,3601.6572291187176,-529.0408173961782,Vision,Movement,0
0.14400000000000002,0.007755360860540495,0.02226071713598856,67.2394471423235,64.6377592243469,-0.3063861788915963,-6.327427178251075,0.003595500427844176,0.0017705691573986298,0.0031633214809269933,0.0040128540193003935,-723.4848421644423,3724.40572091491,-34.223403795505455,495.6723611396379,3601.5814301157943,-529.0229627378602,Vision,Movement,0
0.145,0.007755980862598809,0.022261419609405097,67.2394471423235,64.6377592243469,-0.30590011342705364,-6.314676486298607,0.00359324194564861,0.0017502335791065807,0.003145136082130486,0.003965619443160903,-723.484583894555,3724.411090823509,-34.22493204353691,495.6581981250758,3601.5056311128715,-529.0051080795422,Vision,Movement,0
0.146,0.007756630131891677,0.02226217895972571,67.2394471423235,64.6377592243469,-0.3054127123935328,-6.30189403073331,0.0035922924419595948,0.0017299638091117268,0.003125538948198558,0.0039157303604078954,-723.4843256246678,3724.4164607321077,-34.22646029156837,495.64403511051364,3601.4298321099486,-528.9872534212243,Vision,Movement,0
0.147,0.00775730870842512,0.022262994598580506,67.2394471423235,64.6377592243469,-0.3049239771914908,-6.289079880024559,0.00359291813985011,0.001710017782246711,0.0031049115222280817,0.0038635782401098633,-723.4840673547806,3724.4218306407065,-34.22798853959983,495.6298720959515,3601.3540331070258,-528.9693987629063,Vision,Movement,0
0.148,0.007758016514966779,0.022263865817728396,67.2394471423235,64.6377592243469,-0.30443390923761915,-6.276234103169613,0.003595342071143326,0.001690649160641977,0.0030836280900877274,0.0038095904725300805,-723.4838090848934,3724.427200549305,-34.22951678763129,495.61570908138935,3601.278234104103,-528.9515441045883,Vision,Movement,0
0.149,0.007758753346470722,0.022264791776346663,67.2394471423235,64.6377592243469,-0.3039425099664449,-6.263356769648898,0.003599739764365294,0.0016721019049487694,0.00306204991951917,0.0037542245477640776,-723.4835508150062,3724.4325704579037,-34.231045035662746,495.6015460668272,3601.20243510118,-528.9336894462704,Vision,Movement,0
0.15,0.00775951885904628,0.02226577148745528,67.2394471423235,64.6377592243469,-0.30344978082778074,-6.250447949490447,0.003606237055149966,0.001654605256033991,0.003040520476127174,0.0036979616722428105,-723.483292545119,3724.4379403665025,-34.23257328369421,495.58738305226507,3601.126636098257,-528.9158347879523,Vision,Movement,0
0.151,0.00776031255847587,0.022266803803488094,67.2394471423235,64.6377592243469,-0.3029557232887559,-6.237507713223253,0.003614909923679705,0.0016383693252317642,0.003019361756690582,0.003641299871590047,-723.4830342752317,3724.4433102751013,-34.23410153172566,495.5732200377029,3601.0508370953344,-528.8979801296343,Vision,Movement,0
0.152,0.007761133788284649,0.02226788740102678,67.2394471423235,64.6377592243469,-0.30246033883132695,-6.2245361318867065,0.003625786126442383,0.001623581450132391,0.002998871691603464,0.0035847466617886475,-723.4827760053445,3724.4486801837,-34.23562977975712,495.5590570231408,3600.9750380924115,-528.8801254713164,Vision,Movement,0
0.153,0.00776198171737326,0.02226902076471545,67.2394471423235,64.6377592243469,-0.30196362895642165,-6.2115332770291385,0.003638848277470841,0.0016104034195389104,0.0029793224917015475,0.003528811436570755,-723.4825177354572,3724.454050092299,-34.23715802778858,495.54489400857864,3600.8992390894887,-528.8622708129984,Vision,Movement,0
0.154,0.007762855327220487,0.02227020217037663,67.2394471423235,64.6377592243469,-0.3014655951792525,-6.198499220715749,0.0036540379642008404,0.001598969607832639,0.0029609597759545567,0.003473997780553109,-723.4822594655701,3724.459420000898,-34.23868627582004,495.5348518379407,3600.8321404503367,-528.8489668735599,Vision,Movement,0
0.155,0.007763753398671115,0.02227142966735215,67.2394471423235,64.6377592243469,-0.30096623903309694,-6.185434035483339,0.0036712604657414332,0.0015893859949521986,0.002944002333685522,0.0034207959409676644,-723.4820011956829,3724.464789909496,-34.2402145238515,495.53017179666034,3600.7763629087203,-528.8415844258716,Vision,Movement,0
0.156,0.007764674498325881,0.022272701060095365,67.2394471423235,64.6377592243469,-0.30046556206626085,-6.172337794405467,0.0036903896891376515,0.0015817299859546292,0.0029286424280254002,0.0033696756806656353,-723.4817429257956,3724.470159818095,-34.241742771882954,495.5254917553799,3600.7205853671044,-528.8342019781832,Vision,Movement,0
0.157,0.0077656169645590085,0.02227401388904693,67.2394471423235,64.6377592243469,-0.29996356584377526,-6.159210571045136,0.0037112730387100865,0.0015760508971336244,0.002915046588779336,0.0033210797117007368,-723.4814846559084,3724.475529726694,-34.24327101991442,495.5208117140995,3600.664807825488,-528.8268195304948,Vision,Movement,0
0.158,0.007766578893223883,0.02227536541082678,67.2394471423235,64.6377592243469,-0.29946025194690346,-6.146052439464736,0.0037337360383836574,0.0015723709566632161,0.0029033568460301866,0.0032754178896820313,-723.4812263860211,3724.4808996352926,-34.24479926794587,495.5161316728191,3600.609030283872,-528.8194370828064,Vision,Movement,0
0.159,0.007767558123321631,0.022276752577787835,67.2394471423235,64.6377592243469,-0.2989556219727264,-6.132863474233936,0.003757586576786575,0.0015706866866392736,0.002893692326858687,0.00323306231782155,-723.4809681161339,3724.4862695438915,-34.246327515977335,495.5114516315387,3600.553252742256,-528.8120546351181,Vision,Movement,0
0.16,0.007768552223871574,0.022278172016994658,67.2394471423235,64.6377592243469,-0.2984496775357773,-6.119643750383974,0.003782618636115573,0.0015709705729152496,0.002886151109732878,0.0031943434602293426,-723.4807098462468,3724.4916394524903,-34.24785576400879,495.50677159025827,3600.4974752006397,-528.8046721874297,Vision,Movement,0
0.161,0.0077695584886399065,0.022279620008829347,67.2394471423235,64.6377592243469,-0.29794242026542844,-6.106393343473402,0.0038086153566740024,0.0015731729566092665,0.0028808122306997978,0.0031595473022744463,-723.4804331282122,3724.4925562443277,-34.24950911996599,495.5020915489779,3600.4416976590237,-528.7972897397414,Vision,Movement,0
0.162,0.007770573982894343,0.02228109246601614,67.2394471423235,64.6377592243469,-0.29743385180796855,-6.093112329540253,0.003835351336216749,0.0015772240780937915,0.0028777377584935527,0.0031289135336124113,-723.4801431369424,3724.4902690685626,-34.251252489673625,495.49741150769745,3600.3859201174077,-528.7899072920529,Vision,Movement,0
0.163,0.007771595824544616,0.02228258491720335,67.2394471423235,64.6377592243469,-0.29692397382405783,-6.079800785111577,0.0038625941745232756,0.0015830361823520695,0.0028769748764090972,0.0031026346879312184,-723.4798531456726,3724.487981892798,-34.252995859381265,495.49273146641707,3600.3301425757913,-528.7825248443646,Vision,Movement,0
0.164,0.007772621955739481,0.02228409252225203,67.2394471423235,64.6377592243469,-0.2964127879929678,-6.066458787201877,0.003890105408513763,0.0015905055810953427,0.0028785579101136063,0.0030808561657745003,-723.4795631544026,3724.4856947170333,-34.254739229088905,495.48805142513663,3600.2743650341754,-528.7751423966762,Vision,Movement,0
0.165,0.0077736508182698885,0.022285610203545244,67.2394471423235,64.6377592243469,-0.2959002960077801,-6.053086413320975,0.003917641102474562,0.0015995145828251174,0.002882510230195992,0.0030636770948329864,-723.4792731631328,3724.483407541268,-34.25648259879654,495.48337138385625,3600.2185874925594,-528.7677599489879,Vision,Movement,0
0.166,0.007774681640725509,0.02228713298747459,67.2394471423235,64.6377592243469,-0.29538649957925744,-6.039683741427785,0.003944952419803745,0.0016099332453532597,0.002888845946293874,0.003051152008852259,-723.478983171863,3724.4811203655036,-34.25822596850418,495.4786913425758,3600.162809950943,-528.7603775012994,Vision,Movement,0
0.167,0.007775713992470409,0.022288656094878175,67.2394471423235,64.6377592243469,-0.2948714004327307,-6.026250849996739,0.0039717864930297695,0.0016216209605019224,0.002897571297729355,0.0030432933111961876,-723.4786931805932,3724.478833189739,-34.25996933821181,495.47401130129543,3600.107032409327,-528.7529950536111,Vision,Movement,0
0.168,0.007776747192538092,0.02229017498010555,67.2394471423235,64.6377592243469,-0.29435500030983786,-6.012787817969769,0.0039978878263492576,0.0016344279292643564,0.0029086856362653983,0.0030400744290651613,-723.4784031893233,3724.476546013974,-34.26171270791945,495.469331260015,3600.0512548677107,-528.7456126059227,Vision,Movement,0
0.169,0.007777780173173818,0.022291685181263954,67.2394471423235,64.6377592243469,-0.2938373009680172,-5.99929472477587,0.004023000346722262,0.0016481966192172211,0.002922181894934593,0.003041433494459611,-723.4781131980535,3724.474258838209,-34.26345607762709,495.4646512187346,3599.9954773260947,-528.7382301582344,Vision,Movement,0
0.17,0.007778811447880308,0.022293181900379287,67.2394471423235,64.6377592243469,-0.2933183041800847,-5.985771650284534,0.004046870103846904,0.0016627633063055845,0.002938046449497018,0.003047277340479301,-723.4778232067837,3724.4719716624445,-34.26519944733472,495.4599711774542,3599.9396997844788,-528.730847710546,Vision,Movement,0
0.171,0.0077798391265035925,0.022294659983484986,67.2394471423235,64.6377592243469,-0.29279801173590336,-5.9722186748726305,0.004069248539811736,0.0016779597908277099,0.0029562583152535136,0.0030574855951524646,-723.4775332155139,3724.4696844866794,-34.26694281704236,495.46633549459796,3599.912399202151,-528.7321407902574,Vision,Movement,0
0.17200000000000001,0.007780861073167733,0.022296114608260236,67.2394471423235,64.6377592243469,-0.29227642543970817,-5.958635879375516,0.004089896204205248,0.001693615352071094,0.002976787689368783,0.0030719146848245163,-723.477243224244,3724.4673973109147,-34.26868618675,495.47491586813084,3599.890812536843,-528.7351746191538,Vision,Movement,0
0.17300000000000001,0.007781875625183556,0.022297541780422057,67.2394471423235,64.6377592243469,-0.29175354711222784,-5.9450233450966765,0.004108586745767776,0.0017095589754679136,0.0029995939276352443,0.0030904015954835076,-723.4769532329742,3724.46511013515,-34.270429556457636,495.48349624166366,3599.869225871535,-528.73820844805,Vision,Movement,0
0.17400000000000002,0.0077828816580187525,0.022298938073944365,67.2394471423235,64.6377592243469,-0.29122937858808723,-5.9313811538060754,0.004125110950350378,0.0017256218531067839,0.0030246230980197635,0.0031127672552978174,-723.4766632417044,3724.462822959385,-34.272172926165275,495.49207661519654,3599.847639206227,-528.7412422769463,Vision,Movement,0
0.17500000000000002,0.007783878400533831,0.022300300361013253,67.2394471423235,64.6377592243469,-0.29070392172014015,-5.917709387747964,0.0041392805465874346,0.0017416401208099092,0.0030518052599194955,0.003138819400630703,-723.4763732504346,3724.4605357836203,-34.273916295872915,495.5006569887294,3599.826052540919,-528.7442761058426,Vision,Movement,0
0.176,0.007784865693932721,0.022301625848174605,67.2394471423235,64.6377592243469,-0.29017717837455703,-5.904008129593819,0.0041509315233051675,0.0017574577586188954,0.003081051596975427,0.0031683548022516405,-723.4760832591647,3724.4582486078557,-34.27565966558055,495.5092373622623,3599.804465875611,-528.7473099347388,Vision,Movement,0
0.177,0.007785843169579249,0.02230291224121662,67.2394471423235,64.6377592243469,-0.2896491504347844,-5.890277462509899,0.00415992679885771,0.0017729295423137086,0.003112251515334959,0.003201160774470283,-723.4757925596986,3724.4553047108298,-34.277558654353854,495.5178177357952,3599.7828792103032,-528.7503437636351,Vision,Movement,0
0.178,0.007786809968505604,0.022304157925449895,67.2394471423235,64.6377592243469,-0.2891198397983576,-5.876517470107735,0.004166158192174552,0.0017879238921728428,0.00314526982264937,0.003237015954076986,-723.4754970526958,3724.4479027124335,-34.28051405109027,495.52639810932806,3599.7612925449953,-528.7533775925314,Vision,Movement,0
0.179,0.007787764673164399,0.022305361832179755,67.2394471423235,64.6377592243469,-0.28858924837868205,-5.862728236454359,0.004169547684873133,0.0018023254277276608,0.003179944106411399,0.0032756903871538354,-723.475201545693,3724.440500714037,-34.2834694478267,495.5349784828609,3599.7397058796873,-528.7564114214276,Vision,Movement,0
0.18,0.007788705298452329,0.022306523439197444,67.2394471423235,64.6377592243469,-0.2880573781045114,-5.848909846080092,0.004170047913460105,0.0018160370322128866,0.003216082418661537,0.003316944992863335,-723.4749060386904,3724.433098715641,-34.28642484456312,495.54355885639376,3599.7181192143794,-528.7594452503239,Vision,Movement,0
0.181,0.007789629365143125,0.02230764252361374,67.2394471423235,64.6377592243469,-0.2875242309195193,-5.835062383931091,0.004167641748580507,0.0018289812709987394,0.0032534613568450084,0.0033605304995350175,-723.4746105316876,3724.425696717245,-34.28938024129954,495.55213922992664,3599.6965325490714,-528.7624790792202,Vision,Movement,0
0.182,0.007790534332283814,0.022308718661992008,67.2394471423235,64.6377592243469,-0.2869898087840012,-5.821185935437431,0.004162340805037965,0.0018411010842976315,0.0032918246396517093,0.00340618599025411,-723.4743150246849,3724.4182947188488,-34.292335638035965,495.5607196034595,3599.6749458837635,-528.7655129081164,Vision,Movement,0
0.183,0.007791418284996815,0.02230975146138452,67.2394471423235,64.6377592243469,-0.28645411367211904,-5.8072805864631265,0.004154182836332776,0.0018523597603719135,0.0033308823236696157,0.003453637252635614,-723.4740195176822,3724.4108927204525,-34.29529103477239,495.5692999769924,3599.6533592184555,-528.7685467370127,Vision,Movement,0
0.184,0.007792279248332942,0.02231074114878778,67.2394471423235,64.6377592243469,-0.2859171475737002,-5.7933464233158745,0.0041432281616394125,0.0018627402710778384,0.0033703108533572395,0.0035025951686210514,-723.4737240106795,3724.403490722056,-34.29824643150881,495.5778803505252,3599.6317725531476,-528.771580565909,Vision,Movement,0
0.185,0.00779311509898768,0.022311688455038232,67.2394471423235,64.6377592243469,-0.28537891249373,-5.77938353274531,0.004129555458007008,0.0018722441073482643,0.0034097541447059986,0.003552754380427489,-723.4734285036767,3724.3960887236603,-34.30120182824523,495.5864607240581,3599.6101858878396,-528.7746143948053,Vision,Movement,0
0.186,0.007793924319561239,0.022312594343567346,67.2394471423235,64.6377592243469,-0.2848394104522886,-5.765392001950762,0.004113257359127431,0.0018808897816328235,0.0034488258600209897,0.003603792421832747,-723.473132996674,3724.388686725264,-34.30415722498166,495.595041097591,3599.5885992225317,-528.7776482237016,Vision,Movement,0
0.187,0.0077947055870214565,0.02231345991453494,67.2394471423235,64.6377592243469,-0.28429864348412004,-5.751371918533333,0.004094436320380309,0.0018887111677882604,0.0034871129588640846,0.00365536944128978,-723.4728374896713,3724.3812847268678,-34.30711262171808,495.60362147112386,3599.5670125572237,-528.7806820525979,Vision,Movement,0
0.188,0.007795458077479937,0.022314286057737626,67.2394471423235,64.6377592243469,-0.2837566136403511,-5.73732337056462,0.004073201154679023,0.0018957558257528667,0.0035241805295556238,0.003707128598957988,-723.4725419826685,3724.373882728472,-34.3100680184545,495.61220184465674,3599.545425891916,-528.7837158814941,Vision,Movement,0
0.189,0.00779618118846646,0.0223150734184916,67.2394471423235,64.6377592243469,-0.2832133229857031,-5.723246446536138,0.004049664539963704,0.001902083410251198,0.003559577829726374,0.0037586972065438416,-723.4722464756659,3724.3664807300756,-34.313023415190926,495.621565862173,3599.52610850066,-528.7868775960853,Vision,Movement,0
0.19,0.0077968743226099965,0.022315822861941535,67.2394471423235,64.6377592243469,-0.2826687736003135,-5.7091412353697155,0.004023941678702165,0.0019077641999562492,0.0035928453907532677,0.0038096886758447594,-723.4719509686631,3724.3590787316793,-34.31597881192735,495.6351694981134,3599.5190681845625,-528.7907311893356,Vision,Movement,0
0.191,0.007797537370465743,0.022316535330503953,67.2394471423235,64.6377592243469,-0.28212296757919975,-5.695007826425218,0.003996150173914042,0.0019128777219569138,0.00362352297831834,0.00385970533651655,-723.4716554616604,3724.351676733283,-34.31893420866377,495.6487731340537,3599.512027868465,-528.794584782586,Vision,Movement,0
0.192,0.007798170176102524,0.02231721143944545,67.2394471423235,64.6377592243469,-0.28157590703182617,-5.6808463094522565,0.003966411078631836,0.0019175113933639428,0.0036511581562460697,0.003908342162839933,-723.4713599546576,3724.344274734887,-34.321889605400195,495.66237676999407,3599.5049875523673,-528.7984383758362,Vision,Movement,0
0.193,0.007798773018445951,0.022317851876442963,67.2394471423235,64.6377592243469,-0.2810275940838379,-5.666656774659431,0.00393485096265402,0.0019217590643485635,0.0036753151776423437,0.003955191410262936,-723.471064447655,3724.336872736491,-34.32484500213662,495.67598040593447,3599.4979472362697,-528.8022919690866,Vision,Movement,0
0.194,0.007799346214988223,0.022318457460420528,67.2394471423235,64.6377592243469,-0.28047803087424544,-5.6524393126632875,0.0039016047243309346,0.0019257193403367221,0.0036955839295736096,0.003999848111286738,-723.4721701024112,3724.3322252112944,-34.3288621162724,495.6895840418748,3599.490906920172,-528.8061455623368,Vision,Movement,0
0.195,0.007799889943257842,0.022319028764586267,67.2394471423235,64.6377592243469,-0.2799272195572646,-5.638194014498201,0.0038668187881313316,0.001929493598288679,0.0037115886877971366,0.004041916321986408,-723.4739497043932,3724.3289025649415,-34.333389907702546,495.7031876778152,3599.4838666040746,-528.8099991555872,Vision,Movement,0
0.196,0.0078004048550590534,0.022319566319376948,67.2394471423235,64.6377592243469,-0.27937516230179654,-5.623920971614549,0.003830654300448769,0.0019331836826075837,0.0037229964947030334,0.004081015961958048,-723.4757293063753,3724.325579918589,-34.337917699132696,495.71679131375555,3599.476826287977,-528.8138527488375,Vision,Movement,0
0.197,0.007800891365504605,0.022320071161547866,67.2394471423235,64.6377592243469,-0.27882186129136194,-5.6096202758863996,0.0037932899693206407,0.0019368893405867758,0.003729525026989605,0.004116790047877727,-723.4775089083574,3724.3222572722366,-34.342445490562845,495.73039494969595,3599.4697859718794,-528.8177063420878,Vision,Movement,0
0.198,0.007801349198092362,0.02232054460781326,67.2394471423235,64.6377592243469,-0.278267318723665,-5.5952920195628035,0.0037549242501031615,0.0019407055119609626,0.0037309498402158985,0.004148912068016933,-723.4792885103395,3724.318934625884,-34.346973281992994,495.7439985856363,3599.462745655782,-528.8215599353381,Vision,Movement,0
0.199,0.007801777288914817,0.022320987719747262,67.2394471423235,64.6377592243469,-0.27771153681234384,-5.58093629533763,0.0037157766265593925,0.0019447196110273278,0.0037271108575362864,0.004177093165075205,-723.4810681123217,3724.3156119795317,-34.351501073423144,495.7576022215767,3599.4557053396843,-528.8254135285885,Vision,Movement,0
0.2,0.0078021737869391206,0.022321401481558808,67.2394471423235,64.6377592243469,-0.277154517784124,-5.566553196298566,0.0036760877768436183,0.0019490089310800415,0.003717917924990332,0.004201088710840237,-723.4828477143038,3724.3122893331793,-34.35602886485329,495.77120585751703,3599.4486650235867,-528.8292671218387,Vision,Movement,0
0.201,0.007802536164488545,0.022321787077333934,67.2394471423235,64.6377592243469,-0.2765962638806792,-5.552142815947219,0.0036361184782321494,0.0019536382722661243,0.003703355214579336,0.004220703826143884,-723.4846273162859,3724.3089666868264,-34.36055665628345,495.78480949345743,3599.441624707489,-528.8331207150891,Vision,Movement,0
0.202,0.007802861806291546,0.022322145595093077,67.2394471423235,64.6377592243469,-0.27603677735808246,-5.537705248150112,0.00359614721151137,0.001958657873680844,0.0036834842568594225,0.004235797475677778,-723.486406918268,3724.305644040474,-34.3650844477136,495.7984131293978,3599.4345843913916,-528.8369743083393,Vision,Movement,0
0.203,0.007803148759095464,0.022322478174609216,67.2394471423235,64.6377592243469,-0.27547606048639195,-5.523240587208929,0.003556466574532696,0.0019641017365358707,0.003658445445347556,0.004246284922059142,-723.4881865202501,3724.3023213941215,-34.36961223914375,495.81201676533817,3599.427544075294,-528.8408279015897,Vision,Movement,0
0.20400000000000001,0.007803395820451215,0.022322786051723782,67.2394471423235,64.6377592243469,-0.27491411555178485,-5.508748927808553,0.003517378766021487,0.0019699864459039335,0.003628457947695547,0.004252138473192229,-723.4899661222322,3724.298998747769,-34.3741400305739,495.8256204012785,3599.4205037591964,-528.8446814948401,Vision,Movement,0
0.20500000000000002,0.007803602503904282,0.02232307041619138,67.2394471423235,64.6377592243469,-0.2743509448514799,-5.494230365027069,0.003479190504575991,0.0019763106049813157,0.003593818039388218,0.004253386534286223,-723.4917457242144,3724.2956761014166,-34.37866782200405,495.8392240372189,3599.413463443099,-528.8485350880903,Vision,Movement,0
0.20600000000000002,0.007803768979799221,0.022323332599594663,67.2394471423235,64.6377592243469,-0.27378655070026353,-5.479684994333864,0.0034422077753334863,0.001983054971701235,0.0035548959232832677,0.004250110999227873,-723.4935253261965,3724.2923534550637,-34.3831956134342,495.8480672394071,3599.404187441572,-528.8464856978532,Vision,Movement,0
0.20700000000000002,0.007803895281283064,0.022323574024662368,67.2394471423235,64.6377592243469,-0.27322093542519355,-5.465112911597266,0.00340673074653824,0.0019901833415637282,0.0035121311182724877,0.004242443055646503,-723.4953049281786,3724.2890308087112,-34.387723404864346,495.8530831954444,3599.393114015924,-528.8396904856997,Vision,Movement,0
0.20800000000000002,0.007803981377663132,0.022323796026389515,67.2394471423235,64.6377592243469,-0.2726541013679481,-5.45051421303516,0.0033730491122225406,0.0019976441670132294,0.003466026496112135,0.0042305575824999235,-723.4970845301607,3724.285708162359,-34.392251196294495,495.85809915148167,3599.3820405902757,-528.8328952735462,Vision,Movement,0
0.209,0.007804027582605452,0.02232399957546809,67.2394471423235,64.6377592243469,-0.2720860508838982,-5.435888995285803,0.003341438015576344,0.0020053728541934127,0.0034171410276461534,0.004214666465360948,-723.4988641321428,3724.2823855160063,-34.396778987724645,495.863115107519,3599.3709671646275,-528.8261000613928,Vision,Movement,0
0.21,0.007804033983218359,0.022324185508105315,67.2394471423235,64.6377592243469,-0.27151678634388643,-5.421237355355985,0.0033121546184021007,0.0020132946330876362,0.0033660812908694274,0.00419501127192204,-723.5016439246543,3724.2812036116006,-34.401586346200226,495.86813106355623,3599.3598937389793,-528.8193048492394,Vision,Movement,0
0.211,0.0078040009861820945,0.02232435471122123,67.2394471423235,64.6377592243469,-0.2709463101313254,-5.406559390641271,0.0032854353099794637,0.0020213278549711766,0.003313491824288789,0.004171855763981825,-723.5079278602398,3724.2875217442825,-34.407373160986474,495.8731470195935,3599.348820313331,-528.8125096370859,Vision,Movement,0
0.212,0.0078039292932610485,0.02232450867232844,67.2394471423235,64.6377592243469,-0.27037462464407197,-5.391855198876352,0.003261493498814656,0.002029387529222562,0.003260044478714502,0.004145478669552611,-723.5142117958252,3724.2938398769643,-34.41315997577272,495.8781629756308,3599.337746887683,-528.8057144249325,Vision,Movement,0
0.213,0.007803819983108404,0.022324649327394027,67.2394471423235,64.6377592243469,-0.26980173229349425,-5.377124878206243,0.0032405178958402267,0.0020373888812785573,0.003206427009590875,0.004116167046525469,-723.5204957314105,3724.300158009646,-34.41894679055898,495.88317893166806,3599.3266734620347,-528.7989192127791,Vision,Movement,0
0.214,0.007803673871873884,0.022324779076763793,67.2394471423235,64.6377592243469,-0.2692276355062879,-5.362368527133461,0.003222671179572171,0.0020452507163212126,0.003153331217707738,0.004084210486524594,-723.5267796669959,3724.3064761423284,-34.424733605345224,495.88819488770537,3599.3156000363865,-528.7921240006256,Vision,Movement,0
0.215,0.007803491852729596,0.02232490054694564,67.2394471423235,64.6377592243469,-0.2686523367219242,-5.34758624452814,0.003208088936937189,0.002052898418222053,0.0031014409730456493,0.00404989635086149,-723.5330636025813,3724.31279427501,-34.43052042013148,495.8932108437426,3599.3045266107383,-528.7853287884722,Vision,Movement,0
0.216,0.0078032751177599105,0.02232501688231336,67.2394471423235,64.6377592243469,-0.26807583839232624,-5.332778129625422,0.003196878806664579,0.0020602664755322623,0.0030514204490732608,0.004013506169616983,-723.5393475381667,3724.319112407692,-34.43630723491773,495.8982267997799,3599.2934531850906,-528.7785335763188,Vision,Movement,0
0.217,0.00780302460461919,0.022325131178199967,67.2394471423235,64.6377592243469,-0.2674981429860587,-5.317944282023512,0.0031891198009824954,0.002067300475990704,0.0030039028776269083,0.003975313242623003,-723.5456314737521,3724.3254305403743,-34.44209404970398,495.9032427558172,3599.2823797594424,-528.7717383641652,Vision,Movement,0
0.218,0.007802741645779829,0.022325246170328435,67.2394471423235,64.6377592243469,-0.2669192529833981,-5.303084801691245,0.003184861814235376,0.00207395854800728,0.002959480111415108,0.003935581367993329,-723.5519154093374,3724.331748673056,-34.44788086449023,495.90825871185444,3599.271306333794,-528.7649431520118,Vision,Movement,0
0.219,0.00780242782594518,0.022325364235826126,67.2394471423235,64.6377592243469,-0.266339170878357,-5.288199788918025,0.0031841253142588003,0.0020802122720762306,0.002918693243903244,0.0038945645325376486,-723.5581993449229,3724.338066805738,-34.453667679276485,495.91327466789176,3599.260232908146,-528.7581479398584,Vision,Movement,0
0.22,0.00780208504962978,0.022325487294631574,67.2394471423235,64.6377592243469,-0.2657578991799917,-5.273289344385638,0.003186901151575608,0.0020860471383758136,0.0028820244807765097,0.0038525073544303126,-723.5644832805083,3724.34438493842,-34.45945449406273,495.918290623929,3599.249159482498,-528.751352727705,Vision,Movement,0
0.221,0.007801714806491663,0.0223256170015975,67.2394471423235,64.6377592243469,-0.26517544040944985,-5.258353569114883,0.003193150353919985,0.0020914626564705087,0.0028498903906608217,0.0038096460509867837,-723.5707672160936,3724.350703071102,-34.46524130884899,495.92330657996627,3599.2380860568496,-528.7445575155515,Vision,Movement,0
0.222,0.007801318193768806,0.022325754865013956,67.2394471423235,64.6377592243469,-0.2645917971019055,-5.24339256447644,0.00320280375823866,0.002096472203590002,0.0028226366072896148,0.003766209695175345,-723.577051151679,3724.357021203784,-34.471028123635236,495.9283225360036,3599.2270126312014,-528.7377623033981,Vision,Movement,0
0.223,0.007800896697394684,0.02232590202943824,67.2394471423235,64.6377592243469,-0.2640069718059851,-5.228406432198413,0.003215761404824678,0.002101102643773967,0.002800534007043724,0.00372242153641344,-723.5833350872645,3724.3633393364657,-34.476814938421484,495.92555347786566,3599.214750705375,-528.7219620252871,Vision,Movement,0
0.224,0.007800451778523337,0.022326059037550982,67.2394471423235,64.6377592243469,-0.26342096708332285,-5.213395274315976,0.0032318917527468065,0.0021053937019539946,0.002783776331420076,0.003678500225572925,-723.5896190228498,3724.369657469148,-34.48260175320774,495.92239758793437,3599.202429723824,-528.7057142918811,Vision,Movement,0
0.225,0.007799984534017662,0.022326226077938847,67.2394471423235,64.6377592243469,-0.2628337855104069,-5.198359193243637,0.003251030902480101,0.002109397063756649,0.002772479162903947,0.0036346608802281972,-723.5959029584352,3724.37597560183,-34.48838856799399,495.919241698003,3599.190108742273,-528.6894665584751,Vision,Movement,0
0.226,0.007799496434942057,0.022326403566731285,67.2394471423235,64.6377592243469,-0.2622454296759745,-5.1832982917221635,0.0032729820707344216,0.002113175189524687,0.002766680118864664,0.003591115991696638,-723.6021868940206,3724.3822937345117,-34.49417538278024,495.9160858080717,3599.1777877607215,-528.6732188250693,Vision,Movement,0
0.227,0.00779898912479045,0.02232659200618904,67.2394471423235,64.6377592243469,-0.2616559021806954,-5.168212672838332,0.003297515537133211,0.002116799855766609,0.002766340118551123,0.0035480761888450883,-723.6111680090526,3724.3929745875753,-34.50103476316459,495.9129299181404,3599.1654667791704,-528.6569710916633,Vision,Movement,0
0.228,0.007798464450568698,0.02232679173770036,67.2394471423235,64.6377592243469,-0.26106520564143115,-5.153102439964864,0.0033243692027071646,0.0021203504471254096,0.0027713455932488946,0.003505750857271181,-723.6209598856116,3724.4049668572166,-34.50821655254675,495.9097740282091,3599.1531457976193,-528.6407233582573,Vision,Movement,0
0.229,0.007797924558588685,0.022327003207978872,67.2394471423235,64.6377592243469,-0.26047334268621314,-5.137967696891147,0.003353249819878726,0.0021239120112749145,0.0027815115409839724,0.003464348595323065,-723.6307517621707,3724.4169591268583,-34.515398341928915,495.90661813827774,3599.140824816068,-528.6244756248514,Vision,Movement,0
0.23,0.007797371843453245,0.02232722725743912,67.2394471423235,64.6377592243469,-0.25988031595631156,-5.122808547645796,0.0033838349145133752,0.002127573071667736,0.002796585369006733,0.0034240774584814253,-723.6405436387297,3724.4289513964995,-34.522580131311074,495.90346224834644,3599.128503834517,-528.6082278914454,Vision,Movement,0
0.231,0.00779680893800657,0.022327465036098202,67.2394471423235,64.6377592243469,-0.2592861281075599,-5.107625096633864,0.0034157754309690285,0.0021314231937728523,0.0028162515061740142,0.0033851449078168686,-723.6503355152888,3724.440943666141,-34.52976192069323,495.9003063584151,3599.1161828529657,-528.5919801580394,Vision,Movement,0
0.232,0.0077962382326305976,0.022327717510290734,67.2394471423235,64.6377592243469,-0.25869078180735117,-5.092417448570317,0.003448699146061068,0.0021355503371570553,0.0028401367895510474,0.00334775734988105,-723.6601273918478,3724.452935935782,-34.53694371007539,495.8971504684838,3599.103861871414,-528.5757324246334,Vision,Movement,0
0.233,0.007795662526817143,0.02232798564236883,67.2394471423235,64.6377592243469,-0.2580942797366089,-5.0771857085005605,0.003482214869719477,0.002140038093768602,0.0028678166227411924,0.003312119171535465,-723.6699192684068,3724.4649282054233,-34.54412549945756,495.89399457855245,3599.091540889863,-528.5594846912276,Vision,Movement,0
0.234,0.007795084792853858,0.022328270379376302,67.2394471423235,64.6377592243469,-0.2574966245892015,-5.061929981749549,0.0035159173782548935,0.0021449629772843344,0.0028988218705365094,0.0032784312275650766,-723.679711144966,3724.4769204750646,-34.551307288839716,495.89083868862116,3599.079219908312,-528.5432369578216,Vision,Movement,0
0.23500000000000001,0.007794507778734392,0.022328572880333828,67.2394471423235,64.6377592243469,-0.25689781907149445,-5.046650373994894,0.0035493929555001497,0.0021503919475227415,0.0029326464064992493,0.0032468888188794936,-723.689503021525,3724.488912744706,-34.558489078221875,495.88768279868987,3599.066898926761,-528.5269892244156,Vision,Movement,0
0.23600000000000002,0.007793934701642603,0.02232889408875662,67.2394471423235,64.6377592243469,-0.25629786590422554,-5.031346991212339,0.0035822253940444478,0.0021563803183841223,0.0029687551825199345,0.0032176792695085073,-723.6992948980841,3724.5009050143476,-34.565670867604034,495.8845269087585,3599.0545779452095,-528.5107414910096,Vision,Movement,0
0.23700000000000002,0.007793368860456485,0.022329234449255473,67.2394471423235,64.6377592243469,-0.2556967678198488,-5.016019939686119,0.003614002323041946,0.002162970130994196,0.00300659264446492,0.0031909792453609907,-723.7090867746431,3724.512897283989,-34.5728526569862,495.8813710188272,3599.0422569636585,-528.4944937576037,Vision,Movement,0
0.23800000000000002,0.007792813013775204,0.02232959412332539,67.2394471423235,64.6377592243469,-0.2550945275622254,-5.00066932600695,0.0036443217282083164,0.0021701889978118236,0.003045591285405281,0.003166951952529986,-723.7188786512022,3724.52488955363,-34.58003444636836,495.8782151288959,3599.0299359821074,-528.4782460241977,Vision,Movement,0
0.23900000000000002,0.007792269258996546,0.02232997355134268,67.2394471423235,64.6377592243469,-0.254491147890949,-4.985295257079471,0.0036727984835895613,0.0021780493500199363,0.0030851801137378805,0.0031457443431529572,-723.7286705277612,3724.5368818232714,-34.58721623575052,495.87491317848827,3599.0271664526904,-528.463261432417,Vision,Movement,0
0.24,0.00779173904091878,0.022330373062333844,67.2394471423235,64.6377592243469,-0.2538866315762352,-4.969897840071064,0.0036990706441935957,0.0021865479693685373,0.0031247928185224303,0.00312748446377551,-723.7384624043203,3724.5488740929127,-34.594398025132676,495.871341153303,3599.0420581440003,-528.4506124669618,Vision,Movement,0
0.241,0.007791223289727045,0.022330792943515948,67.2394471423235,64.6377592243469,-0.25328098140103394,-4.954477182485432,0.0037228052090429167,0.002195665682129063,0.0031638754353711285,0.0031122790830059414,-723.7482542808793,3724.560866362554,-34.601579814514835,495.8677691281177,3599.0569498353107,-528.4379635015067,Vision,Movement,0
0.242,0.0077907230600285935,0.02233123342849874,67.2394471423235,64.6377592243469,-0.2526742001623707,-4.939033392108434,0.0037437031081472877,0.002205367138532149,0.0032018933619612226,0.0031002116943015514,-723.7580461574385,3724.572858632195,-34.608761603897,495.8641971029324,3599.071841526621,-528.4253145360517,Vision,Movement,0
0.243,0.007790239931366623,0.022331694592022888,67.2394471423235,64.6377592243469,-0.25206629066829256,-4.92356657702872,0.0037615032885778103,0.002215600661687787,0.003238337638185715,0.0030913409124987516,-723.7680146423108,3724.5845429636474,-34.61662985256454,495.8606250777471,3599.0867332179314,-528.4126655705966,Vision,Movement,0
0.244,0.007789775286154968,0.022332176620859876,67.2394471423235,64.6377592243469,-0.25145725573987476,-4.908076845586367,0.0037759859285897385,0.0022262981959464984,0.0032727304764254665,0.0030856992135014716,-723.7783659268638,3724.59555983705,-34.62598600624672,495.8570530525618,3599.1016249092413,-528.4000166051414,Vision,Movement,0
0.245,0.0077893305421275535,0.0223326793303515,67.2394471423235,64.6377592243469,-0.2508470982106227,-4.892564306446764,0.0037869749364691178,0.0022373754158498565,0.003304630070566326,0.003083291944635123,-723.7887172114167,3724.606576710453,-34.63534215992889,495.8534810273765,3599.1165166005517,-528.3873676396863,Vision,Movement,0
0.246,0.007788907729470781,0.022333201959032396,67.2394471423235,64.6377592243469,-0.25023582092602276,-4.877029068545407,0.0037943399484172227,0.0022487320781148447,0.003333634714666129,0.003084096552666284,-723.7990684959698,3724.6175935838555,-34.644698313611066,495.8499090021912,3599.131408291862,-528.3747186742312,Vision,Movement,0
0.247,0.007788508707371089,0.022333743479057696,67.2394471423235,64.6377592243469,-0.24962342674544355,-4.8614712410983625,0.003797998017950705,0.002260252702225567,0.0033593862276939802,0.0030880620111557746,-723.8094197805227,3724.6286104572578,-34.654054467293236,495.84633697700593,3599.146299983172,-528.3620697087762,Vision,Movement,0
0.248,0.007788134804225213,0.02233430269088821,67.2394471423235,64.6377592243469,-0.249009918539431,-4.845890933599454,0.0037979151106793305,0.0022718076419827745,0.003381572645352417,0.0030951084641089254,-723.8197710650757,3724.6396273306605,-34.66341062097541,495.84276495182064,3599.1611916744823,-528.349420743321,Vision,Movement,0
0.249,0.007787786750115283,0.022334877975085047,67.2394471423235,64.6377592243469,-0.24839529918940773,-4.83028825581824,0.003794107422144931,0.0022832545699320575,0.003399930129517024,0.0031051271380853744,-723.8301223496286,3724.650644204063,-34.67276677465758,495.83919292663535,3599.1760833657927,-528.3367717778659,Vision,Movement,0
0.25,0.007787464675228026,0.022335467780611157,67.2394471423235,64.6377592243469,-0.24777957159206124,-4.814663317807374,0.003786642447191062,0.002294440358018211,0.003414244061777924,0.0031179805969812967,-723.8404736341815,3724.6616610774654,-34.68212292833976,495.83562090145006,3599.1909750571026,-528.3241228124108,Vision,Movement,0
0.251,0.007787168137088084,0.022336070875164822,67.2394471423235,64.6377592243469,-0.24716273865414762,-4.799016229850946,0.0037756396485165073,0.002305203309261371,0.0034243493160392596,0.0031335034008602766,-723.8508249187345,3724.672677950868,-34.69147908202193,495.83204887626476,3599.205866748413,-528.3114738469558,Vision,Movement,0
0.252,0.007786896255426524,0.022336686242888724,67.2394471423235,64.6377592243469,-0.24654480329464762,-4.7833471025388885,0.0037612705047246867,0.0023153756720929136,0.0034301297410539926,0.0031515031797971584,-723.8611762032874,3724.683694824271,-34.700835235704105,495.8284768510795,3599.2207584397233,-528.2988248815007,Vision,Movement,0
0.253,0.0077866483353187434,0.022337312945213832,67.2394471423235,64.6377592243469,-0.24592576844612146,-4.767656046712134,0.0037437576802062424,0.002324786350534363,0.0034315169242854666,0.003171762076672429,-723.8715274878404,3724.6947116976735,-34.710191389386274,495.8249048258942,3599.2356501310337,-528.2861759160455,Vision,Movement,0
0.254,0.007786424246945371,0.02233794990696813,67.2394471423235,64.6377592243469,-0.24530563705160796,-4.751943173483358,0.003723373071439097,0.002333263710939269,0.0034284883388328896,0.0031940384868548023,-723.8818787723933,3724.7057285710757,-34.719547543068444,495.8213328007089,3599.2505418223436,-528.2735269505904,Vision,Movement,0
0.255,0.007786224016661871,0.022338595727899473,67.2394471423235,64.6377592243469,-0.24468441206666583,-4.7362085941851495,0.0037004345648536286,0.002340638382164327,0.003421064989781979,0.0032180690423242596,-723.8922300569462,3724.7167454444784,-34.72890369675062,495.8177607755236,3599.265433513654,-528.2608779851353,Vision,Movement,0
0.256,0.007786048310299236,0.022339248562769795,67.2394471423235,64.6377592243469,-0.2440620964587632,-4.720452420444712,0.0036753014861583455,0.0023467459517376586,0.003409308684632468,0.0032435708271040887,-723.9025813414992,3724.727762317881,-34.73825985043279,495.81253247569737,3599.3116053842323,-528.2570269655957,Vision,Movement,0
0.257,0.00778589771286108,0.02233990587560748,67.2394471423235,64.6377592243469,-0.24343869320682715,-4.704674764127941,0.003648368882869974,0.0023514294755866455,0.0033933190598055235,0.003270243832922778,-723.9129326260521,3724.738779191284,-34.74761600411497,495.80675008830826,3599.3682416777187,-528.2561191973078,Vision,Movement,0
0.258,0.007785772471889435,0.022340564607212374,67.2394471423235,64.6377592243469,-0.24281420530317024,-4.688875737350879,0.0036200608822452257,0.002354541743386846,0.0033732304927822547,0.00329777364502206,-723.923283910605,3724.749796064686,-34.756972157797136,495.80096770091916,3599.424877971205,-528.2552114290199,Vision,Movement,0
0.259,0.007785673196360025,0.022341221661280032,67.2394471423235,64.6377592243469,-0.2421886357507378,-4.673055452487016,0.003590823362523537,0.002355947275881507,0.0033492090144238824,0.0033258343021190283,-723.9336351951581,3724.7608129380887,-34.76632831147931,495.7951853135301,3599.4815142646917,-528.254303660732,Vision,Movement,0
0.26,0.007785601270041576,0.022341873855054904,67.2394471423235,64.6377592243469,-0.2415619875628171,-4.657214022115274,0.003561116094521049,0.0023555240720796477,0.0033214493188145817,0.0033540912370382953,-723.9398577675258,3724.7663574650137,-34.772709678791294,495.789402926141,3599.538150558178,-528.2533958924441,Vision,Movement,0
0.261,0.007785558785636956,0.022342517695414406,67.2394471423235,64.6377592243469,-0.24093426376748356,-4.641351559095055,0.003531404422151556,0.002353165155930438,0.0032901719481054996,0.0033822042091290264,-723.945422323902,3724.7710298334227,-34.778616937733595,495.7836205387519,3599.5947868516646,-528.2524881241562,Vision,Movement,0
0.262,0.007785548224866746,0.022343149334359175,67.2394471423235,64.6377592243469,-0.24030546740232395,-4.625468176510024,0.0035021505229581636,0.0023487799708564005,0.0032556206904577126,0.003409830188447416,-723.9509868802783,3724.7757022018313,-34.7845241966759,495.7778381513628,3599.651423145151,-528.2515803558683,Vision,Movement,0
0.263,0.00778557266967745,0.022343764801145027,67.2394471423235,64.6377592243469,-0.2396756015166334,-4.609563987678768,0.0034738043554563103,0.002342295640003444,0.0032180601704525596,0.0034366262106016537,-723.9565514366545,3724.78037457024,-34.79043145561821,495.77205576397375,3599.7080594386375,-528.2506725875805,Vision,Movement,0
0.264,0.007785635123700243,0.022344360074758183,67.2394471423235,64.6377592243469,-0.23904466917278377,-4.593639106152784,0.003446794527933888,0.002333658080018329,0.0031777735531378607,0.0034622522629440184,-723.9621159930308,3724.785046938649,-34.79633871456052,495.76627337658465,3599.764695732124,-528.2497648192926,Vision,Movement,0
0.265,0.007785738654211962,0.022344931033727276,67.2394471423235,64.6377592243469,-0.23841267344307848,-4.577693645723746,0.003421519455985928,0.0023228329488414017,0.0031350602562254092,0.003486374277853695,-723.967680549407,3724.7897193070576,-34.80224597350283,495.76049098919555,3599.8213320256104,-528.2488570510047,Vision,Movement,0
0.266,0.007785887015766261,0.022345473600029357,67.2394471423235,64.6377592243469,-0.23777961741182507,-4.561727720371281,0.0033983392573051665,0.002309806419749313,0.003090233580836487,0.003508667307941938,-723.9732451057832,3724.7943916754666,-34.808153232445136,495.7547086018065,3599.877968319097,-528.2479492827168,Vision,Movement,0
0.267,0.007786083896854135,0.02234598360716064,67.2394471423235,64.6377592243469,-0.23714550417471414,-4.545741444338413,0.003377568837074495,0.0022945857898718147,0.0030436182203467206,0.0035288189555416536,-723.9788096621595,3724.799064043875,-34.814060491387444,495.7489262144174,3599.9346046125834,-528.2470415144289,Vision,Movement,0
0.268,0.007786332511148597,0.022346456217771198,67.2394471423235,64.6377592243469,-0.23651033683836836,-4.529734932075005,0.0033594725541417573,0.002277199947160373,0.0029955476640343465,0.0035465331300681244,-723.9843742185357,3724.8037364122843,-34.81996775032975,495.7431438270283,3599.9912409060703,-528.246133746141,Vision,Movement,0
0.269,0.0077866355125492505,0.022346885746315867,67.2394471423235,64.6377592243469,-0.235874118522256,-4.513708298248493,0.003344260747353804,0.002257699734454627,0.002946361554928184,0.0035615341889087826,-723.9899387749119,3724.808408780693,-34.82587500927206,495.73736143963924,3600.0478771995568,-528.2452259778531,Vision,Movement,0
0.27,0.007786994977935331,0.022347266286197424,67.2394471423235,64.6377592243469,-0.23523685235552633,-4.497661657741886,0.003332088268122494,0.0022361582565960537,0.0028964030622942124,0.0035735714581627016,-723.9955033312882,3724.8130811491014,-34.83178226821437,495.73157905225014,3600.104513493043,-528.2443182095653,Vision,Movement,0
0.271,0.007787412399793545,0.022347591780497156,67.2394471423235,64.6377592243469,-0.23459854147909662,-4.481595125660991,0.0033230550253808347,0.002212671171322907,0.002846016297568008,0.003582424035527613,-724.0010678876644,3724.8177535175105,-34.83768952715668,495.72579666486104,3600.1611497865297,-528.2434104412774,Vision,Movement,0
0.272,0.007787888680148766,0.02234785540186465,67.2394471423235,64.6377592243469,-0.2339591890450615,-4.465508817282006,0.003317208403164675,0.0021873569865637284,0.0027955437768147464,0.00358790569229512,-724.0066324440406,3724.822425885919,-34.84359678609898,495.7180382125486,3600.2199117927325,-528.2431940645554,Vision,Movement,0
0.273,0.007788424123980365,0.0223480498644078,67.2394471423235,64.6377592243469,-0.2333187982166087,-4.449402848127333,0.0033145472626875928,0.002160357360603933,0.00274532394644477,0.003589869652580995,-724.0121970004169,3724.827098254328,-34.849504045041286,495.69887262650667,3600.2909447971915,-528.2469688502482,Vision,Movement,0
0.274,0.007789018431783044,0.022348167761908427,67.2394471423235,64.6377592243469,-0.2326773721675677,-4.433277333909617,0.003315027111634733,0.0021318373644014523,0.0026956888222185236,0.0035882130422911353,-724.0177615567932,3724.8317706227367,-34.855411303983594,495.6797070404648,3600.36197780165,-528.2507436359409,Vision,Movement,0
0.275,0.007789670691220608,0.022348201100506157,67.2394471423235,64.6377592243469,-0.2320349140843347,-4.417132390552661,0.0033185659603395656,0.0021019856193284594,0.002646961806474521,0.0035828808489359186,-724.0233261131693,3724.8364429911458,-34.8613185629259,495.66054145442286,3600.433010806109,-528.2545184216337,Vision,Movement,0
0.276,0.007790379367864885,0.02234814172568725,67.2394471423235,64.6377592243469,-0.23139142716268427,-4.400968134138908,0.0033250504190863537,0.0020710141792322882,0.0025994557205214507,0.0035738692872088217,-724.0288906695456,3724.8411153595544,-34.86722582186821,495.641375868381,3600.5040438105675,-528.2582932073265,Vision,Movement,0
0.277,0.007791142295034351,0.022347981565372002,67.2394471423235,64.6377592243469,-0.23074691460983704,-4.384784680985495,0.0033343416959387136,0.0020391580009181446,0.002553471039516012,0.003561228489884447,-724.0344552259219,3724.845787727963,-34.87313308081052,495.6222102823391,3600.5750768150265,-528.2620679930193,Vision,Movement,0
0.278,0.007791956662755005,0.022347712522733792,67.2394471423235,64.6377592243469,-0.23010137964346064,-4.368582147587175,0.003346281259200237,0.0020066738546598148,0.002509294265931238,0.003545064423784015,-724.040019782298,3724.850460096372,-34.87904033975283,495.60304469629716,3600.6461098194854,-528.265842778712,Vision,Movement,0
0.279,0.007792819005876959,0.02234732645480522,67.2394471423235,64.6377592243469,-0.2294548254936024,-4.352360650627164,0.003360695982944359,0.001973838578371882,0.0024671963469542913,0.0035255398941246275,-724.0455843386743,3724.8551324647806,-34.884947598695135,495.5838791102553,3600.717142823944,-528.2696175644048,Vision,Movement,0
0.28,0.007793725191391763,0.0223468149403417,67.2394471423235,64.6377592243469,-0.2288072553994856,-4.336120306974218,0.00337740260758769,0.0019409466619552216,0.0024274310388382615,0.0035028744925443816,-724.0511488950506,3724.8598048331896,-34.89085485763744,495.56471352421335,3600.788175828403,-528.2733923500975,Vision,Movement,0
0.281,0.0077946704050034605,0.022346168973496533,67.2394471423235,64.6377592243469,-0.22815867261162462,-4.319861233680665,0.0033962113589166296,0.0019083072313854275,0.002390233155590957,0.0034773433797661408,-724.0567134514268,3724.864477201598,-34.89676211657975,495.54554793817147,3600.8592088328614,-528.2771671357904,Vision,Movement,0
0.28200000000000003,0.007795649137017783,0.022345379008956917,67.2394471423235,64.6377592243469,-0.22750908039122678,-4.303583547989563,0.003416928607911821,0.001876240545603413,0.0023558166958122227,0.0034492748500374016,-724.062278007803,3724.869149570007,-34.90266937552205,495.52638235212953,3600.9302418373204,-528.2809419214831,Vision,Movement,0
0.28300000000000003,0.007796655167625347,0.022344435267790196,67.2394471423235,64.6377592243469,-0.226858482010105,-4.2872873672819924,0.003439358528245062,0.0018450741144162529,0.002324372896377977,0.003419046675958596,-724.0678425641793,3724.873821938416,-34.90857663446436,495.50721676608765,3601.001274841779,-528.2847167071759,Vision,Movement,0
0.28400000000000003,0.007797681551664314,0.022343327733613853,67.2394471423235,64.6377592243469,-0.22620688075022627,-4.270972809153521,0.003463303817779625,0.0018151385103899662,0.0022960682995382155,0.0033870812737664745,-724.0734071205555,3724.8784943068245,-34.91448389340667,495.4880511800457,3601.072307846238,-528.2884914928687,Vision,Movement,0
0.28500000000000003,0.007798720602959159,0.022342046289042183,67.2394471423235,64.6377592243469,-0.22555427990565424,-4.254639991357759,0.0034885656747325293,0.0017867629170772138,0.002271042939232046,0.0033538397673812093,-724.0789716769317,3724.8831666752335,-34.92039115234898,495.46888559400384,3601.143340850697,-528.2922662785614,Vision,Movement,0
0.28600000000000003,0.007799763878344625,0.022340580524711665,67.2394471423235,64.6377592243469,-0.22490068277932398,-4.238289031827336,0.003514943319442533,0.0017602704503233877,0.0022494087667066396,0.0033198150796895556,-724.084536233308,3724.887839043642,-34.926298411291285,495.44972000796196,3601.2143738551554,-528.2960410642543,Vision,Movement,0
0.28700000000000003,0.0078008021614936664,0.022338919609098517,67.2394471423235,64.6377592243469,-0.22424609268517295,-4.22192004862112,0.0035422333924106115,0.0017359733142543782,0.002231248446477806,0.0032855242325552938,-724.0901007896842,3724.892511412051,-34.93220567023359,495.43055442192,3601.2854068596143,-528.299815849947,Vision,Movement,0
0.28800000000000003,0.007801825446682335,0.02233705176925835,67.2394471423235,64.6377592243469,-0.22359051294749877,-4.205533160000887,0.003570229534591137,0.0017141679001204128,0.0022166146586190595,0.003251500064321215,-724.0956653460604,3724.8971837804597,-34.9381129291759,495.41138883587814,3601.356439864073,-528.3035906356398,Vision,Movement,0
0.289,0.007802822922633589,0.022334964017411654,67.2394471423235,64.6377592243469,-0.22293394690050775,-4.189128484373734,0.0035987223829023218,0.0016951299919304777,0.002205530032446154,0.0032182825546374955,-724.1012299024367,3724.9018561488683,-34.94402018811821,495.3837223253432,3601.415087341725,-528.3044407498141,Vision,Movement,0
0.29,0.007803782956597933,0.02233264231439066,67.2394471423235,64.6377592243469,-0.22227639789026463,-4.172706140304043,0.0036275001228690744,0.0016791102794547815,0.002197987806257562,0.003186409916803307,-724.1067944588129,3724.9065285172774,-34.94992744706052,495.3489867842336,3601.46343550808,-528.3028588235205,Vision,Movement,0
0.291,0.007804693078837596,0.022330071937031824,67.2394471423235,64.6377592243469,-0.22161786927145075,-4.156266246520573,0.0036563496554365077,0.0016663303752587199,0.002193953254525955,0.0031564096157310827,-724.1123590151892,3724.911200885686,-34.955834706002825,495.3142512431241,3601.511783674434,-528.3012768972268,Vision,Movement,0
0.292,0.007805539967697306,0.022327237786286473,67.2394471423235,64.6377592243469,-0.22095836440950734,-4.1398089218635805,0.0036850583579125995,0.0016569794873861935,0.0021933658615845356,0.0031287894887089044,-724.1179235715654,3724.915873254095,-34.961741964945126,495.2795157020146,3601.560131840788,-528.2996949709332,Vision,Movement,0
0.293,0.007806309435454271,0.022324124438111364,67.2394471423235,64.6377592243469,-0.22029788668002825,-4.123334285361744,0.0037134163413513606,0.0016512118270913948,0.0021961421696266594,0.0031040291455112826,-724.1323303969128,3724.9271045530886,-34.974685913701094,495.24478016090507,3601.608480007142,-528.2981130446394,Vision,Movement,0
0.294,0.007806986415156562,0.02232071556721118,67.2394471423235,64.6377592243469,-0.21963643946867067,-4.106842456174368,0.003741219032920352,0.001649144752540989,0.0022021791975916204,0.0030825717925561033,-724.1471423675691,3724.9386363767517,-34.98795227765125,495.21004461979555,3601.6568281734967,-528.2965311183458,Vision,Movement,0
0.295,0.007807554948670178,0.022316993796673405,67.2394471423235,64.6377592243469,-0.21897402617070333,-4.090333553602419,0.003768269876037581,0.0016508575799689248,0.0022113583074226915,0.0030648165878994307,-724.1619543382254,3724.9501682004147,-35.00121864160142,495.17530907868604,3601.705176339851,-528.2949491920521,Vision,Movement,0
0.296,0.007807998176170244,0.02231294073203363,67.2394471423235,64.6377592243469,-0.21831065019296664,-4.07380769708661,0.0037943829602379753,0.001656390947634782,0.0022235493712638127,0.003051111602222197,-724.1767663088817,3724.961700024078,-35.01448500555158,495.1405735375765,3601.753524506205,-528.2933672657584,Vision,Movement,0
0.297,0.007808298327324017,0.022308537055607223,67.2394471423235,64.6377592243469,-0.2176463149506091,-4.05726500621446,0.0038193854439865253,0.0016657466027408766,0.002238615063444111,0.003041747443420763,-724.191578279538,3724.9732318477404,-35.02775136950174,495.10583799646696,3601.8018726725595,-528.2917853394647,Vision,Movement,0
0.298,0.007808436714429626,0.02230376283101502,67.2394471423235,64.6377592243469,-0.21698102386924614,-4.040705600667304,0.0038431196690300574,0.0016788874942205649,0.0022564150761797508,0.0030369516092008824,-724.2063902501942,3724.9847636714035,-35.0410177334519,495.07110245535745,3601.8502208389136,-528.290203413171,Vision,Movement,0
0.299,0.007808393727787367,0.02229859787205183,67.2394471423235,64.6377592243469,-0.21631478038430713,-4.024129600297524,0.0038654448555275546,0.001695738082397711,0.0022768100526246358,0.003036883665757917,-724.2212022208505,3724.9962954950665,-35.05428409740206,495.03636691424794,3601.8985690052677,-528.2886214868773,Vision,Movement,0
0.3,0.007808148833594322,0.022293021806142167,67.2394471423235,64.6377592243469,-0.2156475879405842,-4.007537125070503,0.003886238219216123,0.0017161848020181662,0.002299665044595709,0.0030416313901102375,-724.2360141915068,3725.0078273187296,-35.067550461352226,495.0016313731384,3601.946917171622,-528.2870395605836,Vision,Movement,0
0.301,0.00780768057466749,0.022287014377630143,67.2394471423235,64.6377592243469,-0.2149794499941993,-3.9909282950757423,0.0039053953148495708,0.0017400766308780639,0.0023248523209466474,0.003051208030606084,-724.2508261621631,3725.0193591423927,-35.080816825302385,494.96689583202885,3601.9952653379764,-528.28545763429,Vision,Movement,0
0.302,0.0078069665743172156,0.02228055565780865,67.2394471423235,64.6377592243469,-0.21431037000932407,-3.974303230524975,0.003922829434927475,0.0017672257362518929,0.00235225338016474,0.0030655508170052644,-724.2656381328194,3725.0308909660553,-35.09408318925255,494.93216029091934,3602.0436135043306,-528.2838757079962,Vision,Movement,0
0.303,0.007805983543703599,0.022273625814629577,67.2394471423235,64.6377592243469,-0.2136403514603511,-3.9576620517591823,0.003938469991644166,0.0017974082116146322,0.002381760067427948,0.0030845207931797652,-724.2804501034756,3725.0424227897183,-35.10734955320271,494.89742474980983,3602.0919616706847,-528.2822937817026,Vision,Movement,0
0.304,0.007804707293025041,0.02226620472917239,67.2394471423235,64.6377592243469,-0.2129693978312786,-3.941004879195521,0.003952259958300203,0.001830364974400196,0.0024132747547941174,0.003107903974842219,-724.2952620741319,3725.0539546133814,-35.120615917152875,494.8626892087003,3602.140309837039,-528.2807118554089,Vision,Movement,0
0.305,0.007803112746902674,0.02225827200622908,67.2394471423235,64.6377592243469,-0.2122975126156172,-3.92433183340483,0.0039641526010414305,0.001865802945649084,0.0024467095939163896,0.003135413779315357,-724.3100740447882,3725.0654864370445,-35.133882281103034,494.8279536675908,3602.1886580033934,-528.2791299291151,Vision,Movement,0
0.306,0.007801173964336475,0.02224980707285841,67.2394471423235,64.6377592243469,-0.21162469931594047,-3.9076430350544378,0.003974107852977122,0.0019033966559319222,0.002481984897699006,0.0031666946542327303,-724.3248860154445,3725.077018260707,-35.1471486450532,494.7909720037754,3602.2179732289246,-528.2738437098316,Vision,Movement,0
0.307,0.0077988641636245,0.022240789299323254,67.2394471423235,64.6377592243469,-0.21095096144585856,-3.89093860492924,0.003982088735737896,0.0019427904139804094,0.0025190267612324674,0.0032013268471935384,-724.3396979861008,3725.08855008437,-35.16041500900336,494.75385788287,3602.2461660545314,-528.2683390430567,Vision,Movement,0
0.308,0.007796155752649313,0.022231198130544572,67.2394471423235,64.6377592243469,-0.2102763025267198,-3.874218663878585,0.003988058210672916,0.001983601146355224,0.00255776408927986,0.0032388322933151583,-724.3545099567569,3725.100081908033,-35.17368137295352,494.7167437619646,3602.2743588801377,-528.262834376282,Vision,Movement,0
0.309,0.007793020364949172,0.022221013226601968,67.2394471423235,64.6377592243469,-0.20960072608979594,-3.857483332893949,0.003991976769344801,0.0020254219826027556,0.0025981252307618664,0.003278681618126755,-724.3713937012061,3725.113627159504,-35.18675271077635,494.6796296410592,3602.3025517057445,-528.2573297095071,Vision,Movement,0
0.31,0.007789428902003248,0.022210214612252074,67.2394471423235,64.6377592243469,-0.2089242356756188,-3.840732733050553,0.003993800989327489,0.00206782663474687,0.002640034422556333,0.003320302237112032,-724.3903243773285,3725.129161696276,-35.199631360981186,494.6425155201538,3602.3307445313512,-528.2518250427323,Vision,Movement,0
0.311,0.00778535158217343,0.02219878283571178,67.2394471423235,64.6377592243469,-0.20824683483353004,-3.8239669855185823,0.003993483203800211,0.002110374594301419,0.0026834082233254757,0.0033630874778854047,-724.4092550534509,3725.144696233047,-35.21251001118603,494.60540139924836,3602.358937356958,-528.2463203759576,Vision,Movement,0
0.312,0.007780757996756485,0.022186699137006716,67.2394471423235,64.6377592243469,-0.20756852712366236,-3.80718621156137,0.0039909723571264245,0.0021526171358365147,0.0027281520979048836,0.00340640658233187,-724.4281857295734,3725.1602307698186,-35.22538866139087,494.568287278343,3602.3871301825648,-528.2408157091827,Vision,Movement,0
0.313,0.007775617173608934,0.022173945626188,67.2394471423235,64.6377592243469,-0.2068893161136249,-3.7903905325423515,0.0039862160312504535,0.002194104068351892,0.0027741573016977815,0.0034496153783973886,-724.4471164056959,3725.1757653065897,-35.23826731159571,494.5311731574376,3602.415323008171,-528.235311042408,Vision,Movement,0
0.314,0.007769897648820643,0.022160505471705335,67.2394471423235,64.6377592243469,-0.20620920538069978,-3.7735800698718913,0.0039791635300118625,0.002234391116413412,0.0028212982038690643,0.00349206734632544,-724.4660470818183,3725.1912998433613,-35.25114596180056,494.4940590365322,3602.443515833778,-528.2298063756331,Vision,Movement,0
0.315,0.007763567546917756,0.022146363099217393,67.2394471423235,64.6377592243469,-0.20552819851121884,-3.7567549450852007,0.003969769820082691,0.002273047758864,0.0028694301594460866,0.0035331247431880904,-724.4849777579407,3725.2068343801325,-35.2640246120054,494.45694491562676,3602.4717086593846,-528.2243017088583,Vision,Movement,0
0.316,0.007756594670086457,0.022131504401100805,67.2394471423235,64.6377592243469,-0.2048462991004681,-3.7399152797837716,0.003958000074280746,0.0023096653119308503,0.002918387994832428,0.003572169415526471,-724.5039084340631,3725.222368916904,-35.27690326221024,494.41983079472135,3602.4999014849914,-528.2187970420835,Vision,Movement,0
0.317,0.007748946596912868,0.022115916956898272,67.2394471423235,64.6377592243469,-0.204163510752238,-3.7230611956477775,0.003943834550596359,0.002343865018823104,0.0029679851215358853,0.0036086129439692185,-724.5228391101855,3725.2379034536752,-35.28978191241509,494.382716673816,3602.528094310598,-528.2132923753087,Vision,Movement,0
0.318,0.00774059079114199,0.022099590264927825,67.2394471423235,64.6377592243469,-0.203479837080812,-3.7061928144429914,0.003927273540427242,0.0023753058883004313,0.0030180132626775945,0.0036419058338371794,-724.5417697863079,3725.253437990447,-35.30266056261993,494.3456025529106,3602.5562871362044,-528.2077877085338,Vision,Movement,0
0.319,0.007731494720959911,0.02208251598524351,67.2394471423235,64.6377592243469,-0.20279528170763372,-3.689310257967597,0.003908342094468603,0.0024036920085973783,0.0030682427657556786,0.003671545563458496,-724.5607004624303,3725.268972527218,-35.31553921282477,494.30848843200516,3602.584479961811,-528.2022830417591,Vision,Movement,0
0.32,0.00772162598930559,0.022064688194112437,67.2394471423235,64.6377592243469,-0.20210984826351738,-3.6724136481302883,0.0038870941854496025,0.002428779058652845,0.0031184234702638647,0.0036970833983612874,-724.5796311385527,3725.2845070639896,-35.328417863029614,494.27137431109975,3602.612672787418,-528.1967783749842,Vision,Movement,0
0.321,0.007710952475720211,0.02204610365013654,67.2394471423235,64.6377592243469,-0.20142354038797394,-3.655503106891562,0.0038636159453099097,0.0024503797563802062,0.003168286090747471,0.003718129969721516,-724.5985618146751,3725.300041600761,-35.341296513234454,494.23426019019433,3602.6408656130247,-528.1912737082095,Vision,Movement,0
0.322,0.007699442490237469,0.022026762072111277,67.2394471423235,64.6377592243469,-0.2007363617287627,-3.638578756276199,0.0038380276798044956,0.00246836801206469,0.0032175440617902952,0.0037343597015756275,-724.6174924907975,3725.3155761375324,-35.354175163439294,494.19985049062205,3602.6739425134906,-528.1867468448373,Vision,Movement,0
0.323,0.007687064939815475,0.022006666428670205,67.2394471423235,64.6377592243469,-0.2000483159438846,-3.6216407183801564,0.0038104845154722164,0.0024826815855054,0.003265895787518887,0.003745514244636019,-724.6364231669199,3725.331110674304,-35.36705381364414,494.17062920733434,3602.7163894826017,-528.1840958914929,Vision,Movement,0
0.324,0.00767378950780402,0.02198582323972008,67.2394471423235,64.6377592243469,-0.1993594066982363,-3.604689115317356,0.003781175714120327,0.002493323083009308,0.0033130272464649466,0.003751405107536212,-724.6553538430423,3725.346645211075,-35.37993246384898,494.1414079240467,3602.7588364517123,-528.1814449381484,Vision,Movement,0
0.325,0.007659586846930556,0.02196424288961853,67.2394471423235,64.6377592243469,-0.1986696376658299,-3.5877240692979635,0.0037503228304491313,0.002500359188948298,0.003358614915843542,0.003751915662010359,-724.6743561872777,3725.362276337963,-35.392723467889645,494.112186640759,3602.801283420823,-528.178793984804,Vision,Movement,0
0.326,0.007644428786277392,0.02194193995199286,67.2394471423235,64.6377592243469,-0.19797901252916192,-3.570745702569555,0.0037181769484031114,0.002503918113433677,0.003402328988861036,0.003747002653993758,-724.6947247326387,3725.379748751311,-35.40384368302091,494.08296535747127,3602.843730389934,-528.1761430314596,Vision,Movement,0
0.327,0.007628288552707257,0.021918933526035772,67.2394471423235,64.6377592243469,-0.19728753497911447,-3.5537541374285313,0.003685015227386335,0.002504185339687987,0.003443836860396945,0.0037366972988773462,-724.7150932779998,3725.397221164659,-35.41496389815217,494.05374407418356,3602.8861773590447,-528.173492078115,Vision,Movement,0
0.328,0.007611141007174851,0.02189524758405211,67.2394471423235,64.6377592243469,-0.19659520871450795,-3.5367494962184183,0.00365113696624722,0.0025013978508815716,0.003482806866770854,0.0037211059915006972,-724.7354618233609,3725.4146935780072,-35.42608411328344,494.02452279089584,3602.928624328156,-528.1708411247706,Vision,Movement,0
0.329,0.007592962896341794,0.02187091132995549,67.2394471423235,64.6377592243469,-0.1959020374441002,-3.5197319013367174,0.0036168593817040764,0.0024958370892551314,0.003518912281360429,0.003700410623304468,-724.755830368722,3725.432165991355,-35.4372043284147,493.99530150760813,3602.9710712972665,-528.1681901714262,Vision,Movement,0
0.33,0.007573733119885698,0.02184595956834326,67.2394471423235,64.6377592243469,-0.19520802488322406,-3.502701475181692,0.003582513284689129,0.002487820948137332,0.003551835570934299,0.0036748684625439927,-724.776198914083,3725.449638404703,-35.448324543545965,493.9660802243205,3603.013518266377,-528.1655392180818,Vision,Movement,0
0.331,0.0075534330138650645,0.021820433083690163,67.2394471423235,64.6377592243469,-0.19451317475601906,-3.4856583402308376,0.003548438801595365,0.0024776951232418905,0.0035812728902086107,0.0036448115103228217,-724.7965674594441,3725.467110818051,-35.45944475867723,493.93685894103277,3603.055965235488,-528.1628882647373,Vision,Movement,0
0.332,0.007532046650468427,0.021794379029121135,67.2394471423235,64.6377592243469,-0.19381749079474953,-3.4686026189819184,0.003514981224909612,0.0024658241516722045,0.003606938744825238,0.0036106451979099016,-724.8169360048051,3725.484583231399,-35.47056497380849,493.90763765774506,3603.098412204599,-528.1602373113928,Vision,Movement,0
0.333,0.007509561154437836,0.021767851324122872,67.2394471423235,64.6377592243469,-0.19312097673935652,-3.4515344339644503,0.003482487011577735,0.0024525824472808183,0.0036285707021144155,0.0035728462541647064,-724.8373045501663,3725.502055644747,-35.48168518893976,493.87841637445734,3603.1408591737095,-528.1575863580484,Vision,Movement,0
0.334,0.00748596703641317,0.021740911060461224,67.2394471423235,64.6377592243469,-0.1924236363394631,-3.434453907738055,0.00345129989309762,0.0024383456086669386,0.0036459339928384548,0.0035319595543531626,-724.8576730955274,3725.519528058095,-35.49280540407102,493.84919509116963,3603.1833061428206,-528.154935404704,Vision,Movement,0
0.335,0.00746125854339888,0.02171362691546108,67.2394471423235,64.6377592243469,-0.19172547335099754,-3.417361162899265,0.003421757028554503,0.0024234822372637965,0.0036588258361965643,0.00348859377180994,-724.8780416408885,3725.537000471443,-35.503925619202285,493.8199738078819,3603.225753111931,-528.1522844513595,Vision,Movement,0
0.336,0.007435434026497914,0.02168607557169645,67.2394471423235,64.6377592243469,-0.19102649153843573,-3.4002563220283353,0.0033941851228707466,0.002408346453636994,0.003667079344121625,0.0034434156910495405,-724.8984101862495,3725.5544728847913,-35.51504583433355,493.7907525245942,3603.2682000810423,-528.1496334980151,Vision,Movement,0
0.337,0.007408496326003733,0.02165834214201901,67.2394471423235,64.6377592243469,-0.19032669467416266,-3.383139507767887,0.0033688964366706204,0.0023932712365414416,0.0036705669072832113,0.0033971430940365533,-724.9187787316106,3725.571945298139,-35.52616604946481,493.76153124130656,3603.310647050153,-528.1469825446707,Vision,Movement,0
0.338,0.0073804531738731576,0.02163052059872886,67.2394471423235,64.6377592243469,-0.1896260865383708,-3.366010842765026,0.0033461846258173713,0.0023785626479825724,0.0036692030081751227,0.0033505361846341516,-724.9391472769717,3725.589417711487,-35.53728626459608,493.73230995801885,3603.3530940192636,-528.1443315913262,Vision,Movement,0
0.339,0.007351317613536352,0.021602714205560213,67.2394471423235,64.6377592243469,-0.18892467091861403,-3.34887044969249,0.0033263203674092946,0.0023644949665628315,0.003662946428353481,0.003304387578742073,-724.9595158223327,3725.606890124835,-35.54840647972734,493.7033604169339,3603.418349959477,-528.1438059088547,Vision,Movement,0
0.34,0.007321108436920856,0.021575035951015797,67.2394471423235,64.6377592243469,-0.18822245161181736,-3.331718451195479,0.0033095467700871837,0.0023513067303081027,0.0036518018225167896,0.0032595109634970957,-724.9798843676938,3725.624362538183,-35.559526694858604,493.67450587092765,3603.4915794127596,-528.1440231741913,Vision,Movement,0
0.341,0.007289850638487001,0.021547608981439197,67.2394471423235,64.6377592243469,-0.1875194324208855,-3.3145549699704007,0.0032960746373891714,0.0023391976743662034,0.003635820636696484,0.0032167286109256454,-725.000252913055,3725.641834951531,-35.57064690998987,493.6456513249214,3603.5648088660428,-528.1442404395277,Vision,Movement,0
0.342,0.007257575885978408,0.02152056703206495,67.2394471423235,64.6377592243469,-0.1868156171569062,-3.29738012870572,0.003286077737264893,0.0023283265342653753,0.0036151013666494655,0.0031768579963186586,-725.0205574947705,3725.6591469944256,-35.58084694055182,493.6167967789152,3603.6380383193255,-528.1444577048643,Vision,Movement,0
0.343,0.007224323007498959,0.021494054854122868,67.2394471423235,64.6377592243469,-0.1861110096381167,-3.280194050093569,0.0032796882974407094,0.002318809673765716,0.0035897891928486337,0.0031406978193190675,-725.0408188392306,3725.6763506323305,-35.590424957543696,493.587942232909,3603.7112677726086,-528.1446749702008,Vision,Movement,0
0.34400000000000003,0.0071901384944200114,0.02146822863591431,67.2394471423235,64.6377592243469,-0.18540561369191572,-3.262996856828187,0.003276992986022187,0.0023107204894615547,0.003560075075295074,0.0031090137530036714,-725.0610801836906,3725.6935542702354,-35.60000297453557,493.5590876869027,3603.7844972258913,-528.1448922355373,Vision,Movement,0
0.34500000000000003,0.007155077019512324,0.021443256415600683,67.2394471423235,64.6377592243469,-0.18469943315146328,-3.245788671612664,0.00327802965361717,0.0023040895429393975,0.003526194417552536,0.003082524253547906,-725.0813415281507,3725.7107579081403,-35.60958099152745,493.53023314089654,3603.857726679174,-528.1451095008738,Vision,Movement,0
0.34600000000000003,0.007119201969575405,0.021419318483271513,67.2394471423235,64.6377592243469,-0.18399247185794093,-3.2285696171058254,0.0032827851033880515,0.0022989053824551387,0.003488425401196499,0.0030618867490360647,-725.1016028726107,3725.727961546045,-35.619159008519325,493.5013785948903,3603.930956132457,-528.1453267662102,Vision,Movement,0
0.34700000000000003,0.007082585991712559,0.021396607769669132,67.2394471423235,64.6377592243469,-0.18328473365990708,-3.2113398160011153,0.003291194103664624,0.0022951160360547354,0.0034470870581409544,0.003047684493843441,-725.1218642170707,3725.74516518395,-35.6287370255112,493.47252404888405,3604.00418558574,-528.1455440315468,Vision,Movement,0
0.34800000000000003,0.007045311552261286,0.021375330218762,67.2394471423235,64.6377592243469,-0.18257622241324337,-3.1940993909673696,0.003303139763905877,0.002292631169368094,0.003402537098031565,0.003040414326519043,-725.1421255615307,3725.762368821855,-35.63831504250307,493.44366950287787,3604.077415039023,-528.1457612968833,Vision,Movement,0
0.34900000000000003,0.007007471507244819,0.021355705141156894,67.2394471423235,64.6377592243469,-0.18186694198104988,-3.1768484646617385,0.003318455277896117,0.0022913248842806053,0.0033551694564069117,0.0030404755259784387,-725.1623869059907,3725.77957245976,-35.64789305949495,493.4148149568716,3604.1506444923057,-528.1459785622199,Vision,Movement,0
0.35000000000000003,0.006969169683059874,0.021337965545139507,67.2394471423235,64.6377592243469,-0.181156896233201,-3.159587159736396,0.0033369269275762736,0.0022910390911676324,0.003305411489841451,0.0030481599566462084,-725.1826482504507,3725.796776097665,-35.65747107648683,493.3859604108654,3604.223873945589,-528.1461958275563,Vision,Movement,0
0.35100000000000003,0.006930521465949449,0.02132235844192603,67.2394471423235,64.6377592243469,-0.18044608904836326,-3.14231559878548,0.0033582981655302,0.002291587341214012,0.0032537207266074195,0.003063643741856002,-725.2029095949108,3725.81397973557,-35.6670490934787,493.35710586485914,3604.2971033988715,-528.1464130928929,Vision,Movement,0
