Time,Amplitude_Envelope_P1,Amplitude_Envelope_P2,Filtered_ECG_P1,Filtered_ECG_P2,Filtered_Respiration_P1,Filtered_Respiration_P2,Filtered_EMG_Bicep_P1,Filtered_EMG_Tricep_P1,Filtered_EMG_Bicep_P2,Filtered_EMG_Tricep_P2,right_index_x_P1,right_index_y_P1,right_index_z_P1,right_index_x_P2,right_index_y_P2,right_index_z_P2,ConditionVision,ConditionMovement,Trial
0.0,0.0201667710623334,0.0133611599674811,76.52364033889039,73.6196319018405,-0.3572273026842332,-1.617857046916362,0.0022140629911609,0.001576187737216,0.0038334155244418,0.0021649698322014,-736.0602693190625,3775.7370303530015,-32.90242841657476,673.1035211783246,3543.47146602789,-404.0367584441227,Vision,Movement,1
0.001,0.020168111414864628,0.013366088039940958,76.52364033889039,73.6196319018405,-0.35742945544093974,-1.6145664062620046,0.0023962489188247907,0.001576881796092349,0.0037993208626510093,0.002255487418162409,-735.9408846437516,3775.6303965705297,-32.912876119210736,672.6115213383404,3543.2624137532894,-403.8468993124502,Vision,Movement,1
0.002,0.02016943198373135,0.013370992077431743,76.52364033889039,73.6196319018405,-0.35763174367165823,-1.6112539863650723,0.002578468492490773,0.001579513472686397,0.003763527590520078,0.0023451458480244895,-735.8214999684408,3775.523762788058,-32.923323821846715,672.1195214983561,3543.0533614786887,-403.6570401807777,Vision,Movement,1
0.003,0.020170725871194988,0.013375856327695513,76.52364033889039,73.6196319018405,-0.35783416135041785,-1.6079197313486608,0.0027597076587834706,0.00158416688773734,0.0037263078809027586,0.0024333378420080204,-735.7021152931299,3775.417129005586,-32.93377152448269,672.0587800872619,3543.0423317593772,-403.6315407101641,Vision,Movement,1
0.004,0.02017198665289275,0.01338066619332895,76.52364033889039,73.6196319018405,-0.3580367024189556,-1.6045635855185987,0.0029389901761672443,0.0015909018635622437,0.003687962636557684,0.0025194758514155203,-735.5827306178189,3775.3104952231142,-32.944219227118666,672.0331108195442,3543.04740624809,-403.6194078086697,Vision,Movement,1
0.005,0.02017320836014942,0.013385408081198862,76.52364033889039,73.6196319018405,-0.35823936078695634,-1.6011854933649932,0.003115392609576064,0.001599751688298889,0.0036488167313717596,0.002603000959536797,-735.463345942508,3775.2038614406424,-32.954666929754644,672.0074415518266,3543.052480736802,-403.6072749071753,Vision,Movement,1
0.006,0.020174385182914503,0.013390069344966905,76.52364033889039,73.6196319018405,-0.3584421303321103,-1.5977853995668712,0.0032880572774514256,0.0016107211860003762,0.0036092132865577454,0.0026833911006574457,-735.3439612671972,3775.0972276581706,-32.96511463239062,671.981772284109,3543.0575552255145,-403.5951420056808,Vision,Movement,1
0.007,0.020175511981655344,0.013394638634881724,76.52364033889039,73.6196319018405,-0.3586450049003557,-1.5943632489813242,0.0034562027372765595,0.0016237850932475219,0.00356950712021043,0.0027601684154007055,-735.2245765918863,3774.990593875699,-32.9755623350266,671.9561030163914,3543.0626297142267,-403.58300910418643,Vision,Movement,1
0.008,0.020176584250327596,0.01339910630581697,76.52364033889039,73.6196319018405,-0.358847978305202,-1.5909189866636262,0.003619131550068777,0.00163888676365584,0.0035300575882439853,0.0028329055504100727,-735.1051919165753,3774.883960093227,-32.986010037662574,671.9304337486736,3543.0677042029392,-403.57087620269203,Vision,Movement,1
0.009000000000000001,0.020177598306449426,0.013403464109303256,76.52364033889039,73.6196319018405,-0.35905104432889623,-1.5874525578564083,0.0037762351826875064,0.0016559372524566434,0.0034912211040925836,0.002901230717616008,-734.9858072412644,3774.777326310755,-32.99645774029855,671.904764480956,3543.0727786916514,-403.5587433011976,Vision,Movement,1
0.01,0.020178551120195558,0.013407704697880926,76.52364033889039,73.6196319018405,-0.359254196721748,-1.5839639079974437,0.00392699599267547,0.0016748148495374271,0.00345334366950951,0.002964831352917567,-734.8664225659536,3774.6706925282833,-33.00690544293453,671.8790952132384,3543.077853180364,-403.5466103997032,Vision,Movement,1
0.011,0.02017943971195835,0.013411821237271913,76.52364033889039,73.6196319018405,-0.35945742920256024,-1.5804529827084963,0.0040709863600311025,0.001695365126051116,0.0034167537501215905,0.0030234562557213767,-734.7978748981878,3774.6103990651595,-33.01618816692959,671.8534259455207,3543.082927669076,-403.5344774982088,Vision,Movement,1
0.012,0.0201802616128156,0.013415807382890239,76.52364033889039,73.6196319018405,-0.35966073545795707,-1.576919727815887,0.004207865188249391,0.001717401550718102,0.003381755791119248,0.003076916145113488,-734.7494156336363,3774.5684171247844,-33.0250105459554,671.8277566778031,3543.0880021577887,-403.5223445967144,Vision,Movement,1
0.013000000000000001,0.02018101506998144,0.013419657797723425,76.52364033889039,73.6196319018405,-0.3598641091435548,-1.5733640893393488,0.0043373721802269045,0.001740706736241026,0.0033486245967832076,0.0031250826600088457,-734.7009563690847,3774.526435184409,-33.03383292498122,671.8020874100855,3543.093076646501,-403.51021169521994,Vision,Movement,1
0.014,0.020181699060142538,0.013423368465560472,76.52364033889039,73.6196319018405,-0.36006754388329104,-1.5697860134967196,0.004459320422424242,0.0017650343862053053,0.0033176007114012157,0.0031678859490671877,-734.652497104533,3774.484453244034,-33.042655304007035,671.7764181423678,3543.098151135213,-403.49807879372554,Vision,Movement,1
0.015,0.020182312746293566,0.013426936311096992,76.52364033889039,73.6196319018405,-0.3602710332696762,-1.5661854467054857,0.004573587855647103,0.0017901120078438186,0.0032888868490746747,0.003205311108768045,-734.6040378399815,3774.4424713036583,-33.05147768303285,671.7507488746502,3543.1032256239255,-403.48594589223114,Vision,Movement,1
0.016,0.02018285511012514,0.013430358746953086,76.52364033889039,73.6196319018405,-0.36047457086386303,-1.5625623355875653,0.004680108162323846,0.001815644420648251,0.0032626453404247177,0.0032373937801967122,-734.5555785754299,3774.400489363283,-33.060300062058666,671.7250796069326,3543.1083001126376,-403.47381299073675,Vision,Movement,1
0.017,0.02018332555808478,0.013433634193490349,76.52364033889039,73.6196319018405,-0.3606781501958985,-1.5589166269577044,0.004778861510457297,0.0018413180332507227,0.003238996502613025,0.003264215191813064,-734.5071193108784,3774.358507422908,-33.06912244108448,671.699410339215,3543.11337460135,-403.4616800892423,Vision,Movement,1
0.018000000000000002,0.02018372366141478,0.013436761645779912,76.52364033889039,73.6196319018405,-0.36088176476406086,-1.5552482678447175,0.0048698655064289675,0.0018668057952823333,0.0032180178081034844,0.003285896865038481,-734.4586600463267,3774.3165254825326,-33.0779448201103,671.6737410714973,3543.1184490900623,-403.4495471877479,Vision,Movement,1
0.019,0.02018404955652093,0.01343974055543241,76.52364033889039,73.6196319018405,-0.3610854080360356,-1.5515572054798668,0.004953166657822635,0.0018917726757174142,0.0031997437345964693,0.0033025951345078725,-734.4102007817752,3774.2745435421575,-33.08676719913611,671.6590507529983,3543.134793517712,-403.44209392672565,Vision,Movement,1
0.02,0.020184304021103928,0.013442571197249929,76.52364033889039,73.6196319018405,-0.3612890734482516,-1.5478433873016806,0.005028832626291918,0.0019158814895763048,0.003184166218157868,0.003314495600797343,-734.3617415172235,3774.2325616017824,-33.09558957816193,671.667359293137,3543.174746373391,-403.44444364297846,Vision,Movement,1
0.021,0.020184487954136073,0.013445254531005962,76.52364033889039,73.6196319018405,-0.3614927544061407,-1.5441067609608115,0.005096945545498063,0.001938798896078038,0.0031712356777934725,0.0033218076273546057,-734.3132822526719,3774.190579661407,-33.10441195718774,671.6756678332757,3543.21469922907,-403.44679335923126,Vision,Movement,1
0.022,0.02018460278253474,0.013447791852869278,76.52364033889039,73.6196319018405,-0.36169644428439457,-1.5403472743080517,0.005157596651843137,0.0019602014029953957,0.003160862614579447,0.0033247589974955186,-734.2648229881204,3774.148597721032,-33.11323433621356,671.6839763734146,3543.2546520847486,-403.44914307548413,Vision,Movement,1
0.023,0.02018465030067059,0.013450185086990103,76.52364033889039,73.6196319018405,-0.36190013642630825,-1.5365648754161447,0.005210882420566806,0.001979781217650948,0.003152919802128003,0.003323590855035335,-734.2163637235687,3774.1066157806567,-33.122056715239374,671.6922849135533,3543.2946049404277,-403.45149279173694,Vision,Movement,1
0.024,0.0201846318932671,0.01345243700860311,76.52364033889039,73.6196319018405,-0.36210382414496056,-1.532759512567759,0.005256902320774498,0.001997251785198486,0.0031472450818839696,0.0033185530514856813,-734.1679044590172,3774.064633840281,-33.13087909426519,671.700593453692,3543.3345577961068,-403.4538425079898,Vision,Movement,1
0.025,0.020184548274202525,0.013454550857891517,76.52364033889039,73.6196319018405,-0.3623075007225561,-1.5289311342603817,0.005295758206390371,0.0020123528629669768,0.0031436447780075105,0.003309899999270141,-734.1194451944656,3774.022651899906,-33.139701473291005,671.7089019938309,3543.374510651786,-403.4561922242426,Vision,Movement,1
0.026000000000000002,0.02018439944909274,0.01345653025264218,76.52364033889039,73.6196319018405,-0.36251115941068934,-1.5250796892078475,0.005327555254533424,0.002024855008385613,0.0031418977600937595,0.003297887089017544,-734.0709859299141,3773.980669959531,-33.14852385231682,671.7172105339696,3543.414463507465,-403.4585419404954,Vision,Movement,1
0.027,0.02018418484182074,0.013458378984549036,76.52364033889039,73.6196319018405,-0.3627147934304269,-1.5212051263452817,0.005352404241930709,0.002034563397928943,0.0031417601832138234,0.003282767686333446,-734.0287688073613,3773.9446205558,-33.157389950729176,671.7255190741083,3543.4544163631435,-403.4608916567483,Vision,Movement,1
0.028,0.02018390391112921,0.013460101180368444,76.52364033889039,73.6196319018405,-0.3629183959725687,-1.5173073948166549,0.005370424825686132,0.002041320928037762,0.003142970890950805,0.0032647906896308833,-734.0039903755155,3773.925144897375,-33.16637818812203,671.733827614247,3543.4943692188226,-403.4632413730011,Vision,Movement,1
0.029,0.020183556815909574,0.013461701340179816,76.52364033889039,73.6196319018405,-0.3631219601970022,-1.513386443997281,0.005381749381688692,0.0020450105692174825,0.003145257378907077,0.0032441986128058766,-733.9792119436697,3773.9056692389504,-33.17536642551488,671.7421361543859,3543.5343220745017,-403.4655910892539,Vision,Movement,1
0.03,0.02018314425359801,0.013463184414566067,76.52364033889039,73.6196319018405,-0.3633254792338861,-1.5094422234813043,0.005386526879904909,0.0020455569670711337,0.0031483421180234575,0.003221226167536678,-733.9544335118239,3773.8861935805253,-33.18435466290773,671.7504446945246,3543.5742749301808,-403.46794080550677,Vision,Movement,1
0.031,0.02018266682885814,0.013464555196024713,76.52364033889039,73.6196319018405,-0.36352894618300113,-1.5054746830867256,0.005384926273568288,0.002042927315257935,0.003151948971184294,0.0031960993660592003,-733.929655079978,3773.8667179221,-33.19334290030058,671.7587532346633,3543.6142277858594,-403.4702905217596,Vision,Movement,1
0.032,0.020182125436503984,0.013465818333826771,76.52364033889039,73.6196319018405,-0.36373235411402116,-1.5014837728604171,0.00537713897427623,0.0020371315462241694,0.0031558094267900433,0.0031690352165450876,-733.9048766481322,3773.847242263675,-33.202331137693434,671.7670617748021,3543.6541806415385,-403.47264023801245,Vision,Movement,1
0.033,0.02018152163755057,0.013466978690989836,76.52364033889039,73.6196319018405,-0.36393569606677956,-1.4974694430652902,0.00536338017222339,0.0020282218769110015,0.0031596684150345692,0.0031402420991011337,-733.8800982162865,3773.8277666052504,-33.21131937508628,671.7753703149409,3543.6941334972175,-403.47498995426525,Vision,Movement,1
0.034,0.020180857613055103,0.013468041350453267,76.52364033889039,73.6196319018405,-0.36413896505063165,-1.4934316442033666,0.005343889002232768,0.0020162917221186244,0.003163289545384683,0.00310992087602696,-733.8553197844407,3773.8082909468253,-33.22030761247913,671.7836788550796,3543.7340863528966,-403.47733967051806,Vision,Movement,1
0.035,0.020180136007628965,0.013469011007219958,76.52364033889039,73.6196319018405,-0.36434215404564047,-1.489370327002856,0.005318927773561805,0.0020014739822898906,0.0031664596797372213,0.0030782667155065343,-733.8305413525949,3773.7888152884,-33.22929584987198,671.7919873952184,3543.7740392085757,-403.47968938677093,Vision,Movement,1
0.036000000000000004,0.020179359274310107,0.01346989195702016,76.52364033889039,73.6196319018405,-0.36454525600193416,-1.4852854424232436,0.005288780594414849,0.001983938743544561,0.003168992809107468,0.0030454715123156887,-733.805762920749,3773.7693396299755,-33.23828408726484,671.8006012691686,3543.8169853055715,-403.48749848556514,Vision,Movement,1
0.037,0.0201785302147383,0.013470688313725585,76.52364033889039,73.6196319018405,-0.3647482638399819,-1.481176941656804,0.005253751706784646,0.001963890471100729,0.0031707332305640117,0.0030117266916033793,-733.7809844889032,3773.7498639715504,-33.247272324657686,671.8093330310722,3543.8610870790085,-403.4974154263676,Vision,Movement,1
0.038,0.020177652347646555,0.013471403934957165,76.52364033889039,73.6196319018405,-0.36495117045068837,-1.477044776133703,0.005214163760006382,0.0019415647966945016,0.003171558045268015,0.0029772261247657293,-733.7562060570574,3773.7303883131253,-33.256260562050535,671.8180647929757,3543.905188852446,-403.50733236717,Vision,Movement,1
0.039,0.020176729842709056,0.013472042468509023,76.52364033889039,73.6196319018405,-0.3651539686956637,-1.4728888975086942,0.0051703561644662905,0.0019172249879371949,0.0031713790258721787,0.002942168898604498,-733.7314276252116,3773.7109126547,-33.265248799443384,671.8267965548794,3543.9492906258834,-403.5172493079724,Vision,Movement,1
0.04,0.02017576678896847,0.013472607708253584,76.52364033889039,73.6196319018405,-0.3653566514065978,-1.4687092576848897,0.005122683615533277,0.0018911581627336868,0.003170143912697796,0.0029067617413184475,-733.7066491933658,3773.6914369962756,-33.27423703683624,671.8355283167829,3543.993392399321,-403.52716624877485,Vision,Movement,1
0.041,0.020174767149759097,0.013473103627260806,76.52364033889039,73.6196319018405,-0.3655592113864462,-1.4645058088003733,0.005071514849392302,0.0018636712864356483,0.0031678371765184133,0.002871220964600151,-733.6818707615199,3773.6719613378505,-33.28322527422909,671.8442600786865,3544.037494172758,-403.53708318957723,Vision,Movement,1
0.042,0.02017373547444102,0.013473534104678801,76.52364033889039,73.6196319018405,-0.3657616414087982,-1.46027850323708,0.005017231661432967,0.0018350869654981104,0.003164480241822008,0.0028357738026353533,-733.6570923296741,3773.6524856794254,-33.29221351162194,671.8529918405901,3544.081595946195,-403.5470001303797,Vision,Movement,1
0.043000000000000003,0.02017267637262869,0.013473903079885923,76.52364033889039,73.6196319018405,-0.3659639342181597,-1.456027293607179,0.00496022815898639,0.001805739036160774,0.0031601311178522306,0.002800659021392577,-733.6323138978283,3773.6330100210002,-33.30120174901479,671.8617236024936,3544.1256977196326,-403.5569170711821,Vision,Movement,1
0.044,0.020171594014315574,0.013474214187352906,76.52364033889039,73.6196319018405,-0.366166082530227,-1.4517521327773124,0.004900910140238297,0.0017759679614900335,0.0031548833454693695,0.002766126666842025,-733.6098394782155,3773.6167436621045,-33.30757015383057,671.8704553643972,3544.16979949307,-403.5668340119845,Vision,Movement,1
0.045,0.020170492043341495,0.013474470565189762,76.52364033889039,73.6196319018405,-0.36636807903127083,-1.4474529738548338,0.004839694412605916,0.0017461160924495216,0.0031488641495924234,0.0027324368461777485,-733.5879040240301,3773.601228037718,-33.31332571503181,671.8791871263007,3544.2139012665075,-403.57675095278694,Vision,Movement,1
0.046,0.02016937357690215,0.013474675160190326,76.52364033889039,73.6196319018405,-0.36656991637932246,-1.443129770193078,0.004777007823186081,0.0017165228939425485,0.0031422317156215153,0.0026998575130774095,-733.5659685698446,3773.5857124133313,-33.31908127623305,671.8879188882044,3544.258003039945,-403.5866678935893,Vision,Movement,1
0.047,0.020168241226384644,0.013474830938459517,76.52364033889039,73.6196319018405,-0.36677158720355074,-1.4387824753928546,0.004713285788221342,0.0016875202678448846,0.0031351715884429744,0.002668661327466986,-733.5440331156592,3773.5701967889445,-33.3248368374343,671.8966506501079,3544.302104813382,-403.59658483439176,Vision,Movement,1
0.048,0.020167097155750296,0.013474940643964484,76.52364033889039,73.6196319018405,-0.3669730841045473,-1.4344110433076882,0.004648970142343752,0.0016594281159572042,0.003127892289569878,0.0026391217342563045,-733.5220976614737,3773.5546811645577,-33.33059239863554,671.9053824120115,3544.3462065868193,-403.6065017751942,Vision,Movement,1
0.049,0.020165943299588936,0.01347500693387597,76.52364033889039,73.6196319018405,-0.3671743996544338,-1.4300154280297233,0.004584506157245265,0.0016325502776697973,0.0031206203197530194,0.0026115084330891386,-733.5001622072883,3773.539165540171,-33.33634795983678,671.9141141739151,3544.3903083602568,-403.6164187159966,Vision,Movement,1
0.05,0.020164782160443817,0.013475032676425008,76.52364033889039,73.6196319018405,-0.36737552639714016,-1.4255955839146657,0.004520338608870996,0.0016071709428097285,0.003113594748093526,0.002586082415754721,-733.4782267531028,3773.523649915784,-33.34210352103802,671.9228459358186,3544.434410133694,-403.62633565679903,Vision,Movement,1
0.051000000000000004,0.02016361716801578,0.013475020980430484,76.52364033889039,73.6196319018405,-0.3675764568478008,-1.4211514655675133,0.004456906840643919,0.0015835515868584075,0.0031070615916709786,0.002563090747798335,-733.4562912989174,3773.5081342913973,-33.34785908223926,671.9315776977222,3544.478511907131,-403.6362525976014,Vision,Movement,1
0.052000000000000005,0.020162452578443638,0.013474975145153322,76.52364033889039,73.6196319018405,-0.3677771834939392,-1.4166830278479778,0.004394638894804601,0.0015619284213671326,0.0031012681734345197,0.002542761265743777,-733.4343558447321,3773.492618667011,-33.3536146434405,671.9403094596257,3544.5226136805686,-403.64616953840385,Vision,Movement,1
0.053,0.020161292663640168,0.013474898317535604,76.52364033889039,73.6196319018405,-0.3679776987948553,-1.4121902258757877,0.004333944951808757,0.0015425103181254576,0.00309645762076249,0.0025252973429712583,-733.4124203905466,3773.477103042624,-33.35937020464174,671.9490412215293,3544.566715454006,-403.6560864792063,Vision,Movement,1
0.054,0.020160141390684373,0.01347479309860246,76.52364033889039,73.6196319018405,-0.368177995181919,-1.4076730150161965,0.004275210466979994,0.0015254771557166678,0.0030928636410873928,0.0025108728611749394,-733.3904849363612,3773.4615874182373,-33.36512576584298,671.9569111619065,3544.610443932077,-403.6661360345482,Vision,Movement,1
0.055,0.020159002369252416,0.013474661968045169,76.52364033889039,73.6196319018405,-0.36837806505885184,-1.4031313509055112,0.004218789467269862,0.001510978546121893,0.003090705679155038,0.0024996275288821043,-733.3685494821757,3773.4460717938505,-33.37088132704423,671.946307555673,3544.646170649759,-403.6790282444325,Vision,Movement,1
0.056,0.020157878858230074,0.013474507610933509,76.52364033889039,73.6196319018405,-0.36857790080113445,-1.3985651894363977,0.004164998441628771,0.0014991329119839862,0.0030901845093403726,0.00249166271117988,-733.3466140279903,3773.4305561694637,-33.37663688824547,671.9357039494394,3544.6818973674413,-403.69192045431686,Vision,Movement,1
0.057,0.020156773781280845,0.013474332982673845,76.52364033889039,73.6196319018405,-0.3687774947571878,-1.393974486763341,0.004114111164995565,0.0014900268941644395,0.003091478249273798,0.002487037956022489,-733.3246785738049,3773.415040545077,-33.38239244944671,671.9251003432058,3544.7176240851236,-403.70481266420126,Vision,Movement,1
0.058,0.020155689743949316,0.013474141209845261,76.52364033889039,73.6196319018405,-0.36897683924777136,-1.3893591993041183,0.004066354701655316,0.0014837150707332114,0.003094738728818802,0.0024857684045708726,-733.3027431196194,3773.39952492069,-33.38814801064795,671.9144967369722,3544.7533508028055,-403.7177048740856,Vision,Movement,1
0.059000000000000004,0.02015462905081298,0.01347393531443117,76.52364033889039,73.6196319018405,-0.3691759265662788,-1.384719283745183,0.004021906759467584,0.0014802199602287245,0.0031000881467881827,0.0024878232562735567,-733.280807665434,3773.3840092963037,-33.393903571849194,671.9038931307387,3544.789077520488,-403.73059708396994,Vision,Movement,1
0.06,0.02015359372235869,0.013473717872260356,76.52364033889039,73.6196319018405,-0.3693747489788557,-1.3800546970266903,0.003980894504739941,0.0014795322732798022,0.003107615999943117,0.002493125426449948,-733.2565107923186,3773.3670717386826,-33.398472937300824,671.893289524505,3544.82480423817,-403.7434892938543,Vision,Movement,1
0.061,0.020152585511506352,0.013473490855288659,76.52364033889039,73.6196319018405,-0.36957329872468575,-1.375365396368734,0.003943394874879346,0.0014816113761228654,0.0031173763424463996,0.0025015524849083233,-733.2279653428512,3773.347575892129,-33.40090814385903,671.8826859182715,3544.860530955852,-403.7563815037386,Vision,Movement,1
0.062,0.020151605919739735,0.013473255891607295,76.52364033889039,73.6196319018405,-0.3697715680154118,-1.370651339256134,0.003909436341000293,0.0014863859340392767,0.003129385490181344,0.002512938897577164,-733.199419893384,3773.328080045576,-33.40334335041724,671.8720823120378,3544.8962576735344,-403.76927371362297,Vision,Movement,1
0.063,0.020150656212815813,0.013473014535682759,76.52364033889039,73.6196319018405,-0.3699695490363134,-1.365912483444063,0.003879001981739207,0.0014937547033921418,0.003143620303822923,0.0025270795129319805,-733.1708744439165,3773.308584199023,-33.40577855697545,671.8614787058043,3544.9319843912162,-403.7821659235073,Vision,Movement,1
0.064,0.02014973743602839,0.013472768488472519,76.52364033889039,73.6196319018405,-0.37016723394571804,-1.3611487869634928,0.0038520336566275656,0.0015035874458277803,0.003160017174216755,0.002543734156262436,-733.1423289944493,3773.289088352469,-33.40821376353366,671.8508750995707,3544.9677111088986,-403.79505813339165,Vision,Movement,1
0.065,0.02014885042900671,0.013472520208615156,76.52364033889039,73.6196319018405,-0.37036461487530253,-1.356360208105815,0.003828437036687832,0.001515725967686943,0.0031784718110106965,0.002562633134552946,-733.1137835449819,3773.269592505916,-33.41064897009187,671.8402714933371,3545.003437826581,-403.807950343276,Vision,Movement,1
0.066,0.020147995840032823,0.013472272598737789,76.52364033889039,73.6196319018405,-0.3705616839303818,-1.3515467054496735,0.003808087264363646,0.0015299853416213295,0.0031988399163156694,0.0025834834207778207,-733.0852380955145,3773.2500966593625,-33.413084176650074,671.8296678871035,3545.039164544263,-403.82084255316033,Vision,Movement,1
0.067,0.020147174139864003,0.013472028749782955,76.52364033889039,73.6196319018405,-0.37075843318934204,-1.3467082378453143,0.0037908350312436966,0.0015461554182557944,0.003220938811489742,0.0026059752824403874,-733.0566926460472,3773.2306008128094,-33.415519383208284,671.81906428087,3545.074891261945,-403.83373476304473,Vision,Movement,1
0.068,0.020146385635050265,0.013471791292621157,76.52364033889039,73.6196319018405,-0.370954854704814,-1.3418447644203075,0.0037765128419310376,0.0015640027572202883,0.003244550054101286,0.00262978914228065,-733.0281471965798,3773.2111049662562,-33.417954589766495,671.8084606746363,3545.1106179796275,-403.8466269729291,Vision,Movement,1
0.069,0.02014563048074034,0.013471562430376567,76.52364033889039,73.6196319018405,-0.3711509405030948,-1.3369562445850538,0.0037649411744456514,0.0015832730951246985,0.0032694230169390626,0.0026546024976062607,-732.9996017471125,3773.1916091197027,-33.420389796324706,671.7978570684028,3545.1463446973094,-403.8595191828134,Vision,Movement,1
0.07,0.020144908692969726,0.013471344210625123,76.52364033889039,73.6196319018405,-0.3713466825844512,-1.3320426380170023,0.0037559341835258736,0.0016036944360994859,0.003295279314681464,0.0026800967540199865,-732.9710562976451,3773.1721132731495,-33.42282500288291,671.7872534621691,3545.1820714149917,-403.87241139269776,Vision,Movement,1
0.07100000000000001,0.020144220160430444,0.013471138460626265,76.52364033889039,73.6196319018405,-0.37154207292324926,-1.3271039046880762,0.003749304576998369,0.0016249808066370025,0.003321817894914809,0.0027059638364928637,-732.9425108481778,3773.1526174265964,-33.42526020944112,671.7735639096379,3545.2174637241233,-403.8850216172518,Vision,Movement,1
0.07200000000000001,0.02014356465572037,0.013470946820599487,76.52364033889039,73.6196319018405,-0.3717371034682466,-1.3221400048485816,0.0037448673631384996,0.001646836670681407,0.0033487205889881364,0.0027319124323299695,-732.9139653987104,3773.133121580043,-33.42769541599933,671.7559927467388,3545.2524354025722,-403.8972771508696,Vision,Movement,1
0.073,0.020142941846074437,0.013470770751059041,76.52364033889039,73.6196319018405,-0.3719317661420412,-1.317150899033027,0.0037424423170943394,0.0016689619604469642,0.003375657940278122,0.0027576737028434817,-732.8854199492431,3773.1136257334897,-33.43013062255754,671.7384215838396,3545.2874070810217,-403.9095326844875,Vision,Movement,1
0.074,0.020142351303582155,0.013470611737295734,76.52364033889039,73.6196319018405,-0.37212605284223704,-1.3121365480656888,0.0037418552039604073,0.0016910576434928098,0.0034022951651216677,0.0027830062830092664,-732.8568744997757,3773.0941298869366,-33.432565829115745,671.7208504209405,3545.3223787594707,-403.9217882181053,Vision,Movement,1
0.075,0.02014179251489514,0.013470470629774299,76.52364033889039,73.6196319018405,-0.3723199554408837,-1.30709691304442,0.0037429379557776168,0.001712831706660867,0.003428298117347934,0.0028077003798249863,-732.8283290503083,3773.074634040383,-33.435001035673956,671.7032792580413,3545.35735043792,-403.9340437517231,Vision,Movement,1
0.076,0.02014126489043208,0.013470347460934529,76.52364033889039,73.6196319018405,-0.3725134657849435,-1.3020319553686743,0.0037455280708065405,0.0017340053886107896,0.003453339114181828,0.0028315807964700546,-732.799783600841,3773.05513819383,-33.43743624223217,671.6857080951421,3545.392322116369,-403.94629928534096,Vision,Movement,1
0.077,0.02014076777308931,0.013470241920638861,76.52364033889039,73.6196319018405,-0.3727065756957529,-1.2969416367229725,0.0037494674925731782,0.0017543194370526628,0.003477102465333756,0.002854508761894599,-732.7734689206251,3773.038605843482,-33.43907030093451,671.668136932243,3545.427293794818,-403.95855481895876,Vision,Movement,1
0.078,0.020140300446465656,0.013470153418020445,76.52364033889039,73.6196319018405,-0.37289927697018105,-1.2918259190827335,0.0037546011999720188,0.0017735401239925054,0.003499289546498258,0.0028763825205200878,-732.7473909254808,3773.0223879206847,-33.4406193576863,671.6505657693439,3545.4622654732675,-403.97081035257656,Vision,Movement,1
0.079,0.02013986214261194,0.01347008115928368,76.52364033889039,73.6196319018405,-0.3730915613800738,-1.2866847647156967,0.0037607757431904008,0.0017914647428854446,0.0035196232764457304,0.002897136713792214,-732.7213129303364,3773.0061699978874,-33.44216841443809,671.6329946064446,3545.4972371517165,-403.9830658861944,Vision,Movement,1
0.08,0.02013945204931619,0.013470024156181561,76.52364033889039,73.6196319018405,-0.3732834206724084,-1.2815181361875625,0.0037678379671013096,0.0018079263499272055,0.003537851882219544,0.0029167406515848435,-732.695234935192,3772.98995207509,-33.44371747118989,671.6154234435455,3545.532208830166,-403.9953214198122,Vision,Movement,1
0.081,0.02013906931693719,0.013469981040573951,76.52364033889039,73.6196319018405,-0.37347484657025326,-1.2763259963453057,0.003775634126509778,0.0018227975828556786,0.0035537518609136463,0.002935195628721081,-732.6691569400477,3772.9737341522928,-33.44526652794168,671.5978522806463,3545.567180508615,-404.00757695343003,Vision,Movement,1
0.082,0.02013871306479797,0.013469950119765926,76.52364033889039,73.6196319018405,-0.3736658307712318,-1.2711083083459198,0.003784009512416646,0.0018359934655339403,0.0035671300631591033,0.0029525314779275096,-732.6430789449033,3772.957516229495,-33.44681558469348,671.5802811177472,3545.602152187064,-404.01983248704784,Vision,Movement,1
0.083,0.020138382387152754,0.01346992972990786,76.52364033889039,73.6196319018405,-0.3738563649495118,-1.265865035639348,0.003792808602025718,0.0018474731632297727,0.0035778248412246076,0.0029688025482576476,-732.617000949759,3772.9412983066977,-33.44836464144527,671.5627099548481,3545.6371238655133,-404.0320880206657,Vision,Movement,1
0.084,0.020138076358742135,0.013469918542470115,76.52364033889039,73.6196319018405,-0.3740464407544349,-1.2605961419745098,0.0038018756342555393,0.001857240685042139,0.003585706235447616,0.002984083259653988,-732.5909229546147,3772.9250803839004,-33.449913698197065,671.5451387919488,3545.6720955439623,-404.0443435542835,Vision,Movement,1
0.085,0.020137794039948875,0.013469915583095175,76.52364033889039,73.6196319018405,-0.3742360498118349,-1.255301591404993,0.00381105542217493,0.0018653445439165436,0.0035906752206979167,0.0029984633432858974,-732.5648449594703,3772.908862461103,-33.451462754948864,671.5275676290497,3545.7070672224118,-404.0565990879013,Vision,Movement,1
0.08600000000000001,0.020137534481569876,0.013469920203604708,76.52364033889039,73.6196319018405,-0.37442518372350564,-1.2499813482719584,0.0038201941880589567,0.0018718763835314587,0.0035926620892895497,0.0030120428670386496,-732.538766964326,3772.892644538306,-33.453011811700655,671.5099964661506,3545.7420389008607,-404.06885462151916,Vision,Movement,1
0.08700000000000001,0.020137296729218497,0.013469932122335796,76.52364033889039,73.6196319018405,-0.37461383406766974,-1.2446353772334828,0.0038291402718248326,0.0018769685806332421,0.003591624106433041,0.0030249271769358065,-732.5126889691816,3772.8764266155085,-33.454560868452454,671.4924253032514,3545.77701057931,-404.08111015513697,Vision,Movement,1
0.088,0.02013707982737302,0.013469950890465739,76.52364033889039,73.6196319018405,-0.37480199239846984,-1.2392636432470399,0.00383774466676167,0.0018807908411700395,0.0035875426397962225,0.003037221932853816,-732.4866109740373,3772.8602086927112,-33.456109925204245,671.4933023576197,3545.846576869807,-404.09411439086693,Vision,Movement,1
0.089,0.020136882823083582,0.01346997617445617,76.52364033889039,73.6196319018405,-0.37498965024710956,-1.2338661115755185,0.0038458613883664244,0.0018835458255028077,0.0035804200162213797,0.0030490284403731616,-732.460532978893,3772.843990769914,-33.45765898195604,671.4976611901842,3545.9226722879803,-404.10725993101954,Vision,Movement,1
0.09,0.02013670476935606,0.013470008064611447,76.52364033889039,73.6196319018405,-0.3751767991213256,-1.2284427477886215,0.0038533476499876137,0.0018854638496925667,0.003570276363261418,0.0030604394689028994,-732.4344549837485,3772.8277728471166,-33.459208038707835,671.5020200227488,3545.9987677061536,-404.1204054711721,Vision,Movement,1
0.091,0.0201365447282242,0.013470047003339173,76.52364033889039,73.6196319018405,-0.3753634305055549,-1.2229935177686206,0.0038600637655465952,0.0018867967214930813,0.0035571466411553334,0.0030715357140073444,-732.4083769886042,3772.8115549243194,-33.46075709545963,671.5063788553132,3546.074863124327,-404.1335510113247,Vision,Movement,1
0.092,0.02013640177352739,0.013470093794783238,76.52364033889039,73.6196319018405,-0.37554953586187956,-1.2175183876927658,0.0038658727133185074,0.0018878108016181568,0.003541077993631748,0.003082383030286183,-732.3822989934599,3772.795337001522,-33.462306152211426,671.5107376878777,3546.1509585425,-404.1466965514773,Vision,Movement,1
0.093,0.02013627499340754,0.013470149665829838,76.52364033889039,73.6196319018405,-0.3757351066287038,-1.2120173240633483,0.003870639405257728,0.0018887794437654098,0.003522127487539293,0.003093030537425199,-732.3635545581694,3772.7843019348743,-33.46396777759462,671.5150965204423,3546.227053960673,-404.1598420916299,Vision,Movement,1
0.094,0.020136163492539008,0.013470215564904955,76.52364033889039,73.6196319018405,-0.37592013422190534,-1.2064902936898567,0.003874229860189733,0.0018899750417106984,0.0035003602844924163,0.0031035096758445435,-732.3537406635287,3772.7795783606603,-33.4657664849351,671.5194553530068,3546.3031493788462,-404.1729876317825,Vision,Movement,1
0.095,0.020136066394107206,0.013470291460079397,76.52364033889039,73.6196319018405,-0.37610461003513673,-1.2009372637040516,0.0038765105933044586,0.0018916609654839754,0.00347584827537022,0.003113834242976658,-732.343926768888,3772.7748547864458,-33.46756519227558,671.5238141855714,3546.3792447970195,-404.18613317193507,Vision,Movement,1
0.096,0.02013598284154853,0.013470376268786378,76.52364033889039,73.6196319018405,-0.37628852543948516,-1.1953582015183075,0.003877348563545607,0.0018940836853392244,0.0034486691928559414,0.003124001380303816,-732.3341128742472,3772.7701312122317,-33.469363899616056,671.5281730181359,3546.455340215193,-404.1992787120877,Vision,Movement,1
0.097,0.020135912000065752,0.013470468203003386,76.52364033889039,73.6196319018405,-0.37647187178379327,-1.1897530749047118,0.00387661196829004,0.0018974653695091256,0.003418906204935911,0.0031339934223953347,-732.3242989796065,3772.765407638017,-33.47116260695654,671.5325318507005,3546.531435633366,-404.2124242522403,Vision,Movement,1
0.098,0.020135853057932786,0.013470565470340392,76.52364033889039,73.6196319018405,-0.3766546403949605,-1.1841218519275434,0.0038741720706786213,0.0019019972132505712,0.003386647981930258,0.003143780479423335,-732.3144850849658,3772.760684063803,-33.47296131429702,671.536890683265,3546.6075310515394,-404.2255697923929,Vision,Movement,1
0.099,0.020135805227600334,0.013470666628552657,76.52364033889039,73.6196319018405,-0.37683682257747025,-1.178464500974172,0.003869906117067667,0.0019078337206866222,0.0033519892225109824,0.0031533235975857747,-732.304671190325,3772.7559604895887,-33.47476002163749,671.5412495158295,3546.6836264697126,-404.23871533254544,Vision,Movement,1
0.1,0.02013576774661717,0.013470770225614952,76.52364033889039,73.6196319018405,-0.37701840961450345,-1.172780990751457,0.0038637012678663,0.0019150881223949417,0.003315031606891692,0.0031625783165262124,-732.2948572956843,3772.7512369153746,-33.47655872897798,671.545608348394,3546.759721887886,-404.25186087269805,Vision,Movement,1
0.101,0.020135739878377204,0.013470874863242905,76.52364033889039,73.6196319018405,-0.37719939276744535,-1.1670712902916105,0.0038554593376627826,0.001923829073368238,0.0032758851252885565,0.0031714984140936006,-732.2850434010436,3772.74651334116,-33.478357436318454,671.5499671809586,3546.835817306059,-404.26500641285065,Vision,Movement,1
0.10200000000000001,0.02013572091270544,0.013470979567083236,76.52364033889039,73.6196319018405,-0.3773797632760637,-1.161335368933775,0.00384510202693589,0.001934078738167507,0.003234669701337538,0.003180039616355414,-732.2752295064029,3772.741789766946,-33.48015614365894,671.5543260135231,3546.9119127242325,-404.27815195300326,Vision,Movement,1
0.10300000000000001,0.02013571016629483,0.013471083803061105,76.52364033889039,73.6196319018405,-0.37755951235943086,-1.1555731963552935,0.0038325762272166226,0.0019458123290595217,0.003191516997539776,0.003188163072270383,-732.2654156117621,3772.7370661927316,-33.481954850999415,671.5586848460877,3546.9880081424053,-404.29129749315587,Vision,Movement,1
0.10400000000000001,0.020135706983002665,0.013471187339290334,76.52364033889039,73.6196319018405,-0.37773863121466644,-1.1497847425527288,0.003817858906229978,0.0019589591149319937,0.0031465722639033903,0.003195838444047675,-732.2556017171213,3772.7323426185176,-33.48375355833989,671.5700307823873,3547.077976557491,-404.30452643696754,Vision,Movement,1
0.105,0.020135710734020713,0.013471290225583382,76.52364033889039,73.6196319018405,-0.3779171110180631,-1.143969977848285,0.003800961074344495,0.001973404861865034,0.003099996095100325,0.0032030465207605104,-732.2457878224806,3772.7276190443035,-33.485552265680376,671.603555765112,3547.2119817944467,-404.3180201276181,Vision,Movement,1
0.106,0.02013572081792587,0.013471392797768707,76.52364033889039,73.6196319018405,-0.37809494292538987,-1.1381288728957173,0.003781930446109702,0.001988995599505565,0.0030519659916005276,0.0032097813010728733,-732.2359739278398,3772.722895470089,-33.48735097302085,671.6370807478368,3547.3459870314023,-404.3315138182688,Vision,Movement,1
0.107,0.020135736660623644,0.01347149539381999,76.52364033889039,73.6196319018405,-0.3782721180715807,-1.132261398661494,0.003760852614090951,0.002005542543352309,0.0030026776527530747,0.0032160515007223223,-732.2261600331991,3772.718171895875,-33.48914968036133,671.6706057305615,3547.4799922683583,-404.34500750891937,Vision,Movement,1
0.108,0.020135757715192083,0.013471598193781449,76.52364033889039,73.6196319018405,-0.3784486275710591,-1.1263675264566662,0.0037378507476455193,0.0020228279604069363,0.002952345938939897,0.0032218814288304375,-732.2163461385584,3772.7134483216605,-33.49094838770181,671.7041307132862,3547.613997505314,-404.35850119957,Vision,Movement,1
0.109,0.020135783461636653,0.013471701284073717,76.52364033889039,73.6196319018405,-0.3786244625180414,-1.120447227917431,0.0037130839346463367,0.002040611754222868,0.0029012054232787393,0.003227311162232461,-732.2065322439176,3772.7087247474465,-33.49274709504229,671.737655696011,3547.7480027422694,-404.3719948902206,Vision,Movement,1
0.11,0.02013581340656356,0.013471804635466626,76.52364033889039,73.6196319018405,-0.378799613986101,-1.114500475011503,0.0036867443101363554,0.0020586385547239753,0.002849510435031615,0.0032323959476043235,-732.1967183492769,3772.704001173232,-33.49454580238277,671.7711806787357,3547.8820079792254,-404.38548858087125,Vision,Movement,1
0.111,0.020135847082779223,0.013471908197472427,76.52364033889039,73.6196319018405,-0.37897407302925246,-1.1085272400394413,0.003659053134412042,0.0020766451105863216,0.002797534488514422,0.003237204788123036,-732.1869044546362,3772.699277599018,-33.49634450972325,671.8047056614605,3548.016013216181,-404.39898227152185,Vision,Movement,1
0.112,0.020135884048825315,0.01347201201101931,76.52364033889039,73.6196319018405,-0.37914783068149227,-1.102527495640615,0.003630256041562884,0.0020943677887743295,0.0027455690046082866,0.0032418182160723463,-732.1770905599955,3772.6945540248034,-33.49814321706373,671.8382306441852,3548.1500184531365,-404.4124759621725,Vision,Movement,1
0.113,0.0201359238884549,0.013472116128830442,76.52364033889039,73.6196319018405,-0.37932087795698943,-1.0965012147738624,0.0036006177612207375,0.002111549986798987,0.00269392126285509,0.003246325301603268,-732.1672766653547,3772.6898304505894,-33.49994192440421,671.8717556269099,3548.284023690092,-404.4259696528231,Vision,Movement,1
0.114,0.020135966210057376,0.013472220494365781,76.52364033889039,73.6196319018405,-0.37949320585097984,-1.0904483707500858,0.003570416683361612,0.002127949253305697,0.0026429115604078273,0.0032508200011135122,-732.157462770714,3772.685106876375,-33.50174063174469,671.9052806096347,3548.418028927048,-404.4394633434737,Vision,Movement,1
0.115,0.02013601064603862,0.013472324846664057,76.52364033889039,73.6196319018405,-0.3796648053385819,-1.0843689372122551,0.0035399396556933405,0.0021433438979281097,0.0025928695807923437,0.0032553970079135185,-732.1476488760733,3772.680383302161,-33.503539339085165,671.9388055923594,3548.5520341640035,-404.4529570341243,Vision,Movement,1
0.116,0.020136056852162236,0.01347242867835085,76.52364033889039,73.6196319018405,-0.3798356673758906,-1.0782628881420313,0.003509477359237767,0.002157538866749783,0.002544129989159508,0.003260147311416495,-732.1378349814325,3772.675659727947,-33.50533804642565,671.9723305750841,3548.686039400959,-404.4664507247749,Vision,Movement,1
0.117,0.020136104506858165,0.013472531316389315,76.52364033889039,73.6196319018405,-0.3800057829002816,-1.0721301978657791,0.0034793205101305786,0.0021703706661400993,0.0024970272742514134,0.003265153676955765,-732.1280210867918,3772.6709361537323,-33.507136753766126,672.0058555578089,3548.820044637915,-404.47994441542556,Vision,Movement,1
0.11800000000000001,0.020136153310503238,0.013472631866753218,76.52364033889039,73.6196319018405,-0.38017514283013076,-1.065970841034807,0.003449757003007038,0.0021817111327864934,0.0024518898763245586,0.0032704862361585514,-732.1190609120798,3772.6673524259154,-33.51127299760457,672.0393805405337,3548.9540498748706,-404.49343810607616,Vision,Movement,1
0.11900000000000001,0.020136202984679098,0.013472729532552337,76.52364033889039,73.6196319018405,-0.3803437380651418,-1.0597847926585655,0.0034210699740504654,0.002191469880330395,0.002409033697779685,0.003276198359064119,-732.1103540969517,3772.66410697181,-33.51610295521826,672.0729055232583,3549.088055111826,-404.5069317967268,Vision,Movement,1
0.12,0.020136253271412833,0.013472823995706887,76.52364033889039,73.6196319018405,-0.380511559486649,-1.0535720280841827,0.0033935366421881685,0.002199595321881035,0.002368755185802904,0.0032823229788371314,-732.1016472818237,3772.6608615177042,-33.520932912831945,672.1064305059831,3549.222060348782,-404.5204254873774,Vision,Movement,1
0.121,0.020136303932402705,0.013472915115986094,76.52364033889039,73.6196319018405,-0.3806785979572226,-1.0473325230030235,0.003367427696301603,0.002206074264924002,0.0023313242744530485,0.003288869545058626,-732.0929404666957,3772.6576160635987,-33.525762870445625,672.145566861149,3549.3697173249593,-404.5312968245286,Vision,Movement,1
0.122,0.020136354748235673,0.013473002855995777,76.52364033889039,73.6196319018405,-0.38084484432171467,-1.041066253451966,0.003343006933332206,0.0022109301630191406,0.0022969775361448815,0.0032958217738229176,-732.0842336515677,3772.654370609493,-33.53059282805931,672.1878885873289,3549.52512389446,-404.540679547457,Vision,Movement,1
0.123,0.020136405517598207,0.013473087210835373,76.52364033889039,73.6196319018405,-0.38101028940684106,-1.0347731958194692,0.0033205308059367357,0.0022142201583810962,0.0022659119145053545,0.003303136330191205,-732.0755268364396,3772.6511251553875,-33.53542278567299,672.2302103135087,3549.680530463961,-404.5500622703854,Vision,Movement,1
0.124,0.020136456056484824,0.013473168556842772,76.52364033889039,73.6196319018405,-0.38117492402138053,-1.0284533268253067,0.003300247502747148,0.002216031068267636,0.002238279394502249,0.0033107425190101133,-732.0668200213116,3772.647879701282,-33.54025274328668,672.2725320396886,3549.835937033462,-404.5594449933138,Vision,Movement,1
0.125,0.020136506197407096,0.013473247236397472,76.52364033889039,73.6196319018405,-0.38133873895703707,-1.0221066235544853,0.0032823951883340845,0.0022164744832276224,0.002214182911868925,0.0033185429873896864,-732.0581132061836,3772.6446342471763,-33.54508270090036,672.3148537658685,3549.991343602963,-404.5688277162422,Vision,Movement,1
0.126,0.02013655578860697,0.013473323282494901,76.52364033889039,73.6196319018405,-0.3815017249873368,-1.0157330634365582,0.0032671991129597138,0.00221568117627827,0.002193673715149395,0.003326415382598381,-732.0494063910555,3772.6413887930707,-33.549912658514046,672.3571754920483,3550.1467501724637,-404.57821043917056,Vision,Movement,1
0.127,0.020136604693275086,0.013473396507391601,76.52364033889039,73.6196319018405,-0.3816638728686838,-1.0093326242621223,0.003254867472775833,0.0022137950623464285,0.0021767502907336883,0.0033342148762878225,-732.0406995759275,3772.638143338965,-33.554742616127726,672.3994972182282,3550.3021567419646,-404.587593162099,Vision,Movement,1
0.128,0.020136652788778787,0.013473466637806073,76.52364033889039,73.6196319018405,-0.38182517334066396,-1.0029052841355177,0.0032455861121414753,0.0022109669759320764,0.0021633588626732494,0.00334177745701438,-732.0319927607995,3772.6348978848596,-33.55957257374141,672.441818944408,3550.4575633114655,-404.59697588502735,Vision,Movement,1
0.129,0.020136699965899934,0.013473533310597625,76.52364033889039,73.6196319018405,-0.3819856171257972,-0.9964510215643083,0.0032395123266341975,0.002207348539389951,0.0021533954084047243,0.0033489239018045514,-732.0232859456714,3772.6316524307545,-33.5644025313551,672.484140670588,3550.6129698809664,-404.60635860795577,Vision,Movement,1
0.13,0.02013674612808562,0.013473596130041263,76.52364033889039,73.6196319018405,-0.3821451949298653,-0.9899698153819636,0.003236768100804928,0.0022030863742883195,0.0021467090929091445,0.003355464356614703,-732.0145791305434,3772.628406976649,-33.56923248896878,672.5264623967679,3550.7683764504673,-404.61574133088413,Vision,Movement,1
0.131,0.020136791190713252,0.013473654415312746,76.52364033889039,73.6196319018405,-0.3823038974422151,-0.9834616447827861,0.0032374331202951407,0.0021983168690245395,0.002143107004483665,0.003361203456087836,-732.0058723154154,3772.6251615225433,-33.57406244658247,672.5687841229477,3550.923783019968,-404.62512405381256,Vision,Movement,1
0.132,0.020136835080371212,0.013473707206099327,76.52364033889039,73.6196319018405,-0.38246171533540724,-0.9769264893174733,0.003241537896872053,0.0021931616672803337,0.00214236004115059,0.0033659458740136292,-731.9971655002873,3772.6219160684377,-33.57889240419615,672.6111058491276,3551.079189589469,-404.6345067767409,Vision,Movement,1
0.133,0.020136877734157205,0.0134737536609378,76.52364033889039,73.6196319018405,-0.38261863926621886,-0.9703643288992608,0.003249057378629384,0.0021877239985187216,0.0021442097376229447,0.0033695021239532213,-731.9884586851593,3772.618670614332,-33.58372236180983,672.6534275753074,3551.23459615897,-404.64388949966934,Vision,Movement,1
0.134,0.02013691909899341,0.013473793341585546,76.52364033889039,73.6196319018405,-0.3827746598752666,-0.9637751437828201,0.0032599054737805313,0.00218208593835968,0.002148375750682365,0.003371694353126341,-731.9780047529357,3772.61374811583,-33.58940695146598,672.6957493014874,3551.390002728471,-404.6532722225977,Vision,Movement,1
0.135,0.020136959130962948,0.013473826078745857,76.52364033889039,73.6196319018405,-0.38292976778721566,-0.9571589145993763,0.003273930955190508,0.002176306649969973,0.002154563665332439,0.00337236181526168,-731.9638034010034,3772.605228497684,-33.596924655209165,672.7380710276672,3551.5454092979717,-404.6626549455261,Vision,Movement,1
0.136,0.020136997794664713,0.013473851916902983,76.52364033889039,73.6196319018405,-0.3830839536116056,-0.9505156223347444,0.0032909152015642303,0.002170421606444044,0.002162472769506222,0.0033713656934949853,-731.949602049071,3772.596708879538,-33.60444235895235,672.7803927538471,3551.7008158674726,-404.6720376684545,Vision,Movement,1
0.137,0.020137035062589452,0.013473870945810127,76.52364033889039,73.6196319018405,-0.3832372079418355,-0.9438452483363309,0.003310572158129931,0.002164442739072215,0.0021718034793752608,0.0033685929898208656,-731.9354006971387,3772.588189261392,-33.61196006269553,672.8223145813129,3551.8552811889194,-404.681207239683,Vision,Movement,1
0.138,0.020137070914517587,0.013473883190273827,76.52364033889039,73.6196319018405,-0.3833895213561753,-0.9371477743193153,0.003332550774777674,0.0021583594235067612,0.0021822641702109883,0.003363959290861558,-731.9211993452063,3772.579669643246,-33.61947776643871,672.8535960765583,3551.984702188781,-404.68470536256416,Vision,Movement,1
0.139,0.020137105336938584,0.01347388862888294,76.52364033889039,73.6196319018405,-0.3835408844180681,-0.9304231823451249,0.0033564400247861016,0.0021521402192066124,0.0021935772531981655,0.0033574103218312404,-731.906997993274,3772.5711500251,-33.626995470181896,672.8848775718037,3552.1141231886418,-404.6882034854454,Vision,Movement,1
0.14,0.020137138322491487,0.01347388729108829,76.52364033889039,73.6196319018405,-0.38369128767592114,-0.9236714548571553,0.0033817764523462624,0.0021457352997523026,0.002205484411142724,0.003348922282383236,-731.8927966413416,3772.5626304069538,-33.63451317392508,672.9161590670491,3552.243544188503,-404.69170160832664,Vision,Movement,1
0.14100000000000001,0.02013716986942939,0.01347387904725863,76.52364033889039,73.6196319018405,-0.3838407216635429,-0.9168925746583292,0.0034080540564497565,0.002139079523740563,0.0022177509580557004,0.0033385010200909877,-731.8785952894093,3772.554110788808,-33.64203087766826,672.9474405622946,3552.372965188364,-404.6951997312078,Vision,Movement,1
0.14200000000000002,0.02013719998110455,0.01347386348948764,76.52364033889039,73.6196319018405,-0.3839891768998332,-0.9100865249179885,0.003434736189700284,0.002132096082683262,0.0022301693219866324,0.0033261801603072638,-731.864393937477,3772.5455911706617,-33.64954858141145,672.9787220575399,3552.502386188225,-404.69869785408906,Vision,Movement,1
0.14300000000000002,0.020137228665477264,0.013473839879939395,76.52364033889039,73.6196319018405,-0.3841366438897423,-0.9032532891730791,0.00346126902610722,0.0021247006261534123,0.0022425616732229285,0.0033120183868169083,-731.8501925855446,3772.537071552516,-33.657066285154634,673.0100035527853,3552.6318071880864,-404.7021959769703,Vision,Movement,1
0.14400000000000002,0.02013725593464639,0.013473807296518312,76.52364033889039,73.6196319018405,-0.3842831131239391,-0.8963928513343725,0.0034870960288846454,0.0021168057183454728,0.0022547817345689477,0.003296096143690584,-731.8359912336123,3772.5285519343697,-33.66458398889782,673.0412850480308,3552.7612281879474,-404.7056940998515,Vision,Movement,1
0.145,0.020137281804401923,0.013473764933803447,76.52364033889039,73.6196319018405,-0.38442857507913347,-0.8895051956644402,0.003511672746708513,0.002108325438961795,0.002266715820135512,0.0032785120720538125,-731.8217898816799,3772.520032316224,-33.672101692641,673.0725665432761,3552.890649187809,-404.7091922227327,Vision,Movement,1
0.146,0.020137306293800606,0.01347371200835783,76.52364033889039,73.6196319018405,-0.3845730202182672,-0.8825903068140855,0.0035344812147386864,0.0020991799146560276,0.0022782831505571374,0.0032593794757885953,-731.8075885297476,3772.5115126980777,-33.67961939638418,673.1038480385215,3553.0200701876697,-404.71269034561396,Vision,Movement,1
0.147,0.0201373294247622,0.013473647841032381,76.52364033889039,73.6196319018405,-0.3847164389907099,-0.8756481697995498,0.003555043271407231,0.0020892995542464267,0.002289435482826336,0.003238823022401689,-731.7933871778152,3772.502993079932,-33.687137100127366,673.135129533767,3553.1494911875307,-404.71618846849515,Vision,Movement,1
0.148,0.020137351221687902,0.013473571787497383,76.52364033889039,73.6196319018405,-0.3848588218325587,-0.8686787700147945,0.003572932223931085,0.002078628767707625,0.002300156078237606,0.003216975763929753,-731.7791858258829,3772.4944734617857,-33.69465480387055,673.1664110290124,3553.278912187392,-404.7196865913764,Vision,Movement,1
0.149,0.020137371711099732,0.013473483528956743,76.52364033889039,73.6196319018405,-0.38500015916635927,-0.8616820932091396,0.0035877824543034246,0.002067128991603333,0.002310458030389328,0.0031939764561321506,-731.7649844739506,3772.48595384364,-33.70217250761373,673.1976925242577,3553.408333187253,-404.7231847142576,Vision,Movement,1
0.15,0.020137390921300815,0.01347338352220329,76.52364033889039,73.6196319018405,-0.38514044140203074,-0.854658125524172,0.0035992966925906013,0.002054780921772433,0.0023203819906737013,0.0031699671036304507,-731.7507831220181,3772.4774342254937,-33.709690211356914,673.2289740195032,3553.5377541871144,-404.7266828371388,Vision,Movement,1
0.151,0.020137408882056188,0.013473272233712585,76.52364033889039,73.6196319018405,-0.38527965893656885,-0.8476068534703578,0.0036072507868719385,0.0020415859388510454,0.0023299933494534577,0.003145090676300901,-731.7186516798826,3772.4531250519663,-33.72427037773619,673.2602555147486,3553.6671751869753,-404.73018096002005,Vision,Movement,1
0.152,0.020137425624292785,0.013473149900637494,76.52364033889039,73.6196319018405,-0.385417802154469,-0.8405282639340854,0.003611495916151421,0.0020275667688437367,0.0023393789450581667,0.0031194890124372,-731.6837171303093,3772.4263474123227,-33.739954656884514,673.2915370099939,3553.7965961868363,-404.7336790829013,Vision,Movement,1
0.153,0.020137441179819828,0.013473016598028483,76.52364033889039,73.6196319018405,-0.38555486142746564,-0.8334223441788023,0.0036119583537420215,0.0020127674421765622,0.0023486433831056692,0.00309330099344132,-731.6487825807361,3772.3995697726787,-33.75563893603283,673.3228185052393,3553.9260171866977,-404.73717720578253,Vision,Movement,1
0.154,0.02013745558106783,0.013472872448476928,76.52364033889039,73.6196319018405,-0.38569082711543656,-0.826289081851298,0.0036086370672598293,0.0019972526143985842,0.00235790506200586,0.0030666610923517222,-731.6138480311629,3772.372792133035,-33.771323215181155,673.349598795138,3554.0407891068935,-404.7407300422778,Vision,Movement,1
0.155,0.02013746886084588,0.013472717599085469,76.52364033889039,73.6196319018405,-0.385825689566119,-0.8191284649588416,0.003601599575397347,0.0019811063105487693,0.0023672920217324865,0.003039698353860786,-731.5789134815897,3772.3460144933915,-33.78700749432948,673.3705220213434,3554.1364993344896,-404.74435407328605,Vision,Movement,1
0.156,0.020137481052117316,0.01347255221042355,76.52364033889039,73.6196319018405,-0.38595943911542946,-0.811940481906801,0.0035909765328218666,0.0019644301614336473,0.0023769377570091797,0.0030125357932203408,-731.5439789320164,3772.3192368537475,-33.802691773477804,673.3914452475489,3554.232209562086,-404.7479781042943,Vision,Movement,1
0.157,0.02013749218779246,0.013472376412097592,76.52364033889039,73.6196319018405,-0.38609206608766516,-0.8047251214746833,0.003576955492008088,0.0019473412128991024,0.0023869771503263414,0.0029852901488934902,-731.5090443824432,3772.292459214104,-33.81837605262612,673.4123684737543,3554.3279197896823,-404.75160213530256,Vision,Movement,1
0.158,0.020137502300538762,0.013472190284541106,76.52364033889039,73.6196319018405,-0.38622356079580106,-0.797482372823744,0.00355977423174428,0.0019299693968846338,0.0023975426760405928,0.002958071915125933,-731.47410983287,3772.2656815744604,-33.834060331774445,673.4332916999597,3554.423630017279,-404.7552261663108,Vision,Movement,1
0.159,0.02013751142260673,0.013471994019191991,76.52364033889039,73.6196319018405,-0.3863539135412562,-0.7902122255085012,0.0035397139732618156,0.0019124547487676389,0.0024087610087996933,0.0029309856033210174,-731.4391752832968,3772.2389039348163,-33.84974461092277,673.4542149261652,3554.519340244875,-404.7588501973191,Vision,Movement,1
0.16,0.02013751958567291,0.013471788065904345,76.52364033889039,73.6196319018405,-0.3864831146147652,-0.7829146694238619,0.0035170927264275573,0.0018949444414024354,0.002420750140667795,0.002904130205096687,-731.4042407337236,3772.2121262951728,-33.865428890071094,673.4751381523706,3554.6150504724715,-404.76247422832733,Vision,Movement,1
0.161,0.020137526820697044,0.013471572914079669,76.52364033889039,73.6196319018405,-0.3866111542961224,-0.7755896949049033,0.0034922589136280762,0.0018775896908874148,0.002433617068247602,0.002877599831515194,-731.3774905165634,3772.1886966197294,-33.87747738654191,673.4960613785761,3554.7107607000676,-404.7660982593356,Vision,Movement,1
0.162,0.020137533157795023,0.013471348881321793,76.52364033889039,73.6196319018405,-0.38673802285450354,-0.768237292639673,0.003465585312868117,0.0018605425805150956,0.00244745605207214,0.002851484483415104,-731.3566288348277,3772.1676757669975,-33.88690997813362,673.5169846047814,3554.806470927664,-404.7697222903439,Vision,Movement,1
0.163,0.020137538626126023,0.01347111591597023,76.52364033889039,73.6196319018405,-0.3868637105487588,-0.7608574537081351,0.003437463271180756,0.0018439528597960723,0.0024623473759656277,0.002825870901526175,-731.335767153092,3772.146654914265,-33.89634256972534,673.5379078309869,3554.90218115526,-404.77334632135216,Vision,Movement,1
0.164,0.020137543253793622,0.013470873661536221,76.52364033889039,73.6196319018405,-0.3869882076272039,-0.753450169576854,0.0034082970944194677,0.0018279647964591873,0.0024783564659208532,0.0028008434572907247,-731.3149054713563,3772.125634061533,-33.90577516131706,673.5588310571924,3554.997891382857,-404.7769703523604,Vision,Movement,1
0.165,0.020137547067760494,0.013470621787351979,76.52364033889039,73.6196319018405,-0.38711150432846264,-0.7460154321053332,0.0033784985363143165,0.0018127141644933393,0.0024955331939256536,0.002776485063209289,-731.2940437896206,3772.104613208801,-33.91520775290877,673.5797542833978,3555.093601610453,-404.7805943833687,Vision,Movement,1
0.166,0.020137550093776397,0.0134703604235551,76.52364033889039,73.6196319018405,-0.38723359088123643,-0.7385532335222372,0.003348481370379114,0.0017983254318378182,0.0025139112158488806,0.0027528780745300703,-731.2731821078848,3772.083592356069,-33.92464034450049,673.6006775096032,3555.1893118380494,-404.78421841437694,Vision,Movement,1
0.167,0.020137552356318436,0.013470089640575304,76.52364033889039,73.6196319018405,-0.38735445750461694,-0.7310635664643051,0.003318656078304175,0.0017849091914376933,0.002533507261269395,0.00273010513323426,-731.2523204261491,3772.0625715033366,-33.93407293609221,673.6216007358087,3555.2850220656455,-404.7878424453852,Vision,Movement,1
0.168,0.020137553878543914,0.01346980945664656,76.52364033889039,73.6196319018405,-0.3874740944082961,-0.7235464239513418,0.0032894246924075883,0.001772559886862426,0.0025543203679729816,0.0027082499058235805,-731.2314587444134,3772.0415506506047,-33.94350552768392,673.6425239620141,3555.380732293242,-404.79146647639345,Vision,Movement,1
0.169,0.020137554682254855,0.013469519695797964,76.52364033889039,73.6196319018405,-0.3875924917928562,-0.7160017993937776,0.0032611757957666976,0.00176135390758265,0.0025763310998669227,0.002687397700434876,-731.2105970626777,3772.0205297978723,-33.952938119275636,673.6634471882196,3555.476442520838,-404.7950905074017,Vision,Movement,1
0.17,0.020137554787874653,0.01346922015507319,76.52364033889039,73.6196319018405,-0.3877096398495893,-0.7084296865990298,0.0032342796522968893,0.001751348139758781,0.00259950080623217,0.002667635976674247,-731.189735380942,3771.9995089451404,-33.96237071086735,673.684370414425,3555.5721527484347,-404.79871453840997,Vision,Movement,1
0.171,0.020137554214435013,0.013468910629620351,76.52364033889039,73.6196319018405,-0.3878255287613051,-0.7008300797473102,0.0032090834364799717,0.0017425790403087075,0.002623770991395736,0.0026490547524827025,-731.1688736992063,3771.978488092408,-33.971803302459065,673.7056566750537,3555.6568100204067,-404.8088072741425,Vision,Movement,1
0.17200000000000001,0.020137552979574584,0.01346859105445452,76.52364033889039,73.6196319018405,-0.38794014870212895,-0.693202973431122,0.0031859065717962636,0.0017350622642623291,0.002649062873880967,0.0026317468797750067,-731.1480120174706,3771.957467239676,-33.98123589405078,673.7270157787328,3555.739249510943,-404.8201979589253,Vision,Movement,1
0.17300000000000001,0.02013755109954782,0.013468261371062482,76.52364033889039,73.6196319018405,-0.3880534898378159,-0.6855483626297741,0.0031650362724420216,0.0017287928378247265,0.0026752772092519996,0.002615808138461708,-731.1271503357349,3771.9364463869438,-33.990668485642495,673.748374882412,3555.8216890014787,-404.83158864370813,Vision,Movement,1
0.17400000000000002,0.020137548589243694,0.013467921155466654,76.52364033889039,73.6196319018405,-0.3881655423260397,-0.6778662427167461,0.0031467234987331318,0.0017237458530785354,0.00270229441855872,0.002601337102374006,-731.1062886539992,3771.915425534212,-34.00010107723421,673.7697339860913,3555.9041284920145,-404.8429793284909,Vision,Movement,1
0.17500000000000002,0.02013754546221586,0.01346756965167941,76.52364033889039,73.6196319018405,-0.3882762963162365,-0.6701566094607074,0.003131179622811077,0.001719877666963028,0.0027299750242076744,0.002588434747159017,-731.0854269722635,3771.8944046814795,-34.00953366882593,673.7910930897705,3555.9865679825502,-404.8543700132737,Vision,Movement,1
0.176,0.020137541730720878,0.013467206152730766,76.52364033889039,73.6196319018405,-0.38838574195038145,-0.662419459031904,0.0031185741104303496,0.0017171275968320032,0.0027581603734719916,0.002577203786786298,-731.0645652905278,3771.8733838287476,-34.01896626041764,673.8124521934496,3556.0690074730865,-404.8657606980565,Vision,Movement,1
0.177,0.020137537405767465,0.013466830043896878,76.52364033889039,73.6196319018405,-0.38849386936281144,-0.6546547879774685,0.0031090334673557333,0.0017154200928657492,0.002786673636090125,0.0025677477331728983,-731.0447932923673,3771.8525678264546,-34.027829868391,673.8338112971288,3556.151446963622,-404.87715138283926,Vision,Movement,1
0.178,0.020137532497174423,0.013466440909777232,76.52364033889039,73.6196319018405,-0.38860066868053267,-0.6468625932616153,0.0031026416136111248,0.001714667330277473,0.0028153210794776094,0.0025601696680166313,-731.0324185265615,3771.8331424354633,-34.03283097524359,673.855170400808,3556.233886454158,-404.8885420676221,Vision,Movement,1
0.179,0.02013752701363781,0.013466038474218388,76.52364033889039,73.6196319018405,-0.38870613002343535,-0.6390428722398723,0.003099441755777382,0.0017147721199534077,0.0028438936345798614,0.002554570701408882,-731.0200437607556,3771.8137170444725,-34.03783208209617,673.8765295044872,3556.3163259446937,-404.8999327524049,Vision,Movement,1
0.18,0.020137520962807923,0.013465622727298805,76.52364033889039,73.6196319018405,-0.388810243504578,-0.6311956226722357,0.003099439722490824,0.0017156310023080693,0.0028721687609461807,0.0025510480888041947,-731.0076689949497,3771.794291653481,-34.04283318894876,673.8978886081663,3556.39876543523,-404.91132343718766,Vision,Movement,1
0.181,0.020137514351374404,0.013465193728077392,76.52364033889039,73.6196319018405,-0.3889129992300627,-0.623320842698152,0.0031026086195094574,0.0017171373761642964,0.002899912617971073,0.002549693000144844,-730.9952942291437,3771.7748662624904,-34.047834295801344,673.9192477118455,3556.4812049257657,-404.92271412197044,Vision,Movement,1
0.182,0.020137507185160324,0.013464751674688935,76.52364033889039,73.6196319018405,-0.3890143872997718,-0.6154185308771749,0.0031088945667782347,0.0017191845283085335,0.002926882552731816,0.002550587971843617,-730.9829194633379,3771.755440871499,-34.052835402653926,673.9406068155247,3556.5636444163015,-404.9341048067533,Vision,Movement,1
0.183,0.020137499469225856,0.013464297217697358,76.52364033889039,73.6196319018405,-0.3891143978072222,-0.6074886861625228,0.0031182232036346125,0.0017216684615635669,0.002952829911427298,0.0025538040987419224,-730.970544697532,3771.7360154805083,-34.057836509506515,673.9619659192039,3556.6460839068372,-404.94549549153606,Vision,Movement,1
0.184,0.0201374912079793,0.013463831828294765,76.52364033889039,73.6196319018405,-0.3892130208398718,-0.5995313079085869,0.0031305065774975935,0.0017244904448046198,0.0029775031600673477,0.0025593980323067632,-730.958169931726,3771.716590089517,-34.0628376163591,673.983325022883,3556.728523397373,-404.95688617631885,Vision,Movement,1
0.185,0.02013748240529754,0.013463357249280276,76.52364033889039,73.6196319018405,-0.389310246479402,-0.5915463958718913,0.0031456499718077154,0.0017275592128203666,0.0030006512804613204,0.002567408856812531,-730.9457951659201,3771.697164698526,-34.067838723211686,674.0046841265622,3556.810962887909,-404.96827686110163,Vision,Movement,1
0.186,0.02013747306465503,0.013462875471035345,76.52364033889039,73.6196319018405,-0.389406064801617,-0.5835339502175122,0.0031635582159546803,0.0017307927413558472,0.003022027403372513,0.002577854928202038,-730.9334204001142,3771.677739307535,-34.07283983006427,674.0260432302414,3556.893402378445,-404.97966754588447,Vision,Movement,1
0.187,0.020137463189260726,0.013462388786625446,76.52364033889039,73.6196319018405,-0.38950046587714854,-0.5754939714935686,0.0031841410768792535,0.0017341195326125271,0.003041392645373164,0.002590730775644189,-730.9210456343084,3771.658313916544,-34.07784093691685,674.0480248329891,3556.974552455276,-404.992705954374,Vision,Movement,1
0.188,0.020137452782203514,0.013461899421896434,76.52364033889039,73.6196319018405,-0.38959343977133554,-0.5674264606725676,0.00320731742627228,0.0017374793722600421,0.003058520111820941,0.0026060041736373322,-730.9086708685024,3771.638888525553,-34.08284204376944,674.0720762698212,3557.0514151804123,-405.01122310952,Vision,Movement,1
0.189,0.020137441846606548,0.013461409870881937,76.52364033889039,73.6196319018405,-0.38968497654452416,-0.5593314191243911,0.0032330179537075478,0.0017408235564737038,0.0030731990131664458,0.0026236134959053766,-730.8962961026965,3771.619463134562,-34.08784315062202,674.0961277066533,3557.1282779055487,-405.0297402646661,Vision,Movement,1
0.19,0.020137430385789006,0.01346092305828535,76.52364033889039,73.6196319018405,-0.3897750662522863,-0.5512088486245265,0.003261186243348402,0.0017441146297782614,0.003085238826042848,0.0026434654716065314,-730.8839213368906,3771.6000377435707,-34.09284425747461,674.1201791434855,3557.205140630685,-405.0482574198121,Vision,Movement,1
0.191,0.02013741840343671,0.01346044233452506,76.52364033889039,73.6196319018405,-0.3898636989456968,-0.5430587513660051,0.003291778102301849,0.0017473257103114,0.0030944734290600548,0.0026654334792634584,-730.8715465710848,3771.58061235258,-34.09784536432719,674.1442305803176,3557.2820033558214,-405.0667745749582,Vision,Movement,1
0.192,0.02013740590378096,0.013459971518568483,76.52364033889039,73.6196319018405,-0.3899508646712656,-0.5348811299011373,0.0033247591655108733,0.0017504395016236718,0.0031007651482581047,0.0026893565096374646,-730.8591718052788,3771.5611869615886,-34.102846471179774,674.1682820171497,3557.358866080958,-405.0852917301042,Vision,Movement,1
0.193,0.020137392891784785,0.013459514948626,76.52364033889039,73.6196319018405,-0.3900365534715993,-0.5266759872513376,0.003360100986858623,0.0017534471047744248,0.0031040086410905124,0.002715038885318397,-730.8467970394729,3771.541761570598,-34.10784757803236,674.192333453982,3557.435728806094,-405.10380888525026,Vision,Movement,1
0.194,0.020137379373338087,0.013459076853426333,76.52364033889039,73.6196319018405,-0.3901207553853136,-0.5184433268101183,0.0033977759936107666,0.0017563467565876345,0.003104134528767317,0.002742250761288774,-730.8395773139993,3771.526061231354,-34.10858196038971,674.2163848908141,3557.5125915312306,-405.1223260403963,Vision,Movement,1
0.195,0.020137365355460242,0.013458660679248132,76.52364033889039,73.6196319018405,-0.39020346044733156,-0.5101831523859868,0.0034377517823802636,0.0017591426258202732,0.0031011126682549965,0.0027707293746461028,-730.8348371203209,3771.5121526112152,-34.107264083527824,674.2404363276462,3557.589454256367,-405.14084319554235,Vision,Movement,1
0.196,0.020137350846511085,0.013458268924034544,76.52364033889039,73.6196319018405,-0.3902846586891573,-0.5018954681962279,0.0034799852517796827,0.0017618437909693266,0.0030949549488317666,0.002800180984468275,-730.8300969266426,3771.4982439910764,-34.105946206665934,674.2644877644784,3557.6663169815033,-405.15936035068836,Vision,Movement,1
0.197,0.020137335856408707,0.013457903111645396,76.52364033889039,73.6196319018405,-0.39036434013883453,-0.49358027887334877,0.0035244170187378543,0.0017644634986423993,0.0030857174987127317,0.002830283422785828,-730.8253567329642,3771.484335370937,-34.10462832980405,674.2885392013105,3557.7431797066397,-405.17787750583443,Vision,Movement,1
0.198,0.020137320396856416,0.013457563796037669,76.52364033889039,73.6196319018405,-0.39044249482157234,-0.4852375894386778,0.0035709664809400197,0.0017670187620282126,0.003073502194053112,0.0028606891485321493,-730.8206165392858,3771.470426750798,-34.10331045294216,674.3125906381428,3557.820042431776,-405.1963946609805,Vision,Movement,1
0.199,0.020137304481575753,0.013457250592750719,76.52364033889039,73.6196319018405,-0.3905191127596847,-0.4768674053449581,0.0036195277886273292,0.001769530311524456,0.0030584573787440414,0.002891028662562058,-730.8158763456074,3771.456518130659,-34.10199257608028,674.3366420749749,3557.8969051569125,-405.2149118161265,Vision,Movement,1
0.2,0.02013728812654726,0.013456962331917325,76.52364033889039,73.6196319018405,-0.3905941839728817,-0.46846973244828805,0.003669966894692928,0.0017720228639375635,0.003040777728517081,0.002920914138838381,-730.8111361519291,3771.44260951052,-34.10067469921839,674.360693511807,3557.973767882049,-405.2334289712726,Vision,Movement,1
0.201,0.020137271350259164,0.013456697677261967,76.52364033889039,73.6196319018405,-0.3906676984784904,-0.4600445770162092,0.003722119764026904,0.0017745256420971629,0.0030207032259126953,0.0029499431775366143,-730.8063959582506,3771.428700890381,-34.099356822356505,674.3847449486392,3558.050630607185,-405.2519461264186,Vision,Movement,1
0.202,0.020137254173961495,0.013456455338830274,76.52364033889039,73.6196319018405,-0.39073964629172425,-0.4515919457341589,0.003775791739948255,0.0017770730579743802,0.002998517246904776,0.00297770268050342,-730.8016557645723,3771.414792270242,-34.098038945494615,674.4087963854713,3558.1274933323216,-405.2704632815647,Vision,Movement,1
0.203,0.02013723662192802,0.013456233876653866,76.52364033889039,73.6196319018405,-0.39081001742567506,-0.4431118456786676,0.0038307579763990768,0.0017797054651480485,0.002974543783548269,0.0030037729450890388,-730.7969155708939,3771.400883650103,-34.09672106863273,674.4328478223034,3558.204356057458,-405.2889804367107,Vision,Movement,1
0.20400000000000001,0.020137218721723582,0.013456032293335368,76.52364033889039,73.6196319018405,-0.39087880189189295,-0.43460428436051346,0.0038867647552124364,0.001782469882392887,0.00294914383414022,0.0030277321318088156,-730.7921753772156,3771.3869750299637,-34.09540319177084,674.4535828430987,3558.2727814464242,-405.3066510499239,Vision,Movement,1
0.20500000000000002,0.02013720050447765,0.013455850080203896,76.52364033889039,73.6196319018405,-0.3909459897003637,-0.4260692696961901,0.003943531441236638,0.0017854205868134533,0.002922710995181051,0.0030491612664966137,-730.7874351835371,3771.373066409825,-34.09408531490896,674.4723662951274,3558.336241824499,-405.32382350947444,Vision,Movement,1
0.20600000000000002,0.020137182005163234,0.013455687165957174,76.52364033889039,73.6196319018405,-0.39101157085983695,-0.4175068100157067,0.004000752822430826,0.0017886194770072605,0.0028956663041864762,0.0030676498861767856,-730.7826949898588,3771.359157789686,-34.09276743804707,674.4911497471559,3558.399702202574,-405.34099596902496,Vision,Movement,1
0.20700000000000002,0.02013716326288074,0.013455543647085663,76.52364033889039,73.6196319018405,-0.3910755353778409,-0.4089169140634163,0.004058101635230748,0.0017921361158665318,0.002868452397399083,0.0030828023569134605,-730.7779547961804,3771.3452491695466,-34.091449561185186,674.5099331991845,3558.463162580649,-405.3581684285754,Vision,Movement,1
0.20800000000000002,0.0201371443211462,0.01345541945721016,76.52364033889039,73.6196319018405,-0.39113787326122984,-0.4002995910044739,0.004115231150175394,0.0017960473772908252,0.002841527050697023,0.0030942448136340333,-730.7732146025021,3771.3313405494077,-34.090131684323296,674.5287166512131,3558.526622958724,-405.37534088812595,Vision,Movement,1
0.209,0.02013712522818302,0.013455314913220223,76.52364033889039,73.6196319018405,-0.39119857451618284,-0.3916548503975576,0.004171777722780531,0.001800436643073871,0.0028153561778522435,0.003101632612388117,-730.7684744088236,3771.3174319292684,-34.08881380746141,674.5475001032418,3558.590083336799,-405.39251334767647,Vision,Movement,1
0.21,0.020137106037217505,0.013455230971032872,76.52364033889039,73.6196319018405,-0.3912576291484822,-0.38298270223868885,0.0042273631905536966,0.0018053925316205597,0.0027904063915790275,0.0031046581341970772,-730.7642836479441,3771.304824683455,-34.0866348866188,674.5662835552703,3558.653543714874,-405.409685807227,Vision,Movement,1
0.211,0.020137086806775915,0.013455169161576902,76.52364033889039,73.6196319018405,-0.3913150271637367,-0.37428315693251596,0.004281596965287368,0.0018110071864317833,0.002767137287064976,0.0031030587262169244,-730.7620178114563,3771.296776770808,-34.081439319218845,674.5850670072989,3558.7170040929486,-405.4268582667775,Vision,Movement,1
0.212,0.02013706760098359,0.013455131365562178,76.52364033889039,73.6196319018405,-0.3913707585676064,-0.3655562253062425,0.004334077704296724,0.0018173741953267316,0.0027459936630787724,0.0030966245155470157,-730.7597519749685,3771.2887288581605,-34.07624375181889,674.6038504593275,3558.7804644710236,-405.444030726328,Vision,Movement,1
0.213,0.02013704848986441,0.013455119814894211,76.52364033889039,73.6196319018405,-0.3914248133660623,-0.3568019185820303,0.004384394565295183,0.0018245862373497304,0.002727397922171923,0.0030852058004024563,-730.7574861384808,3771.2806809455133,-34.07104818441894,674.6226339113562,3558.8439248490986,-405.4612031858785,Vision,Movement,1
0.214,0.02013702954963982,0.013455136490508297,76.52364033889039,73.6196319018405,-0.3914771815654408,-0.3480202484212626,0.004432128216649927,0.0018327325636848604,0.0027117428770448873,0.0030687197209021654,-730.755220301993,3771.272633032866,-34.06585261701898,674.6414173633848,3558.9073852271736,-405.478375645429,Vision,Movement,1
0.215,0.020137010863026803,0.013455182609447804,76.52364033889039,73.6196319018405,-0.39152785317293437,-0.3392112268950681,0.004476851917825598,0.0018418964219119593,0.0026993851385315056,0.0030471559291979935,-730.7529544655051,3771.2645851202187,-34.06065704961903,674.6602008154133,3558.9708456052485,-405.49554810497955,Vision,Movement,1
0.216,0.020136992519532777,0.013455258625717417,76.52364033889039,73.6196319018405,-0.39157681819663326,-0.3303748664922495,0.004518133044957136,0.0018521525344913656,0.002690639197368051,0.0030205810001852442,-730.7506886290174,3771.2565372075715,-34.05546148221908,674.6789842674419,3559.0343059833235,-405.51272056453007,Vision,Movement,1
0.217,0.020136974615746202,0.013455364726921482,76.52364033889039,73.6196319018405,-0.3916240666458283,-0.3215111801200475,0.004555535409499552,0.0018635647390899627,0.00268577226118857,0.002989141348123207,-730.7484227925296,3771.248489294924,-34.05026591481912,674.6977677194706,3559.0977663613985,-405.52989302408054,Vision,Movement,1
0.218,0.020136957255622766,0.013455501371103346,76.52364033889039,73.6196319018405,-0.39166958853108835,-0.3126201811106045,0.004588622627934837,0.0018761838823489702,0.0026849998866617063,0.002953064465820327,-730.7461569560418,3771.240441382277,-34.04507034741917,674.7165511714992,3559.161226739473,-405.54706548363106,Vision,Movement,1
0.219,0.020136940550763715,0.013455669087964953,76.52364033889039,73.6196319018405,-0.39171337386471794,-0.3037018831928982,0.004616962686812605,0.0018900460322544624,0.0026884824518045376,0.002912658396933425,-730.7438911195541,3771.2323934696296,-34.03987478001922,674.7353346235277,3559.224687117548,-405.5642379431816,Vision,Movement,1
0.22,0.020136924620686315,0.013455868107021214,76.52364033889039,73.6196319018405,-0.3917554126608214,-0.29475630053765856,0.004640133724182478,0.0019051710486282748,0.0026963225278347717,0.002868309464782249,-730.7416252830662,3771.2243455569824,-34.03467921261926,674.7538041784555,3559.2878839170157,-405.58120142677444,Vision,Movement,1
0.221,0.020136909593083892,0.01345609800164247,76.52364033889039,73.6196319018405,-0.3917956949355692,-0.28578344772733216,0.004657730927249403,0.0019215615367418194,0.002708563210009991,0.002820478362500099,-730.7393594465785,3771.216297644335,-34.02948364521931,674.761325382498,3559.341887413737,-405.59087608194113,Vision,Movement,1
0.222,0.020136895604073828,0.013456357977281508,76.52364033889039,73.6196319018405,-0.39183421070742463,-0.27678333976491454,0.004669374333308832,0.0019392021990939845,0.0027251874411396877,0.0027696947351803164,-730.7370936100907,3771.208249731688,-34.02428807781936,674.7688465865403,3559.395890910458,-405.6005507371079,Vision,Movement,1
0.223,0.020136882798431358,0.01345664777682869,76.52364033889039,73.6196319018405,-0.3918709499973941,-0.2677559920861493,0.004674717231354529,0.0019580595857788064,0.0027461183228081917,0.002716550360646947,-730.7348277736029,3771.2002018190406,-34.0190925104194,674.7763677905826,3559.4498944071793,-405.6102253922746,Vision,Movement,1
0.224,0.020136871329806818,0.013456967688045789,76.52364033889039,73.6196319018405,-0.3919059028291394,-0.2587014204961559,0.004673454804696544,0.0019780822216845114,0.002771220381342373,0.002661691000831088,-730.7325619371152,3771.1921539063933,-34.013896943019446,674.783888994625,3559.5038979039005,-405.6199000474413,Vision,Movement,1
0.225,0.020136861360925726,0.013457318361613284,76.52364033889039,73.6196319018405,-0.39193905922938355,-0.24961964128888092,0.00466533264067742,0.0019992010631716293,0.0028003017442712725,0.0026058069940460703,-730.7302961006274,3771.184105993746,-34.008701375619495,674.7914101986674,3559.5579014006216,-405.629574702608,Vision,Movement,1
0.226,0.020136853063766114,0.013457700775734549,76.52364033889039,73.6196319018405,-0.3919704092280125,-0.2405106711405237,0.0046501547597018866,0.002021330213897816,0.0028331171787558634,0.002549622697544217,-730.7280302641395,3771.1760580810987,-34.00350580821954,674.7989314027099,3559.611904897343,-405.63924935777476,Vision,Movement,1
0.227,0.020136846619714276,0.0134581159352878,76.52364033889039,73.6196319018405,-0.3919999428583352,-0.23137452715625828,0.004627790858436792,0.002044367824045113,0.0028693719220409322,0.0024938849665781123,-730.7246775235717,3771.1701360182674,-33.99869823187774,674.8064526067521,3559.665908394064,-405.6489240129415,Vision,Movement,1
0.228,0.02013684221969277,0.013458564794347283,76.52364033889039,73.6196319018405,-0.3920276501573266,-0.22221122686311243,0.004598182490721772,0.0020681971153836166,0.0029087262003068327,0.002439350923972209,-730.7209980639146,3771.1648529775252,-33.99400728412112,674.8139738107946,3559.719911890785,-405.6585986681082,Vision,Movement,1
0.229,0.020136840064261245,0.013459048316411431,76.52364033889039,73.6196319018405,-0.39205352116577136,-0.21302078821642562,0.004561347913092179,0.0020926875053732708,0.002950800296031744,0.0023867753239823547,-730.7173186042577,3771.1595699367826,-33.989316336364496,674.821495014837,3559.7739153875063,-405.66827332327495,Vision,Movement,1
0.23,0.020136840363683708,0.01345956779899176,76.52364033889039,73.6196319018405,-0.39207754592862476,-0.20380322957093325,0.004517385317668469,0.0021176958237219597,0.0029951800077706297,0.0023368978228150233,-730.7136391446007,3771.1542868960405,-33.984625388607874,674.8290162188794,3559.8279188842275,-405.67794797844164,Vision,Movement,1
0.231,0.02013684333796223,0.013460124825297473,76.52364033889039,73.6196319018405,-0.3920997144951465,-0.19455856972686816,0.0044664742051070145,0.0021430676192132304,0.003041422354751072,0.0022904304377349893,-730.7099596849438,3771.1490038552984,-33.97993444085125,674.8365374229217,3559.8819223809487,-405.6876226336084,Vision,Movement,1
0.232,0.020136849216831027,0.013460721184391755,76.52364033889039,73.6196319018405,-0.3921200169191524,-0.18528682789934847,0.0044088747370159154,0.002168638568236837,0.0030890614096633203,0.0022480454238146185,-730.7062802252867,3771.1437208145558,-33.97524349309463,674.844058626964,3559.93592587767,-405.6972972887751,Vision,Movement,1
0.233,0.020136858239710096,0.013461359139239395,76.52364033889039,73.6196319018405,-0.3921384432592418,-0.17598802373275418,0.0043449250440725905,0.002194236031194678,0.003137614178066154,0.0022103637512645483,-730.7026007656298,3771.1384377738136,-33.97055254533801,674.8515798310065,3559.989929374391,-405.7069719439418,Vision,Movement,1
0.234,0.02013687065561276,0.013462040817262542,76.52364033889039,73.6196319018405,-0.3921549835790353,-0.16666217727150656,0.004275036616168448,0.0022196808402327097,0.003186586469812406,0.002177944327265124,-730.6989213059728,3771.133154733071,-33.96586159758139,674.8591010350488,3560.0439328711122,-405.7166465991085,Vision,Movement,1
0.23500000000000001,0.020136886723004063,0.013462767495713164,76.52364033889039,73.6196319018405,-0.39216962794735405,-0.15730930900659415,0.004199688031415824,0.002244789409218473,0.0032354787228440034,0.0021512740781012957,-730.6952418463158,3771.127871692329,-33.961170649824766,674.8666222390912,3560.0979363678334,-405.72632125427526,Vision,Movement,1
0.23600000000000002,0.020136906709607306,0.013463539450524099,76.52364033889039,73.6196319018405,-0.392182366438526,-0.14792943984414364,0.004119417369586386,0.0022693762287887115,0.003283791768767994,0.0021307589982729595,-730.6915623866588,3771.1225886515863,-33.956479702068144,674.8741434431336,3560.1519398645546,-405.73599590944195,Vision,Movement,1
0.23700000000000002,0.020136930892152054,0.01346435593044953,76.52364033889039,73.6196319018405,-0.39219318913255835,-0.13852259111360068,0.0040348137019722025,0.0022932567609866734,0.0033310325710292996,0.002116716302410689,-730.6878829270019,3771.117305610844,-33.95178875431152,674.8783212946065,3560.206911637394,-405.74331113983743,Vision,Movement,1
0.23800000000000002,0.020136959556062806,0.01346521522563563,76.52364033889039,73.6196319018405,-0.39220208611538027,-0.1290887845683594,0.003946508050141103,0.002316250701144468,0.00337671999120904,0.0021093678716042207,-730.6842034673448,3771.1120225701015,-33.9470978065549,674.8779979646686,3560.263187007857,-405.7474498584231,Vision,Movement,1
0.23900000000000002,0.020136992995080587,0.013466115007567012,76.52364033889039,73.6196319018405,-0.39220904747907437,-0.11962804239220703,0.003855164181011212,0.002338185536918528,0.0034203906171363526,0.00210883523208667,-730.6805240076878,3771.1067395293594,-33.94240685879828,674.8776746347305,3560.31946237832,-405.7515885770088,Vision,Movement,1
0.24,0.02013703151081604,0.013467053151279308,76.52364033889039,73.6196319018405,-0.39221406332208747,-0.11014038716965223,0.003761469567832939,0.0023589003093144553,0.0034616046377561683,0.0021151363005334134,-730.6768445480309,3771.101456488617,-33.93771591104166,674.8773513047926,3560.3757377487827,-405.7557272955945,Vision,Movement,1
0.241,0.020137075412226944,0.013468027779598516,76.52364033889039,73.6196319018405,-0.39221712374948897,-0.10062584193307823,0.00366612679912701,0.0023782494679646517,0.0034999517002130076,0.0021281840726849435,-730.6731650883738,3771.0961734478747,-33.933024963285035,674.8770279748545,3560.4320131192458,-405.7598660141802,Vision,Movement,1
0.242,0.02013712501501764,0.013469036722225209,76.52364033889039,73.6196319018405,-0.39221821887317704,-0.09108443013076611,0.0035698456527259517,0.0023961067131496845,0.0035350566349631298,0.002147787347439156,-730.6694856287169,3771.090890407132,-33.928334015528414,674.8767046449166,3560.488288489709,-405.76400473276584,Vision,Movement,1
0.243,0.020137180640953715,0.013470077400332871,76.52364033889039,73.6196319018405,-0.3922173388121131,-0.08151617563562664,0.0034733359578502138,0.002412368724338963,0.0035665848732475344,0.0021736534897743424,-730.6657271298194,3771.085933634033,-33.92479936157808,674.8763813149785,3560.544563860172,-405.76814345135153,Vision,Movement,1
0.244,0.02013724261708808,0.01347114734585576,76.52364033889039,73.6196319018405,-0.3922144736925503,-0.0719211027516357,0.0033773012785404165,0.002426958666567205,0.003594247334908589,0.002205393150407497,-730.6617973128486,3771.0816840481957,-33.923770982055665,674.8760579850406,3560.600839230635,-405.7722821699372,Vision,Movement,1
0.245,0.02013731127489328,0.013472244229511715,76.52364033889039,73.6196319018405,-0.39220961364825707,-0.06229923618379005,0.003282433388227128,0.0024398293326755595,0.0036178045576661434,0.002242526782179557,-730.6578674958779,3771.0774344623587,-33.92274260253325,674.8757346551025,3560.6571146010974,-405.7764208885229,Vision,Movement,1
0.246,0.020137386949294567,0.013473365616399325,76.52364033889039,73.6196319018405,-0.3922027488207661,-0.05265060108577922,0.003189407474374353,0.0024509657375091165,0.0036370698669022277,0.002284492732086582,-730.6539376789071,3771.0731848765217,-33.92171422301083,674.8754113251646,3560.7133899715604,-405.7805596071086,Vision,Movement,1
0.247,0.020137469977599236,0.01347450920992905,76.52364033889039,73.6196319018405,-0.39219386935957484,-0.042975223027552654,0.003098877989452025,0.002460386960161059,0.0036519114302149555,0.0023306566608788425,-730.6500078619364,3771.0689352906843,-33.920685843488414,674.8750879952265,3560.7696653420235,-405.78469832569425,Vision,Movement,1
0.248,0.020137560698316025,0.013475672306898712,76.52364033889039,73.6196319018405,-0.3921829654223919,-0.033273128003624655,0.0030114750304708862,0.002468147049761379,0.003662253104012859,0.002380322056287072,-730.6460780449656,3771.0646857048473,-33.919657463966,674.8747646652886,3560.8259407124865,-405.78883704427994,Vision,Movement,1
0.249,0.020137659449860467,0.013476852353329263,76.52364033889039,73.6196319018405,-0.39217002717536137,-0.02354434243363299,0.0029278010658564634,0.0024743348674814494,0.003668074073196738,0.0024327416583695477,-730.6421482279949,3771.0604361190103,-33.91862908444357,674.8744413353505,3560.882216082949,-405.79297576286564,Vision,Movement,1
0.25,0.020137766569139903,0.013478047111565533,76.52364033889039,73.6196319018405,-0.3921550447932805,-0.01378889316875807,0.0028484277690684814,0.002479072815967137,0.003669407391330849,0.0024871296776950895,-730.6382184110241,3771.056186533173,-33.917600704921156,674.8741180054126,3560.938491453412,-405.79711448145133,Vision,Movement,1
0.251,0.02013788239001368,0.01347925459994571,76.52364033889039,73.6196319018405,-0.3921380084598809,-0.0040068074612398105,0.002773892707350028,0.0024825144912965307,0.003666337612602929,0.0025426747291337716,-730.6342885940534,3771.051936947336,-33.91657232539874,674.8737946754745,3560.994766823875,-405.801253200037,Vision,Movement,1
0.252,0.020138007241622843,0.013480473071306648,76.52364033889039,73.6196319018405,-0.39211890836797814,0.0058018869873381175,0.0027046957103302634,0.002484841361805913,0.0036589977411007955,0.002598553404376511,-730.6303587770826,3771.047687361499,-33.91554394587632,674.8734713455366,3561.051042194338,-405.80539191862266,Vision,Movement,1
0.253,0.02013814144658389,0.013481701047805088,76.52364033889039,73.6196319018405,-0.3920977347197528,0.015637162059023508,0.0026412948914840565,0.0024862586143648354,0.0036475656944407165,0.002653944368311907,-730.6264289601119,3771.0434377756615,-33.914515566353906,674.8731480155985,3561.1073175648007,-405.80953063720835,Vision,Movement,1
0.254,0.020138285319042482,0.013482937353710537,76.52364033889039,73.6196319018405,-0.3920744777269675,0.025498989210081174,0.0025841024377720114,0.0024869903151707676,0.0036322603906650416,0.0027080428007676895,-730.6224991431411,3771.0391881898245,-33.91348718683149,674.8728246856606,3561.1635929352638,-405.81366935579405,Vision,Movement,1
0.255,0.020138439162580693,0.01348418076331766,76.52364033889039,73.6196319018405,-0.3920491276111942,0.03538733945870181,0.002533480368623422,0.0024872740326616375,0.0036133374550174073,0.002760074946389989,-730.6185693261704,3771.034938603987,-33.91245880730907,674.8725013557225,3561.219868305727,-405.81780807437974,Vision,Movement,1
0.256,0.020138603267974082,0.013485429059500934,76.52364033889039,73.6196319018405,-0.39202167460402343,0.04530218345309513,0.002489736482179877,0.002487355083749242,0.0035910844663329103,0.002809312494664984,-730.6146395091996,3771.03068901815,-33.91143042778665,674.8716702638292,3561.2938440647736,-405.8236896748945,Vision,Movement,1
0.257,0.02013877791079333,0.013486679559379383,76.52364033889039,73.6196319018405,-0.39199210894738484,0.0552434913429953,0.0024531206835539513,0.0024874805910727847,0.0035658156623298233,0.0028550864927401084,-730.6107096922289,3771.026439432313,-33.91040204826423,674.870669306034,3561.373741284535,-405.8301543364435,Vision,Movement,1
0.258,0.020138963348845542,0.013487929595752434,76.52364033889039,73.6196319018405,-0.3919604208936358,0.0652112328953952,0.0024238218554411962,0.0024878935652112885,0.003537866085409343,0.0028968004989707538,-730.6067798752581,3771.0221898464756,-33.909373668741814,674.8696683482386,3561.453638504296,-405.8366189979925,Vision,Movement,1
0.259,0.02013915981945213,0.013489176589826358,76.52364033889039,73.6196319018405,-0.391926600705884,0.07520537744418311,0.0024019654071201373,0.0024888272327175357,0.003507585237844705,0.002933942688915042,-730.6028500582873,3771.0179402606386,-33.9083452892194,674.8686673904434,3561.5335357240574,-405.8430836595415,Vision,Movement,1
0.26,0.02013936753655809,0.013490418014654244,76.52364033889039,73.6196319018405,-0.39189063865819196,0.08522589389814875,0.00238761161848646,0.0024904998109468745,0.003475330382774902,0.0029660966251582417,-730.5989202413166,3771.0136906748016,-33.90731690969698,674.8676664326481,3561.6134329438187,-405.8495483210905,Vision,Movement,1
0.261,0.02013958668766885,0.013491651374263383,76.52364033889039,73.6196319018405,-0.3918525250357799,0.09527275073459754,0.002380754871201483,0.00249310990043281,0.0034414596720605617,0.002992950374143726,-730.5949904243457,3771.009441088964,-33.906288530174564,674.8666654748528,3561.6933301635804,-405.85601298263947,Vision,Movement,1
0.262,0.02013981743061334,0.01349287398878523,76.52364033889039,73.6196319018405,-0.3918122501353782,0.10534591603062432,0.0023813238195370405,0.002496832644287956,0.0034063253099055717,0.0030143036139001467,-730.591060607375,3771.005191503127,-33.90526015065214,674.8656645170576,3561.7732273833417,-405.86247764418846,Vision,Movement,1
0.263,0.020140059890127265,0.01349408318531292,76.52364033889039,73.6196319018405,-0.3917698042652641,0.11544535741372834,0.0023891825098697,0.002501816787558644,0.003370266972893484,0.003030072361399154,-730.5871307904042,3771.00094191729,-33.90423177112972,674.8646635592622,3561.853124603103,-405.86894230573745,Vision,Movement,1
0.264,0.020140314154256902,0.013495276186742377,76.52364033889039,73.6196319018405,-0.39172517774562077,0.12557104209521291,0.0024041324246824427,0.002508182737333055,0.003333605688789145,0.003040291005197748,-730.5832009734335,3770.996692331453,-33.903203391607306,674.863662601467,3561.9330218228642,-405.87540696728644,Vision,Movement,1
0.265,0.020140580270580462,0.013496450076544214,76.52364033889039,73.6196319018405,-0.3916783609087339,0.1357229368552208,0.002425915409950323,0.0025160216664563916,0.0032966383375189114,0.003045111465787685,-730.5792711564627,3770.992442745616,-33.90217501208489,674.8626616436717,3562.0129190426255,-405.8818716288354,Vision,Movement,1
0.266,0.020140858242244437,0.01349760185159287,76.52364033889039,73.6196319018405,-0.3916293440992175,0.14590100807428807,0.002454217436609226,0.00252539562754783,0.0032596329041811004,0.003044799478967469,-730.575341339492,3770.988193159779,-33.90114663256247,674.8616606858764,3562.092816262387,-405.8883362903844,Vision,Movement,1
0.267,0.020141148023816665,0.013498728472962535,76.52364033889039,73.6196319018405,-0.39157811767420864,0.15610522168356872,0.002488673131280943,0.0025363385667975264,0.0032228246130349865,0.0030397281416526885,-730.5714115225212,3770.9839435739414,-33.900118253040056,674.8606597280811,3562.1727134821485,-405.8948009519334,Vision,Movement,1
0.268,0.020141449516954364,0.013499827052358531,76.52364033889039,73.6196319018405,-0.39152467200376023,0.16633554319914076,0.0025288709738013233,0.0025488580631849393,0.0031864130898612043,0.0030303689478594358,-730.5674817055504,3770.9796939881044,-33.89908987351764,674.8596587702858,3562.25261070191,-405.9012656134824,Vision,Movement,1
0.269,0.02014176256588723,0.013500894596690629,76.52364033889039,73.6196319018405,-0.3914689974708125,0.17659193771347684,0.0025743589998296753,0.0025629375786940106,0.003150560706431307,0.0030172805829112755,-730.5635518885797,3770.975444402267,-33.898061493995215,674.8586578124906,3562.332507921671,-405.9077302750314,Vision,Movement,1
0.27,0.02014208695271998,0.013501927893871916,76.52364033889039,73.6196319018405,-0.39141108447159306,0.1868743698950221,0.0026246507861401465,0.002578538997274557,0.0031153922261273675,0.0030010957542824855,-730.5596220716089,3770.97119481643,-33.8970331144728,674.8576568546953,3562.4124051414324,-405.9141949365804,Vision,Movement,1
0.271,0.020142422392553445,0.013502923450375565,76.52364033889039,73.6196319018405,-0.39135092341576216,0.19718280398185023,0.002679231474509538,0.0025956052608122507,0.0030809958032521805,0.002982506340387187,-730.5556922546382,3770.966945230593,-33.89600473495038,674.8566558969001,3562.4923023611937,-405.9206595981294,Vision,Movement,1
0.272,0.020142768528429618,0.013503877540015991,76.52364033889039,73.6196319018405,-0.3912885047268325,0.20751720381363206,0.0027375636295679513,0.0026140629665114433,0.003047425309615344,0.002962247160965409,-730.5517624376674,3770.9626956447555,-33.894976355427964,674.8560025251969,3562.5724965780223,-405.92789224525245,Vision,Movement,1
0.273,0.020143124926105236,0.013504786265101602,76.52364033889039,73.6196319018405,-0.39122381884209784,0.21787753278128064,0.0027990928277766653,0.0026338248474757193,0.0030147038830999682,0.002941078727902399,-730.5478326206967,3770.9584460589185,-33.89394797590555,674.8573556467976,3562.6544052553545,-405.9395582052904,Vision,Movement,1
0.274,0.02014349106865754,0.013505645044804273,76.52364033889039,73.6196319018405,-0.3911568562130648,0.22826375386178038,0.0028632530007244566,0.002654792099474622,0.0029828285182358165,0.0029197694099004734,-730.5399846393608,3770.948633307633,-33.893193233005675,674.8587087683983,3562.7363139326867,-405.9512241653283,Vision,Movement,1
0.275,0.02014386635093175,0.013506448756426424,76.52364033889039,73.6196319018405,-0.39108760730563025,0.23867582960900074,0.0029294716653390554,0.0026768565483641497,0.002951775462450427,0.0028990775118128516,-730.5276468763226,3770.932445785891,-33.89275204731947,674.860061889999,3562.818222610019,-405.96289012536624,Vision,Movement,1
0.276,0.02014425007383598,0.013507192111699894,76.52364033889039,73.6196319018405,-0.39101606260030936,0.24911372214737565,0.00299717522307261,0.0026999026767531966,0.0029215061488074897,0.002879733796208347,-730.5153091132843,3770.9162582641493,-33.892310861633256,674.8614150115997,3562.9001312873515,-405.9745560854042,Vision,Movement,1
0.277,0.02014464143849412,0.013507869596167885,76.52364033889039,73.6196319018405,-0.39094221259246004,0.2595773932042113,0.0030657944904223028,0.0027238095369113745,0.0028919733885377163,0.002862424942604451,-730.5029713502461,3770.9000707424075,-33.89186967594705,674.8627681332003,3562.9820399646837,-405.98622204544216,Vision,Movement,1
0.278,0.02014503954026755,0.013508475494218629,76.52364033889039,73.6196319018405,-0.3908660477924617,0.27006680405885714,0.0031347705484381524,0.002748452562711173,0.002863127558485844,0.002847778354435368,-730.4906335872078,3770.8838832206657,-33.89142849026084,674.864121254801,3563.063948642016,-405.9978880054801,Vision,Movement,1
0.279,0.020145443362658253,0.013509004173499602,76.52364033889039,73.6196319018405,-0.39078755872618237,0.28058191557796497,0.0032035609057317915,0.0027737052671089877,0.0028349225445558294,0.002836348614878812,-730.4782958241694,3770.867695698924,-33.89098730457464,674.8654743764017,3563.145857319348,-406.009553965518,Vision,Movement,1
0.28,0.02014585177110672,0.013509450187883822,76.52364033889039,73.6196319018405,-0.390706735934829,0.2911226882068496,0.003271645891139396,0.0027994407899570757,0.002807321244475322,0.002828605802153208,-730.4659580611312,3770.851508177182,-33.89054611888843,674.8668274980024,3563.2277659966803,-406.02121992555595,Vision,Movement,1
0.281,0.02014626350670131,0.013509808024912091,76.52364033889039,73.6196319018405,-0.39062356997542713,0.301689081969138,0.003338535125589337,0.0028255332494218294,0.0027803004785907537,0.0028249258274791033,-730.4536202980929,3770.8353206554402,-33.890104933202224,674.8681806196031,3563.3096746740125,-406.03288588559394,Vision,Movement,1
0.28200000000000003,0.020146677179816518,0.013510072058326866,76.52364033889039,73.6196319018405,-0.3905380514209289,0.31228105646047827,0.0034037738562038345,0.0028518588512510415,0.0027538551867637177,0.002825582949659082,-730.4412825350547,3770.8191331336984,-33.88966374751601,674.8695337412038,3563.3915833513447,-406.0445518456319,Vision,Movement,1
0.28300000000000003,0.0201470912636994,0.013510236310897511,76.52364033889039,73.6196319018405,-0.3904501708607081,0.3228985708812483,0.0034669488633815703,0.002878296720943705,0.002728001794476366,0.0028307446170760895,-730.4289447720164,3770.8029456119566,-33.889222561829804,674.8708868628045,3563.4734920286774,-406.0562178056698,Vision,Movement,1
0.28400000000000003,0.020147504088026753,0.01351029435627109,76.52364033889039,73.6196319018405,-0.3903599189003647,0.33354158398516687,0.0035276936173659172,0.002904729447845638,0.002702780635652481,0.002840468766227947,-730.4166070089782,3770.786758090215,-33.8887813761436,674.8722399844052,3563.5554007060096,-406.06788376570773,Vision,Movement,1
0.28500000000000003,0.02014791383245538,0.013510239619267297,76.52364033889039,73.6196319018405,-0.39026728616224043,0.34421005411443156,0.0035856923926640564,0.0029310433585724876,0.0026782573502520373,0.002854703662512075,-730.4042692459399,3770.770570568473,-33.88834019045739,674.8735931060058,3563.6373093833417,-406.07954972574566,Vision,Movement,1
0.28600000000000003,0.020148318520193498,0.013510065273823953,76.52364033889039,73.6196319018405,-0.39017226328557303,0.3549039391837986,0.0036406831390131565,0.00295712855264062,0.002654523235472842,0.0028732903066240323,-730.3919314829017,3770.754383046731,-33.887899004771185,674.8749462276065,3563.719218060674,-406.09121568578365,Vision,Movement,1
0.28700000000000003,0.02014871601161943,0.013509764236345418,76.52364033889039,73.6196319018405,-0.39007484092671796,0.36562319670760374,0.003692458998044944,0.0029828787098431005,0.002631694590608135,0.0028959673496409405,-730.3795937198634,3770.7381955249894,-33.88745781908498,674.8762993492072,3563.801126738006,-406.1028816458216,Vision,Movement,1
0.28800000000000003,0.020149103997980495,0.013509329042167744,76.52364033889039,73.6196319018405,-0.38997500975931115,0.37636778378730085,0.003740868413508203,0.003008190621270169,0.002609911131223509,0.002922378364233867,-730.3672559568251,3770.7220080032475,-33.887016633398765,674.8776524708079,3563.8830354153383,-406.1145476058595,Vision,Movement,1
0.289,0.02014947999520352,0.01350875204123248,76.52364033889039,73.6196319018405,-0.3898727604748067,0.3871376570626178,0.003785813812093657,0.0030329633457604932,0.002589333554445941,0.002952081215876796,-730.3549181937868,3770.7058204815057,-33.88657544771256,674.8802660490068,3563.9588382049856,-406.127944304691,Vision,Movement,1
0.29,0.020149841337855308,0.013508025325549707,76.52364033889039,73.6196319018405,-0.38976808378221095,0.3979327727909532,0.0038272488616687052,0.0030570969040875323,0.0025701403359018214,0.002984559178305632,-730.3425272313317,3770.689506870928,-33.8861134944372,674.8839277727617,3564.029563581374,-406.1427802170408,Vision,Movement,1
0.291,0.020150185173288707,0.013507140748975157,76.52364033889039,73.6196319018405,-0.3896609704086454,0.40875308680206673,0.0038651743663982974,0.003080490505711948,0.002552523846532472,0.003019233363831838,-730.3260445400015,3770.6634953847165,-33.88405424274719,674.8875894965166,3564.100288957763,-406.15761612939065,Vision,Movement,1
0.292,0.020150508456019085,0.013506089841037912,76.52364033889039,73.6196319018405,-0.38955141109948055,0.4195985545009779,0.003899632941354316,0.00310304042194911,0.0025366858875936673,0.003055476026417406,-730.3095618486713,3770.6374838985043,-33.88199499105719,674.8912512202716,3564.1710143341516,-406.1724520417404,Vision,Movement,1
0.293,0.02015080794237342,0.013504863717099583,76.52364033889039,73.6196319018405,-0.38943939661849253,0.43046913090132266,0.003930702701109014,0.0031246377182659775,0.002522832751543808,0.0030926243501598802,-730.293079157341,3770.611472412292,-33.879935739367184,674.8949129440265,3564.24173971054,-406.1872879540902,Vision,Movement,1
0.294,0.02015108018546021,0.013503452570561571,76.52364033889039,73.6196319018405,-0.38932491774843486,0.4413647705730553,0.003958490285933973,0.0031451661062472202,0.0025111699221118614,0.003129994431350334,-730.2765964660107,3770.5854609260805,-33.877876487677185,674.8985746677814,3564.3124650869286,-406.20212386644,Vision,Movement,1
0.295,0.02015132153051102,0.013501845192879256,76.52364033889039,73.6196319018405,-0.3892079652907147,0.4522854276790541,0.003983123625272974,0.0031645001689542375,0.0025018965243344673,0.003166895250295051,-730.2601137746805,3770.5594494398683,-33.87581723598718,674.9022363915362,3564.3831904633175,-406.21695977878977,Vision,Movement,1
0.296,0.02015152811064719,0.013500029386410936,76.52364033889039,73.6196319018405,-0.3890885300659942,0.4632310559656569,0.004004744877047246,0.003182504163866552,0.0024951996249504504,0.003202642468320816,-730.2436310833502,3770.533437953656,-33.87375798429718,674.9058981152912,3564.453915839706,-406.2317956911396,Vision,Movement,1
0.297,0.020151695843128474,0.01349799266125745,76.52364033889039,73.6196319018405,-0.38896660291432067,0.47420160875645767,0.004023503960787642,0.003199031536498622,0.0024912484717612,0.003236571877400135,-730.22714839202,3770.5074264674445,-33.87169873260717,674.9095598390461,3564.5246412160946,-406.2466316034894,Vision,Movement,1
0.298,0.020151820426144055,0.013495721510743077,76.52364033889039,73.6196319018405,-0.388842174695344,0.48519703898597905,0.004039553024974744,0.003213925203196581,0.00249018875691793,0.0032680523036272384,-730.2106657006897,3770.4814149812323,-33.86963948091717,674.913221562801,3564.595366592483,-406.2614675158392,Vision,Movement,1
0.299,0.020151897336209753,0.013493201450064067,76.52364033889039,73.6196319018405,-0.3887152362884635,0.4962172991469314,0.004053042090074899,0.003227018599571172,0.00249213699966402,0.0032964977545104955,-730.1941830093594,3770.4554034950206,-33.867580229227165,674.916883286556,3564.6660919688716,-406.27630342818895,Vision,Movement,1
0.3,0.020151921826238085,0.01349041752808635,76.52364033889039,73.6196319018405,-0.3885857785934423,0.507262341327228,0.004064116010923274,0.003238137447570803,0.0024971751778200854,0.0033213786091664346,-730.1777003180292,3770.4293920088085,-33.865520977537166,674.9205450103109,3564.7368173452605,-406.29113934053873,Vision,Movement,1
0.301,0.02015188892435222,0.013487353870982113,76.52364033889039,73.6196319018405,-0.3884537925300122,0.5183321172011498,0.004072912798136217,0.0032471021742601336,0.002505345792038516,0.0033422316606380913,-730.161217626699,3770.4033805225963,-33.86346172584716,674.9242067340658,3564.807542721649,-406.3059752528886,Vision,Movement,1
0.302,0.020151793433517272,0.013483993902033429,76.52364033889039,73.6196319018405,-0.38831926903852226,0.5294265780291252,0.004079563209413109,0.0032537309184273765,0.0025166475937341637,0.0033586688310472926,-730.1447349353687,3770.3773690363846,-33.86140247415716,674.9278684578208,3564.8782680980376,-406.32081116523835,Vision,Movement,1
0.303,0.02015162993206636,0.01348032119738743,76.52364033889039,73.6196319018405,-0.38818219908004625,0.5405456746515664,0.004084191375474234,0.0032578430748753727,0.0025310322129472075,0.003370384406974671,-730.1282522440384,3770.3513575501725,-33.85934322246715,674.9315301815757,3564.948993474426,-406.33564707758813,Vision,Movement,1
0.304,0.020151392775203787,0.013476319497843364,76.52364033889039,73.6196319018405,-0.3880425736365225,0.5516893575229113,0.004086916100894996,0.0032592633260646996,0.002548401882882328,0.0033771606931436433,-730.1117695527082,3770.3253460639603,-33.857283970777154,674.9351919053306,3565.019718850815,-406.3504829899379,Vision,Movement,1
0.305,0.020151076097567108,0.013471972737852077,76.52364033889039,73.6196319018405,-0.38790038371140295,0.5628575766583612,0.004087852427322707,0.0032578260849008937,0.002568608402044345,0.003378872040507745,-730.095286861378,3770.2993345777486,-33.85522471908715,674.9388536290854,3565.0904442272035,-406.3653189022877,Vision,Movement,1
0.306,0.020150673816939337,0.013467265096310814,76.52364033889039,73.6196319018405,-0.3877556203291977,0.5740502816713823,0.004087113084980803,0.003253380230167271,0.0025914534290544127,0.003375487248329935,-730.0788041700478,3770.2733230915364,-33.85316546739715,674.9468337209913,3565.159443603854,-406.3799036057344,Vision,Movement,1
0.307,0.02015017963920005,0.013462180450145167,76.52364033889039,73.6196319018405,-0.38760827453616353,0.5852674217641002,0.004084809557328201,0.0032457939729725275,0.0026166901614459574,0.0033670703565971175,-730.0610594819088,3770.2438852961773,-33.84910066767916,674.9550684732848,3565.2283411958147,-406.3944734950303,Vision,Movement,1
0.308,0.02014958706461146,0.013456702016615842,76.52364033889039,73.6196319018405,-0.3874583374004095,0.5965089457211721,0.004081052582108875,0.003234959647199133,0.0026440263890258275,0.0033537798338281848,-730.0423218651683,3770.211751709254,-33.84345791943913,674.9633032255782,3565.2972387877753,-406.40904338432625,Vision,Movement,1
0.309,0.020148889395537495,0.01345081285617164,76.52364033889039,73.6196319018405,-0.3873058000121096,0.6077748019441286,0.004075951968699291,0.0032207981635297496,0.002673128836679758,0.003335866133667073,-730.0235842484278,3770.179618122331,-33.837815171199104,674.9715379778718,3565.366136379736,-406.4236132736222,Vision,Movement,1
0.31,0.020148079745696573,0.013444496491705413,76.52364033889039,73.6196319018405,-0.38715065348363203,0.6190649383976874,0.004069615639080316,0.0032032628298101756,0.0027036286469422945,0.0033136675645047096,-730.0048466316872,3770.1474845354073,-33.832172422959076,674.9797727301652,3565.4350339716966,-406.43818316291816,Vision,Movement,1
0.311,0.02014715105105306,0.013437737170540946,76.52364033889039,73.6196319018405,-0.38699288895023304,0.6303793026476509,0.004062147842582761,0.003182342268681951,0.0027351278143206256,0.0032876044099625777,-729.9861090149467,3770.1153509484843,-33.82652967471905,674.9880074824587,3565.5039315636573,-406.4527530522141,Vision,Movement,1
0.312,0.020146096082454094,0.013430519964897544,76.52364033889039,73.6196319018405,-0.3868324975695262,0.6417178418519748,0.0040536465807860435,0.003158062273053183,0.002767206355323289,0.0032581712655277376,-729.9673713982062,3770.083217361561,-33.82088692647902,674.9962422347521,3565.572829155618,-406.4673229415101,Vision,Movement,1
0.313,0.020144907460122798,0.013422830675101362,76.52364033889039,73.6196319018405,-0.38666947052222117,0.6530805027606142,0.0040442004000355945,0.003130486590300164,0.002799429971078307,0.0032259276210888452,-729.9486337814657,3770.051083774638,-33.81524417823899,675.0044769870456,3565.641726747578,-406.481892830806,Vision,Movement,1
0.314,0.020143577670119202,0.01341465533852634,76.52364033889039,73.6196319018405,-0.38650379901220316,0.6644672317094386,0.0040338848348118825,0.003099716752288305,0.0028313579389737174,0.003191486820286963,-729.9298961647252,3770.0189501877144,-33.80960142999896,675.012711739339,3565.7106243395388,-406.49646272010193,Vision,Movement,1
0.315,0.020142099082885098,0.013405979755747695,76.52364033889039,73.6196319018405,-0.386335474266654,0.675877974654926,0.004022758880797703,0.0030658911348624357,0.0028625509687072665,0.0031555036448360214,-729.9111585479845,3769.9868166007914,-33.803958681758935,675.0209464916325,3565.7795219314994,-406.5110326093979,Vision,Movement,1
0.316,0.020140463973988745,0.013396789468808915,76.52364033889039,73.6196319018405,-0.38616448753678234,0.6873126771199783,0.004010861908006297,0.0030291834313130547,0.0028925787745715877,0.00311866087259021,-729.892420931244,3769.954683013868,-33.79831593351891,675.029181243926,3565.84841952346,-406.52560249869384,Vision,Movement,1
0.317,0.02013866454718948,0.013387069866233923,76.52364033889039,73.6196319018405,-0.3859908300972303,0.6987712842315333,0.003998211385863467,0.002989800677048624,0.0029210271420370966,0.0030816552160613424,-729.8736833145035,3769.922549426945,-33.79267318527888,675.0374159962195,3565.9173171154207,-406.5401723879898,Vision,Movement,1
0.318,0.020136692959941627,0.013376806320798539,76.52364033889039,73.6196319018405,-0.385814493246853,0.7102537407041358,0.003984801717414357,0.002947980905093835,0.0029475042932115857,0.0030451830681009354,-729.854945697763,3769.8904158400214,-33.78703043703885,675.0456507485129,3565.9862147073814,-406.5547422772857,Vision,Movement,1
0.319,0.02013454135145935,0.013365984340399685,76.52364033889039,73.6196319018405,-0.38563546830879747,0.721759990868935,0.0039706044012508745,0.0029039904752431885,0.002971646390735988,0.0030099264809887293,-729.8362080810225,3769.8582822530984,-33.78138768879882,675.0538855008064,3566.055112299342,-406.56931216658165,Vision,Movement,1
0.32,0.020132201873464886,0.013354589729301529,76.52364033889039,73.6196319018405,-0.38545374663071125,0.7332899786601929,0.003955569655016984,0.0028581211112479895,0.0029931220734525665,0.002976539805122755,-729.817470464282,3769.826148666175,-33.775744940558795,675.0621202530998,3566.1240098913026,-406.5838820558776,Vision,Movement,1
0.321,0.020129666723742543,0.013342608764720765,76.52364033889039,73.6196319018405,-0.38526931958485267,0.7448436475643305,0.003939629521208237,0.0028106866727413116,0.003011635995917965,0.002945637402938485,-729.7987328475414,3769.794015079252,-33.77010219231877,675.0703550053933,3566.1929074832633,-406.59845194517357,Vision,Movement,1
0.322,0.020126928182620088,0.013330028421900085,76.52364033889039,73.6196319018405,-0.38508217856886634,0.7564209407043379,0.00392270233831143,0.002762019669572858,0.003026931430348528,0.002917782806898698,-729.7799952308009,3769.7618814923285,-33.76445944407874,675.080347560373,3566.2670801350414,-406.61238466552174,Vision,Movement,1
0.323,0.020123978652500124,0.01331683678203329,76.52364033889039,73.6196319018405,-0.38489231500511256,0.768021800791827,0.003904698331168802,0.002712467514361729,0.0030387920565400207,0.0028934796005855522,-729.761020812464,3769.729518844738,-33.75856258034112,675.0937124493921,3566.3513729578276,-406.6250949810185,Vision,Movement,1
0.324,0.020120810700560408,0.013303023951543697,76.52364033889039,73.6196319018405,-0.38469972034149824,0.7796461701307476,0.0038855259868199057,0.002662388529775045,0.0030470430986368367,0.002873164191149745,-729.7400594943659,3769.695234248171,-33.75053354338665,675.1070773384113,3566.435665780614,-406.63780529651524,Vision,Movement,1
0.325,0.020117417104742838,0.013288582226281228,76.52364033889039,73.6196319018405,-0.3845043860515266,0.7912939906526455,0.0038650988437447095,0.0026121477657481567,0.003051551964701751,0.002857200550633595,-729.719098176268,3769.6609496516035,-33.74250450643219,675.1204422274304,3566.5199586034,-406.65051561201204,Vision,Movement,1
0.326,0.020113790903145082,0.013273506339549043,76.52364033889039,73.6196319018405,-0.3843063036344001,0.8029652038616744,0.003843342329964557,0.0025621127146869724,0.0030522285171309263,0.0028458769422310256,-729.69813685817,3769.6266650550365,-33.73447546947773,675.1338071164496,3566.604251426186,-406.6632259275088,Vision,Movement,1
0.327,0.020109925446929095,0.013257793784511186,76.52364033889039,73.6196319018405,-0.38410546461583356,0.8146597508737252,0.00382020032515682,0.002512649024154627,0.0030490250606279323,0.0028394045951890207,-729.6771755400719,3769.5923804584695,-33.72644643252326,675.1471720054687,3566.688544248972,-406.67593624300554,Vision,Movement,1
0.328,0.020105814456853267,0.013241444743022284,76.52364033889039,73.6196319018405,-0.38390186054731823,0.8263775724065655,0.0037956411643148926,0.002464116302376148,0.003041936093245437,0.002837918223161428,-729.6562142219739,3769.558095861902,-33.7184173955688,675.1605368944879,3566.772837071758,-406.6886465585023,Vision,Movement,1
0.329,0.02010145208353343,0.013224462635409839,76.52364033889039,73.6196319018405,-0.3836954830069958,0.8381186087738749,0.0037696628110133953,0.002416864095086669,0.003030997839370674,0.002841478190725693,-729.6352529038759,3769.523811265335,-33.71038835861434,675.1739017835071,3566.8571298945444,-406.7013568739991,Vision,Movement,1
0.33,0.02009683297152829,0.01320685391294256,76.52364033889039,73.6196319018405,-0.383486323599709,0.849882799920776,0.003742296903959428,0.0023712280731144906,0.003016287580157626,0.002850074050680861,-729.6142915857778,3769.489526668768,-33.70235932165987,675.1872666725262,3566.9414227173306,-406.71406718949584,Vision,Movement,1
0.331,0.020091952327342403,0.013188628139137314,76.52364033889039,73.6196319018405,-0.38327437395720415,0.861670085368457,0.0037136113752101498,0.0023275264244333907,0.002997922817210378,0.002863629132589971,-729.5933302676798,3769.4552420722007,-33.69433028470541,675.2006315615454,3567.025715540117,-406.7267775049926,Vision,Movement,1
0.332,0.02008680599143001,0.013169798699423958,76.52364033889039,73.6196319018405,-0.38305962573822444,0.8734804042536729,0.003683711414033559,0.002286056416199472,0.002976060331716682,0.0028820058648466817,-729.5723689495818,3769.4209574756337,-33.68630124775095,675.2139964505645,3567.1100083629026,-406.73948782048933,Vision,Movement,1
0.333,0.02008139051427697,0.013150382672960424,76.52364033889039,73.6196319018405,-0.3828420706293671,0.8853136953196445,0.0036527387215559326,0.0022470911021717143,0.0029508952066848856,0.0029050115291541336,-729.5514076314837,3769.3866728790667,-33.678272210796486,675.2273613395837,3567.194301185689,-406.7521981359861,Vision,Movement,1
0.334,0.020075703236652122,0.01313040077436271,76.52364033889039,73.6196319018405,-0.38262170034426907,0.8971698969160214,0.00362086921232999,0.002210876188455915,0.0029226598474638003,0.002932404152655994,-729.5304463133857,3769.3523882824993,-33.67024317384202,675.2407262286029,3567.278594008475,-406.7649084514829,Vision,Movement,1
0.335,0.020069742374216024,0.013109877563552029,76.52364033889039,73.6196319018405,-0.38239850662451674,0.9090489469929703,0.0035883094897440483,0.0021776271107690967,0.002891622975440616,0.0029638982453683753,-729.5094849952877,3769.3181036859323,-33.662214136887556,675.254091117622,3567.362886831261,-406.77761876697963,Vision,Movement,1
0.336,0.02006350710717599,0.013088841753684475,76.52364033889039,73.6196319018405,-0.38217248123955233,0.9209507831370216,0.0035552924986830027,0.0021475263961618298,0.002858088500629113,0.0029991701204998794,-729.4885236771897,3769.2838190893654,-33.654185099933095,675.2674560066412,3567.4471796540474,-406.7903290824764,Vision,Movement,1
0.337,0.0200569976793973,0.013067326670372165,76.52364033889039,73.6196319018405,-0.3819436159875619,0.932875342515238,0.003522072744658615,0.002120721384596255,0.002822394121960911,0.0030378626138430702,-729.4675623590916,3769.249534492798,-33.646156062978626,675.2808208956603,3567.5314724768336,-406.8030393979731,Vision,Movement,1
0.338,0.020050215530688597,0.013045370923559754,76.52364033889039,73.6196319018405,-0.38171190269460736,0.9448225619151523,0.003488921394160152,0.002097322374682484,0.002784909483374296,0.0030795891310802606,-729.4466010409936,3769.215249896231,-33.638127026024165,675.2941857846795,3567.6157652996194,-406.81574971346987,Vision,Movement,1
0.339,0.02004316357261823,0.013023018442944097,76.52364033889039,73.6196319018405,-0.3814773332155872,0.9567923777347809,0.0034561214775096576,0.002077401241104991,0.0027460337500507964,0.003123937049559951,-729.4256397228957,3769.1809652996635,-33.630097989069704,675.3039709204309,3567.7063605328653,-406.8267571108729,Vision,Movement,1
0.34,0.020035846996356764,0.013000318641295902,76.52364033889039,73.6196319018405,-0.38123989943426134,0.968784725976754,0.003423963324930988,0.0020609905471248463,0.0027061925419034462,0.0031704705639535335,-729.4029310047894,3769.145405053266,-33.6225074352454,675.3125046534188,3567.7991589497597,-406.8371692056812,Vision,Movement,1
0.341,0.020028273502376116,0.012977326844797321,76.52364033889039,73.6196319018405,-0.38099959326346555,0.9807995422844192,0.0033927402905374595,0.0020480831515733034,0.002665834231041005,0.003218733115411687,-729.3792950293856,3769.1091678836638,-33.615149562364415,675.3210383864068,3567.891957366654,-406.8475813004896,Vision,Movement,1
0.342,0.020020453514713026,0.01295410495330669,76.52364033889039,73.6196319018405,-0.38075640664530835,0.9928367618856413,0.0033627447528461973,0.0020386322991585966,0.0026254256544327313,0.0032682496088566083,-729.355659053982,3769.072930714061,-33.60779168948343,675.3295721193948,3567.9847557835483,-406.85799339529797,Vision,Movement,1
0.343,0.02001239987854138,0.012930722401726222,76.52364033889039,73.6196319018405,-0.38051033155124514,1.0048963196330978,0.003334264324092627,0.002032552200941616,0.002585447319508884,0.003318528689892028,-729.3320230785782,3769.036693544458,-33.60043381660243,675.3381058523828,3568.0775542004426,-406.86840549010634,Vision,Movement,1
0.34400000000000003,0.02000412805646273,0.012907256930652073,76.52364033889039,73.6196319018405,-0.38026135998301996,1.0169781499950972,0.003307578165214405,0.0020297191487697237,0.0025463882024699897,0.0033690653754981192,-729.3083871031746,3769.0004563748557,-33.593075943721445,675.3466395853708,3568.170352617337,-406.8788175849147,Vision,Movement,1
0.34500000000000003,0.019995656780559472,0.012883795011682044,76.52364033889039,73.6196319018405,-0.3800094839717034,1.0290821870555988,0.0032829533090243355,0.0020299732336636197,0.0025087402479257535,0.003419344297425069,-729.2847511277708,3768.964219205253,-33.58571807084046,675.3551733183588,3568.263151034231,-406.8892296797231,Vision,Movement,1
0.34600000000000003,0.019987008166037157,0.012860432153029537,76.52364033889039,73.6196319018405,-0.37975469557869773,1.0412083645084025,0.0032606409499315978,0.002033120733840885,0.002472992673908685,0.0034688437376830927,-729.2611151523672,3768.9279820356505,-33.57836019795947,675.3637070513468,3568.355949451126,-406.89964177453146,Vision,Movement,1
0.34700000000000003,0.019978207211657092,0.01283727315125488,76.52364033889039,73.6196319018405,-0.37949698689559797,1.0533566156935463,0.0032408727325987513,0.00203893720347662,0.002439626172874315,0.003517040538723262,-729.2374791769635,3768.8917448660477,-33.571002325078474,675.3722407843347,3568.4487478680203,-406.9100538693398,Vision,Movement,1
0.34800000000000003,0.019969281452208637,0.01281443240690654,76.52364033889039,73.6196319018405,-0.3792363500451834,1.0655268735406775,0.003223857111237934,0.002047171237806176,0.0024091070887419267,0.003563415868373254,-729.2138432015598,3768.855507696445,-33.56364445219749,675.3807745173227,3568.5415462849146,-406.92046596414815,Vision,Movement,1
0.34900000000000003,0.01996026126165855,0.01279203420733949,76.52364033889039,73.6196319018405,-0.3789727771805287,1.0777190706088833,0.0032097758194076552,0.0020575488247779193,0.002381881653038234,0.0036074617202969477,-729.1902072261562,3768.8192705268425,-33.5562865793165,675.3893082503107,3568.634344701809,-406.9308780589565,Vision,Movement,1
0.35000000000000003,0.01995118076807428,0.012770213346254045,76.52364033889039,73.6196319018405,-0.3787062604851386,1.0899331390698699,0.0031987804143162905,0.002069778133590217,0.0023583703846595423,0.0036486879390409377,-729.1665712507524,3768.7830333572397,-33.54892870643551,675.3978419832986,3568.727143118703,-406.9412901537649,Vision,Movement,1
