Time,Filtered_ECG
6448.942881029413,0.0020749577924957406
6448.9438808013365,0.0022304044505170924
6448.944880573259,0.002385409985972439
6448.945880345182,0.00253994666758294
6448.946880117104,0.0026939868605983302
6448.947879889027,0.002847503037377142
6448.94887966095,0.0030004677879371605
6448.949879432873,0.0031528538304668647
6448.950879204796,0.003304634021788332
6448.951878976718,0.003455781367761824
6448.952878748641,0.0036062690336220848
6448.953878520563,0.0037560703542362786
6448.954878292487,0.0039051588442735306
6448.955878064409,0.004053508208276213
6448.956877836332,0.004201092350623455
6448.957877608254,0.004347885385377868
6448.958877380177,0.0044938616460070465
6448.9598771521005,0.004638995694972035
6448.960876924023,0.004783262333175579
6448.961876695946,0.004926636609263597
6448.962876467868,0.005069093828773869
6448.963876239791,0.005210609563126548
6448.964876011714,0.0053511596584515835
6448.965875783637,0.005490720244248722
6448.966875555559,0.005629267741876168
6448.967875327482,0.0057667788728645005
6448.968875099405,0.005903230667052821
6448.969874871327,0.006038600470544454
6448.970874643251,0.006172865953479828
6448.971874415173,0.006306005117624327
6448.972874187096,0.006437996303769004
6448.973873959018,0.0065688181989420015
6448.974873730941,0.006698449843428367
6448.9758735028645,0.006826870637595729
6448.976873274787,0.006954060348523005
6448.97787304671,0.007079999116429046
6448.978872818632,0.007204667460897901
6448.979872590555,0.007328046286897161
6448.980872362478,0.007450116890585773
6448.981872134401,0.007570860964907791
6448.982871906323,0.007690260604968652
6448.983871678246,0.007808298313190876
6448.984871450169,0.007924957004246384
6448.985871222092,0.00804022000976302
6448.986870994015,0.008154071082803164
6448.987870765937,0.008266494402112644
6448.98887053786,0.008377474576138336
6448.989870309782,0.008486996646813048
6448.990870081705,0.00859504609310641
6448.9918698536285,0.00870160883434063
6448.992869625551,0.008806671233270164
6448.993869397474,0.008910220098924539
6448.994869169396,0.009012242689213778
6448.995868941319,0.00911272671329614
6448.996868713242,0.009211660333708042
6448.997868485165,0.00930903216825633
6448.998868257087,0.00940483129167329
6448.99986802901,0.009499047237035022
6449.000867800933,0.009591669996944174
6449.001867572856,0.009682690024478266
6449.002867344779,0.009772098233905192
6449.003867116701,0.00985988600116782
6449.004866888624,0.009946045164139883
6449.005866660546,0.010030568022655695
6449.006866432469,0.010113447338316496
6449.0078662043925,0.010194676334076511
6449.008865976315,0.010274248693611992
6449.009865748238,0.010352158560476669
6449.01086552016,0.01042840053704713
6449.011865292083,0.010502969683261771
6449.012865064006,0.010575861515156935
6449.013864835929,0.010647072003203983
6449.014864607851,0.010716597570450992
6449.015864379774,0.010784435090472838
6449.016864151697,0.010850581885133414
6449.01786392362,0.010915035722163739
6449.018863695543,0.010977794812559744
6449.019863467465,0.011038857807803497
6449.020863239388,0.011098223796911617
6449.02186301131,0.01115589230331475
6449.022862783233,0.011211863281571876
6449.0238625551565,0.011266137113923365
6449.024862327079,0.011318714606686778
6449.025862099002,0.011369596986499416
6449.026861870924,0.01141878589641172
6449.027861642847,0.011466283391835681
6449.02886141477,0.011512091936352437
6449.029861186693,0.011556214397383273
6449.030860958615,0.011598654041728348
6449.031860730538,0.011639414530977573
6449.032860502461,0.011678499916798223
6449.033860274384,0.011715914636104
6449.034860046307,0.01175166350611045
6449.035859818229,0.01178575171928158
6449.036859590152,0.011818184838172666
6449.037859362074,0.011848968790174162
6449.038859133997,0.011878109862161552
6449.0398589059205,0.011905614695055881
6449.040858677843,0.011931490278299465
6449.041858449766,0.011955743944251125
6449.042858221688,0.011978383362505073
6449.043857993611,0.011999416534137374
6449.044857765534,0.012018851785883813
6449.045857537457,0.012036697764252952
6449.046857309379,0.012052963429578192
6449.047857081302,0.012067658050012833
6449.048856853225,0.0120807911954721
6449.049856625148,0.012092372731526399
6449.050856397071,0.012102412813250038
6449.051856168993,0.012110921879029849
6449.052855940916,0.012117910644337992
6449.053855712838,0.01212339009547339
6449.054855484761,0.01212737148327612
6449.0558552566845,0.012129866316818979
6449.056855028607,0.012130886357080458
6449.05785480053,0.012130443610603094
6449.058854572452,0.01212855032314106
6449.059854344375,0.012125218973300638
6449.060854116298,0.01212046226617703
6449.061853888221,0.012114293126990727
6449.062853660143,0.012106724694726434
6449.063853432066,0.0120977703157774
6449.064853203989,0.012087443537597857
6449.065852975912,0.012075758102366147
6449.066852747835,0.01206272794066103
6449.067852519757,0.012048367165153574
6449.06885229168,0.012032690064316912
6449.069852063602,0.012015711096156139
6449.070851835526,0.011997444881960499
6449.0718516074485,0.011977906200079989
6449.072851379371,0.011957109979728606
6449.073851151294,0.011935071294816349
6449.074850923216,0.011911805357812154
6449.075850695139,0.011887327513639747
6449.076850467062,0.011861653233608308
6449.077850238985,0.011834798109379634
6449.078850010907,0.011806777846973315
6449.07984978283,0.011777608260811322
6449.080849554753,0.011747305267803128
6449.081849326676,0.011715884881472327
6449.082849098599,0.011683363206125506
6449.083848870521,0.01164975643106401
6449.084848642444,0.011615080824839013
6449.085848414366,0.011579352729550322
6449.08684818629,0.011542588555189307
6449.0878479582125,0.011504804774026363
6449.088847730135,0.011466017915043373
6449.089847502058,0.011426244558411772
6449.09084727398,0.01138550133001686
6449.091847045903,0.011343804896029094
6449.092846817826,0.01130117195752304
6449.093846589749,0.011257619245144571
6449.094846361671,0.011213163513826632
6449.095846133594,0.011167821537553652
6449.096845905517,0.011121610104174241
6449.09784567744,0.011074546010261536
6449.098845449363,0.011026646056020233
6449.099845221285,0.010977927040239142
6449.100844993208,0.010928405755287982
6449.10184476513,0.010878098982157188
6449.102844537054,0.010827023485539562
6449.1038443089765,0.01077519600895283
6449.104844080899,0.010722633269902481
6449.105843852822,0.010669351955084476
6449.106843624744,0.010615368715627897
6449.107843396667,0.010560700162377914
6449.10884316859,0.010505362861219796
6449.109842940513,0.010449373328445151
6449.110842712435,0.010392748026161785
6449.111842484358,0.010335503357749005
6449.112842256281,0.010277655663360401
6449.113842028204,0.010219221215476328
6449.114841800127,0.01016021621450852
6449.115841572049,0.010100656784459408
6449.116841343972,0.0100405589686388
6449.117841115894,0.009979938725440684
6449.118840887818,0.009918811924183027
6449.1198406597405,0.00985719434101341
6449.120840431663,0.00979510165488345
6449.121840203586,0.009732549443594855
6449.122839975508,0.00966955317991996
6449.123839747432,0.009606128227799436
6449.124839519354,0.009542289838619728
6449.125839291277,0.009478053147572593
6449.126839063199,0.009413433170098913
6449.127838835122,0.0093484447984187
6449.128838607045,0.009283102798149034
6449.129838378968,0.009217421805011446
6449.130838150891,0.009151416321630114
6449.131837922813,0.009085100714421987
6449.132837694736,0.009018489210579808
6449.133837466658,0.00895159589514873
6449.134837238582,0.008884434708196939
6449.1358370105045,0.00881701944208036
6449.136836782427,0.008749363738801095
6449.13783655435,0.008681481087458809
6449.138836326272,0.008613384821793846
6449.139836098196,0.00854508811782029
6449.140835870118,0.008476603991546738
6449.141835642041,0.008407945296782187
6449.142835413963,0.008339124723024107
6449.143835185886,0.008270154793425626
6449.144834957809,0.008201047862838718
6449.145834729732,0.008131816115930428
6449.146834501655,0.008062471565369343
6449.147834273577,0.0079930260500798
6449.1488340455,0.007923491233561633
6449.149833817422,0.007853878602273639
6449.150833589346,0.007784199464079295
6449.1518333612685,0.007714464946753605
6449.152833133191,0.007644685996550252
6449.153832905114,0.007574873376828534
6449.154832677036,0.007505037666739766
6449.15583244896,0.007435189259973016
6449.156832220882,0.0073653383635601324
6449.157831992805,0.007295494996740069
6449.158831764727,0.007225668989882547
6449.15983153665,0.007155869983471137
6449.160831308573,0.007086107427145922
6449.161831080496,0.00701639057880596
6449.162830852419,0.006946728503771872
6449.163830624341,0.006877130074009023
6449.164830396264,0.006807603967411719
6449.165830168186,0.006738158667148915
6449.16682994011,0.006668802461071848
6449.1678297120325,0.006599543441183849
6449.168829483955,0.00653038950317248
6449.169829255878,0.006461348346003944
6449.1708290278,0.00639242747157958
6449.171828799724,0.006323634184454192
6449.172828571646,0.006254975591615887
6449.173828343569,0.00618645860232712
6449.174828115491,0.006118089928026672
6449.175827887414,0.006049876082292295
6449.176827659337,0.005981823380863867
6449.17782743126,0.0059139379417269934
6449.178827203183,0.005846225685257197
6449.179826975105,0.005778692334424993
6449.180826747028,0.005711343415062409
6449.18182651895,0.0056441842561917276
6449.182826290874,0.00557721999041744
6449.1838260627965,0.00551045555438256
6449.184825834719,0.00544389568929053
6449.185825606642,0.005377544941493978
6449.186825378564,0.005311407663151446
6449.187825150488,0.005245488012953071
6449.18882492241,0.005179789956915912
6449.189824694333,0.00511431726924933
6449.190824466255,0.00504907353329053
6449.191824238178,0.004984062142510003
6449.192824010101,0.004919286301586338
6449.193823782024,0.004854749027549561
6449.194823553947,0.004790453150991814
6449.195823325869,0.004726401317343889
6449.196823097792,0.004662595988215841
6449.197822869714,0.004599039442799709
6449.198822641638,0.004535733779332284
6449.1998224135605,0.004472680916615888
6449.200822185483,0.004409882595595284
6449.201821957406,0.004347340380989053
6449.202821729328,0.004285055662974083
6449.203821501252,0.004223029658922128
6449.204821273174,0.004161263415187678
6449.205821045097,0.004099757808946687
6449.206820817019,0.004038513550085972
6449.207820588942,0.003977531183143263
6449.2088203608655,0.003916811089298077
6449.209820132788,0.0038563534884136367
6449.210819904711,0.003796158441130077
6449.211819676633,0.003736225851009093
6449.212819448556,0.0036765554667301213
6449.213819220478,0.003617146884338015
6449.214818992402,0.0035579995495421063
6449.2158187643245,0.0034991127600664646
6449.216818536247,0.0034404856680511427
6449.21781830817,0.0033821172825041594
6449.218818080092,0.0033240064718039275
6449.219817852016,0.003266151966251813
6449.220817623938,0.0032085523606744156
6449.221817395861,0.0031512061170750664
6449.222817167783,0.0030941115673339716
6449.223816939706,0.0030372669159563605
6449.2248167116295,0.002980670242867988
6449.225816483552,0.0029243195062573614
6449.226816255475,0.0028682125454641454
6449.227816027397,0.0028123470839132724
6449.22881579932,0.0027567207320944058
6449.229815571242,0.002701330990586529
6449.230815343166,0.0026461752531275608
6449.2318151150885,0.0025912508097290197
6449.232814887011,0.0025365548498358587
6449.233814658934,0.0024820844655316482
6449.234814430856,0.0024278366547893326
6449.23581420278,0.0023738083247677668
6449.236813974702,0.0023199962951542257
6449.237813746625,0.002266397301553
6449.238813518547,0.002213007998920088
6449.23981329047,0.00215982496504388
6449.2408130623935,0.0021068447040715936
6449.241812834316,0.002054063650081124
6449.242812606239,0.0020014781706978613
6449.243812378161,0.0019490845707559096
6449.244812150084,0.0018968790960030262
6449.245811922006,0.001844857936848448
6449.24681169393,0.0017930172321525884
6449.2478114658525,0.0017413530730574103
6449.248811237775,0.001689861506856061
6449.249811009698,0.001638538540900136
6449.25081078162,0.0015873801465427116
6449.251810553544,0.0015363822631150464
6449.252810325466,0.0014855408019346513
6449.253810097389,0.0014348516503422458
6449.254809869311,0.0013843106757649873
6449.255809641234,0.0013339137298032403
6449.2568094131575,0.0012836566523380599
6449.25780918508,0.0012335352756564669
6449.258808957003,0.001183545428591508
6449.259808728925,0.0011336829406740016
6449.260808500848,0.0010839436462927665
6449.261808272771,0.0010343233888600427
6449.262808044694,0.0009848180249787128
6449.2638078166165,0.0009354234286078546
6449.264807588539,0.000886135495223082
6449.265807360462,0.0008369501459680733
6449.266807132384,0.0007878633317936568
6449.267806904308,0.0007388710375808641
6449.26880667623,0.0006899692862444782
6449.269806448153,0.0006411541428137821
6449.270806220075,0.0005924217184874223
6449.271805991998,0.0005437681746595128
6449.2728057639215,0.0004951897269142838
6449.273805535844,0.0004466826489867401
6449.274805307767,0.0003982432766869152
6449.275805079689,0.0003498680117854
6449.276804851612,0.0003015533258578834
6449.277804623534,0.00025329576408647395
6449.278804395458,0.00020509194901559722
6449.2798041673805,0.0001569385842603112
6449.280803939303,0.00010883245816497485
6449.281803711226,6.0770447410352e-05
6449.282803483148,1.2749520567413787e-05
6449.283803255072,-3.523325840370853e-05
6449.284803026994,-8.318072671100133e-05
6449.285802798917,-0.0001310956193453317
6449.286802570839,-0.00017898056575387352
6449.287802342762,-0.0002268380865733394
6449.2888021146855,-0.0002746705904241573
6449.289801886608,-0.0003224803707667373
6449.290801658531,-0.00037026960282098595
6449.291801430453,-0.00041804034055023894
6449.292801202376,-0.00046579451371080177
6449.293800974299,-0.0005135339249683252
6449.294800746222,-0.0005612602470823126
6449.2958005181445,-0.0006089750201601838
6449.296800290067,-0.0006566796489825343
6449.29780006199,-0.0007043754004015383
6449.298799833912,-0.000752063400814848
6449.299799605836,-0.0007997446337178148
6449.300799377758,-0.0008474199373373749
6449.301799149681,-0.0008950900023514418
6449.302798921603,-0.0009427553696980902
6449.303798693526,-0.0009904164284791415
6449.3047984654495,-0.0010380734139629722
6449.305798237372,-0.001085726405691444
6449.306798009295,-0.0011333753256958425
6449.307797781217,-0.001181019936826602
6449.30879755314,-0.0012286598412014147
6449.309797325063,-0.0012762944787760963
6449.310797096986,-0.0013239231260423036
6449.3117968689085,-0.0013715448948559313
6449.312796640831,-0.0014191587313997366
6449.313796412754,-0.0014667634152834951
6449.314796184676,-0.0015143575587847377
6449.3157959566,-0.0015619396062328532
6449.316795728522,-0.0016095078335390588
6449.317795500445,-0.0016570603478743972
6449.318795272367,-0.001704595087497565
6449.31979504429,-0.001752109821733975
6449.3207948162135,-0.0017996021511070667
6449.321794588136,-0.0018470695076224744
6449.322794360059,-0.0018945091552053021
6449.323794131981,-0.0019419181902903945
6449.324793903904,-0.0019892935425651894
6449.325793675827,-0.0020366319758644493
6449.32679344775,-0.002083930089215935
6449.3277932196725,-0.0021311843180358684
6449.328792991595,-0.002178390935472842
6449.329792763518,-0.0022255460538986873
6449.33079253544,-0.0022726456265446766
6449.331792307364,-0.0023196854492813254
6449.332792079286,-0.0023666611625399563
6449.333791851209,-0.0024135682533741407
6449.334791623131,-0.002460402057659076
6449.335791395054,-0.002507157762426932
6449.3367911669775,-0.0025538304083361904
6449.3377909389,-0.002600414892272966
6449.338790710823,-0.0026469059700822838
6449.339790482745,-0.002693298259427234
6449.340790254668,-0.002739586242773855
6449.341790026591,-0.002785764270499501
6449.342789798514,-0.0028318265641223356
6449.3437895704365,-0.0028777672196494894
6449.344789342359,-0.002923580211041273
6449.345789114282,-0.0029692593937887322
6449.346788886205,-0.003014798508601719
6449.347788658128,-0.003060191185204558
6449.34878843005,-0.0031054309462363316
6449.349788201973,-0.0031505112112527704
6449.350787973895,-0.003195425300826786
6449.351787745818,-0.003240166440744743
6449.3527875177415,-0.0032847277662956887
6449.353787289664,-0.003329102326650844
6449.354787061587,-0.003373283089330693
6449.355786833509,-0.003417262944756967
6449.356786605432,-0.003461034710886639
6449.357786377355,-0.003504591137924817
6449.358786149278,-0.003547924913113139
6449.3597859212005,-0.003591028665589989
6449.360785693123,-0.003633894971318524
6449.361785465046,-0.003676516358078231
6449.362785236969,-0.0037188853105154813
6449.363785008892,-0.0037609942752483286
6449.364784780814,-0.0038028356660207404
6449.365784552737,-0.003844401868901514
6449.366784324659,-0.0038856852475233987
6449.367784096582,-0.003926678148358454
6449.3687838685055,-0.003967372906026377
6449.369783640428,-0.004007761848633336
6449.370783412351,-0.004047837303139701
6449.371783184273,-0.004087591600755731
6449.372782956196,-0.004127017082364791
6449.373782728119,-0.004166106103973827
6449.374782500042,-0.004204851042190751
6449.375782271964,-0.004243244299727999
6449.376782043887,-0.004281278310931032
6449.37778181581,-0.004318945547329943
6449.378781587733,-0.0043562385232116555
6449.379781359656,-0.004393149801209631
6449.380781131578,-0.0044296719979074126
6449.381780903501,-0.00446579778945194
6449.382780675423,-0.004501519917172245
6449.383780447346,-0.004536831193199028
6449.3847802192695,-0.0045717245060805925
6449.385779991192,-0.004606192826390702
6449.386779763115,-0.004640229212324035
6449.387779535037,-0.0046738268152749785
6449.38877930696,-0.004706978885395509
6449.389779078883,-0.00473967877712783
6449.390778850806,-0.004771919954707184
6449.391778622728,-0.004803695997629982
6449.392778394651,-0.004835000606081978
6449.393778166574,-0.00486582760632082
6449.394777938497,-0.004896170956006891
6449.39577771042,-0.004926024749475973
6449.396777482342,-0.004955383222946948
6449.397777254265,-0.004984240759657531
6449.398777026187,-0.005012591894920864
6449.39977679811,-0.005040431321095776
6449.4007765700335,-0.005067753892463533
6449.401776341956,-0.005094554630004052
6449.402776113879,-0.005120828726064678
6449.403775885801,-0.0051465715489147955
6449.404775657724,-0.005171778647179617
6449.405775429647,-0.005196445754146523
6449.40677520157,-0.0052205687919372685
6449.407774973492,-0.0052441438755392745
6449.408774745415,-0.00526716731668905
6449.409774517338,-0.005289635627600635
6449.410774289261,-0.0053115455245317765
6449.411774061184,-0.005332893931180365
6449.412773833106,-0.00535367798190351
6449.413773605029,-0.005373895024751533
6449.414773376951,-0.005393542624309043
6449.415773148874,-0.0054126185643352505
6449.4167729207975,-0.005431120850195705
6449.41777269272,-0.005449047711077709
6449.418772464643,-0.005466397601981775
6449.419772236565,-0.005483169205481707
6449.420772008488,-0.005499361433246206
6449.421771780411,-0.005514973427315297
6449.422771552334,-0.005530004561125537
6449.423771324256,-0.005544454440278738
6449.424771096179,-0.005558322903049827
6449.425770868102,-0.005571610020630563
6449.426770640025,-0.005584316097106834
6449.427770411948,-0.005596441669168319
6449.42877018387,-0.005607987505550158
6449.429769955793,-0.005618954606206985
6449.430769727715,-0.005629344201220147
6449.431769499639,-0.0056391577494392985
6449.4327692715615,-0.005648396936859736
6449.433769043484,-0.005657063674737046
6449.434768815407,-0.005665160097440815
6449.435768587329,-0.005672688560049293
6449.436768359252,-0.00567965163568711
6449.437768131175,-0.005686052112608289
6449.438767903098,-0.005691892991026991
6449.43976767502,-0.005697177479698593
6449.440767446943,-0.00570190899225394
6449.441767218866,-0.005706091143289877
6449.442766990789,-0.005709727744219488
6449.443766762712,-0.005712822798885862
6449.444766534634,-0.0057153804989437
6449.445766306557,-0.005717405219013535
6449.446766078479,-0.005718901511613921
6449.447765850403,-0.00571987410187751
6449.4487656223255,-0.005720327882057548
6449.449765394248,-0.005720267905832039
6449.450765166171,-0.0057196993824135305
6449.451764938093,-0.005718627670473347
6449.452764710016,-0.005717058271889973
6449.453764481939,-0.005714996825332258
6449.454764253862,-0.005712449099689057
6449.455764025784,-0.005709420987357849
6449.456763797707,-0.00570591849740571
6449.45776356963,-0.005701947748616745
6449.458763341553,-0.0056975149624406835
6449.459763113476,-0.005692626455857899
6449.460762885398,-0.005687288634176487
6449.461762657321,-0.005681507983777374
6449.462762429243,-0.005675291064823652
6449.463762201167,-0.00566864450395043
6449.4647619730895,-0.0056615749869515465
6449.465761745012,-0.005654089251479431
6449.466761516935,-0.00564619407977434
6449.467761288857,-0.005637896291439154
6449.46876106078,-0.005629202736275942
6449.469760832703,-0.005620120287200597
6449.470760604626,-0.005610655833251972
6449.471760376548,-0.005600816272712021
6449.472760148471,-0.005590608506353334
6449.473759920394,-0.005580039430830132
6449.474759692317,-0.005569115932228144
6449.47575946424,-0.00555784487978785
6449.476759236162,-0.005546233119814349
6449.477759008085,-0.005534287469785551
6449.478758780007,-0.005522014712668774
6449.479758551931,-0.005509421591454015
6449.4807583238535,-0.005496514803910507
6449.481758095776,-0.005483300997571505
6449.482757867699,-0.005469786764950807
6449.483757639621,-0.0054559786389931685
6449.484757411545,-0.005441883088759694
6449.485757183467,-0.005427506515348201
6449.48675695539,-0.005412855248047736
6449.487756727312,-0.005397935540725519
6449.488756499235,-0.005382753568443837
6449.489756271158,-0.005367315424303651
6449.490756043081,-0.005351627116510943
6449.491755815004,-0.005335694565661203
6449.492755586926,-0.005319523602236868
6449.493755358849,-0.005303119964312033
6449.494755130771,-0.005286489295458468
6449.495754902695,-0.00526963714284671
6449.4967546746175,-0.0052525689555359715
6449.49775444654,-0.005235290082946566
6449.498754218463,-0.00521780577350869
6449.499753990385,-0.005200121173481538
6449.500753762309,-0.005182241325936925
6449.501753534231,-0.0051641711699018
6449.502753306154,-0.005145915539654339
6449.503753078076,-0.005127479164168565
6449.504752849999,-0.005108866666702784
6449.505752621922,-0.00509008256452742
6449.506752393845,-0.0050711312687881415
6449.507752165768,-0.0050520170845004065
6449.50875193769,-0.005032744210671728
6449.509751709613,-0.005013316740548161
6449.510751481535,-0.004993738661981572
6449.511751253459,-0.0049740138579143995
6449.5127510253815,-0.004954146106978755
6449.513750797304,-0.004934139084206876
6449.514750569227,-0.0049139963618501205
6449.515750341149,-0.004893721410303855
6449.516750113073,-0.004873317599135681
6449.517749884995,-0.004852788198214408
6449.518749656918,-0.0048321363789371255
6449.51974942884,-0.004811365215551443
6449.520749200763,-0.004790477686569745
6449.521748972686,-0.004769476676272001
6449.522748744609,-0.00474836497629338
6449.523748516532,-0.004727145287292712
6449.524748288454,-0.004705820220697612
6449.525748060377,-0.004684392300521981
6449.526747832299,-0.004662863965251429
6449.527747604223,-0.004641237569792132
6449.5287473761455,-0.004619515387478533
6449.529747148068,-0.0045976996121351995
6449.530746919991,-0.00457579236018815
6449.531746691913,-0.004553795672820856
6449.532746463837,-0.004531711518170113
6449.533746235759,-0.004509541793556942
6449.534746007682,-0.004487288327747693
6449.535745779604,-0.004464952883240473
6449.536745551527,-0.004442537158572105
6449.53774532345,-0.004420042790640779
6449.538745095373,-0.004397471357039704
6449.539744867296,-0.00437482437839707
6449.540744639218,-0.004352103320717797
6449.541744411141,-0.004329309597722629
6449.542744183063,-0.004306444573180321
6449.543743954987,-0.004283509563228836
6449.5447437269095,-0.004260505838681674
6449.545743498832,-0.004237434627315655
6449.546743270755,-0.004214297116136678
6449.547743042677,-0.004191094453620165
6449.548742814601,-0.004167827751923129
6449.549742586523,-0.0041444980890650044
6449.550742358446,-0.004121106511074681
6449.551742130368,-0.0040976540341013815
6449.552741902291,-0.004074141646487333
6449.553741674214,-0.00405057031080035
6449.554741446137,-0.00402694096582462
6449.55574121806,-0.004003254528508106
6449.556740989982,-0.00397951189586502
6449.557740761905,-0.003955713946831858
6449.558740533827,-0.003931861544075503
6449.559740305751,-0.0039079555357518754
6449.5607400776735,-0.003883996757213655
6449.561739849596,-0.00385998603266552
6449.562739621519,-0.0038359241767653898
6449.563739393441,-0.0038118119961701932
6449.564739165365,-0.003787650291024858
6449.565738937287,-0.0037634398563935103
6449.56673870921,-0.003739181483632324
6449.567738481132,-0.0037148759617040127
6449.568738253055,-0.0036905240784345216
6449.5697380249785,-0.0036661266217129845
6449.570737796901,-0.0036416843806363424
6449.571737568824,-0.003617198146600201
6449.572737340746,-0.0035926687143374905
6449.573737112669,-0.0035680968829063593
6449.574736884591,-0.0035434834566285996
6449.575736656515,-0.0035188292459797086
6449.5767364284375,-0.0034941350684315705
6449.57773620036,-0.003469401749248624
6449.578735972283,-0.0034446301222383247
6449.579735744205,-0.003419821030456637
6449.580735516129,-0.0033949753268692827
6449.581735288051,-0.0033700938749694374
6449.582735059974,-0.0033451775493526024
6449.583734831896,-0.0033202272362493884
6449.584734603819,-0.0032952438340170093
6449.585734375743,-0.00327022825359034
6449.586734147665,-0.003245181418893451
6449.587733919588,-0.003220104267212563
6449.58873369151,-0.0031949977495313486
6449.589733463433,-0.003169862830829442
6449.590733235355,-0.0031447004903449394
6449.591733007279,-0.0031195117218015657
6449.5927327792015,-0.0030942975336010876
6449.593732551124,-0.0030690589489814875
6449.594732323047,-0.0030437970061413674
6449.595732094969,-0.0030185127583309984
6449.596731866893,-0.0029932072739103917
6449.597731638815,-0.002967881636374657
6449.598731410738,-0.0029425369443468194
6449.59973118266,-0.002917174311538203
6449.600730954583,-0.0028917948666764837
6449.6017307265065,-0.0028663997534016552
6449.602730498429,-0.0028409901301304032
6449.603730270352,-0.0028155671698897665
6449.604730042274,-0.0027901320601214133
6449.605729814197,-0.0027646860024583865
6449.606729586119,-0.0027392302124766474
6449.607729358043,-0.00271376591942419
6449.6087291299655,-0.0026882943659308485
6449.609728901888,-0.0026628168077021805
6449.610728673811,-0.002637334513200991
6449.611728445733,-0.0026118487633201718
6449.612728217657,-0.0025863608510505553
6449.613727989579,-0.0025608720811474807
6449.614727761502,-0.002535383769799682
6449.615727533424,-0.0025098972443040077
6449.616727305347,-0.002484413842749313
6449.617727077271,-0.0024589349137126705
6449.618726849193,-0.0024334618159707632
6449.619726621116,-0.0024079959182289903
6449.620726393038,-0.0023825385988703847
6449.621726164961,-0.0023570912457260016
6449.622725936884,-0.0023316552558679325
6449.623725708807,-0.002306232035425643
6449.6247254807295,-0.0022808229994258846
6449.625725252652,-0.002255429571656028
6449.626725024575,-0.0022300531845503026
6449.627724796497,-0.0022046952790981404
6449.628724568421,-0.0021793573047735625
6449.629724340343,-0.0021540407194843643
6449.630724112266,-0.0021287469895397066
6449.631723884188,-0.00210347758963462
6449.632723656111,-0.002078234002849849
6449.6337234280345,-0.0020530177206653996
6449.634723199957,-0.002027830242986067
6449.63572297188,-0.002002673078177119
6449.636722743802,-0.0019775477431081957
6449.637722515725,-0.0019524557632033407
6449.638722287647,-0.0019273986724949194
6449.639722059571,-0.0019023780136790923
6449.6407218314935,-0.0018773953381704363
6449.641721603416,-0.0018524522061533547
6449.642721375339,-0.0018275501866280167
6449.643721147261,-0.0018026908574487648
6449.644720919185,-0.0017778758053531305
6449.645720691107,-0.0017531066259798345
6449.64672046303,-0.0017283849238743415
6449.647720234952,-0.0017037123124806909
6449.648720006875,-0.0016790904141184178
6449.649719778799,-0.0016545208599433937
6449.650719550721,-0.0016300052898914107
6449.651719322644,-0.0016055453526032958
6449.652719094566,-0.001581142705330293
6449.653718866489,-0.0015567990138184123
6449.654718638412,-0.001532515952170388
6449.655718410335,-0.001508295202683847
6449.6567181822575,-0.0014841384556642397
6449.65771795418,-0.0014600474092110762
6449.658717726103,-0.0014360237689760092
6449.659717498025,-0.0014120692478913337
6449.660717269949,-0.0013881855658674982
6449.661717041871,-0.0013643744494582833
6449.662716813794,-0.0013406376314923551
6449.663716585716,-0.0013169768506699612
6449.664716357639,-0.0012933938511236044
6449.6657161295625,-0.0012698903819416
6449.666715901485,-0.0012464681966534953
6449.667715673408,-0.0012231290526764174
6449.66871544533,-0.0011998747107215184
6449.669715217253,-0.0011767069341598135
6449.670714989176,-0.0011536274883468514
6449.671714761099,-0.0011306381399058196
6449.6727145330215,-0.0011077406559688694
6449.673714304944,-0.001084936803376645
6449.674714076867,-0.001062228347836232
6449.675713848789,-0.0010396170530380252
6449.676713620713,-0.0010171046797323813
6449.677713392635,-0.0009946929847673561
6449.678713164558,-0.0009723837200893654
6449.67971293648,-0.0009501786317091662
6449.680712708403,-0.0009280794586361414
6449.681712480327,-0.0009060879317843823
6449.682712252249,-0.0008842057728544725
6449.683712024172,-0.0008624346931951103
6449.684711796094,-0.000840776392648777
6449.685711568017,-0.0008192325583855824
6449.68671133994,-0.0007978048637292336
6449.687711111863,-0.0007764949669788447
6449.6887108837855,-0.0007553045102300517
6449.689710655708,-0.000734235118198658
6449.690710427631,-0.0007132883970498206
6449.691710199553,-0.0006924659332355972
6449.692709971477,-0.0006717692923435165
6449.693709743399,-0.0006512000179587135
6449.694709515322,-0.0006307596305420557
6449.695709287244,-0.0006104496263265963
6449.696709059167,-0.0005902714762345769
6449.6977088310905,-0.0005702266248170559
6449.698708603013,-0.0005503164892180343
6449.699708374936,-0.000530542458164692
6449.700708146858,-0.0005109058909850362
6449.701707918781,-0.000491408116653933
6449.702707690704,-0.00047205043286819556
6449.703707462627,-0.00045283410515117026
6449.7047072345495,-0.00043376036598711105
6449.705707006472,-0.00041483041398555144
6449.706706778395,-0.0003960454130758477
6449.707706550318,-0.0003774064917320602
6449.708706322241,-0.0003589147422283548
6449.709706094163,-0.00034057121992511893
6449.710705866086,-0.00032237694258598954
6449.711705638008,-0.0003043328897259644
6449.712705409931,-0.00028644000199072096
6449.713705181855,-0.0002686991805672169
6449.714704953777,-0.0002511112866255969
6449.7157047257,-0.00023367714079238606
6449.716704497622,-0.00021639752265489802
6449.717704269545,-0.0001992731702967131
6449.718704041468,-0.00018230477986398464
6449.719703813391,-0.00016549300516221675
6449.7207035853135,-0.00014883845728304966
6449.721703357236,-0.00013234170426051523
6449.722703129159,-0.00011600327075621318
6449.723702901082,-9.982363777292042e-05
6449.724702673005,-8.380324239628156e-05
6449.725702444927,-6.79424775644228e-05
6449.72670221685,-5.224169186556158e-05
6449.727701988772,-3.6701189363923454e-05
6449.728701760695,-2.1321229454501733e-05
6449.7297015326185,-6.1020267473739014e-06
6449.730701304541,8.956249017602449e-06
6449.731701076464,2.385347302487153e-05
6449.732700848386,3.8589565405270074e-05
6449.733700620309,5.316449122551131e-05
6449.734700392232,6.757826044465435e-05
6449.735700164155,8.183092783738431e-05
6449.7366999360775,9.592259288417007e-05
6449.737699708,0.00010985339962860911
6449.738699479923,0.00012362353650251164
6449.739699251846,0.00013723323611951509
6449.740699023769,0.00015068277503825207
6449.741698795691,0.00016397247349631477
6449.742698567614,0.00017710269511646566
6449.743698339536,0.00019007384658673598
6449.744698111459,0.0002028863773162264
6449.745697883383,0.0002155407790685842
6449.746697655305,0.00022803758557528076
6449.747697427228,0.00024037737213095832
6449.74869719915,0.0002525607551732561
6449.749696971073,0.00026458839184965874
6449.750696742996,0.00027646097957403595
6449.751696514919,0.00028817925557565526
6449.7526962868415,0.0002997439964435489
6449.753696058764,0.0003111560176691974
6449.754695830687,0.0003224161731905423
6449.75569560261,0.0003335253549403398
6449.756695374533,0.00034448449240179896
6449.757695146455,0.0003552945521743033
6449.758694918378,0.0003659565375518
6449.7596946903,0.00037647148811618063
6449.760694462223,0.0003868404793476883
6449.7616942341465,0.0003970646222541071
6449.762694006069,0.000407145063020222
6449.763693777992,0.0004170829826788097
6449.764693549914,0.00042687959680421983
6449.765693321837,0.0004365361552294214
6449.76669309376,0.0004460539417871899
6449.767692865683,0.0004554342740758916
6449.768692637605,0.00046467850325007627
6449.769692409528,0.00047378801383585623
6449.770692181451,0.0004827642235708522
6449.771691953374,0.0004916085832683617
6449.772691725297,0.0005003225767053538
6449.773691497219,0.000508907720533924
6449.774691269142,0.0005173655642159451
6449.775691041064,0.0005256976899808178
6449.776690812987,0.0005339057128064408
6449.777690584911,0.0005419912804237613
6449.778690356833,0.0005499560733454919
6449.779690128756,0.0005578018049197388
6449.780689900678,0.0005655302214093116
6449.781689672601,0.000573143102097319
6449.782689444524,0.0005806422594192627
6449.783689216447,0.000588029539121195
6449.784688988369,0.0005953068204426233
6449.785688760292,0.0006024760163217557
6449.786688532215,0.0006095390736194629
6449.787688304138,0.0006164979733570659
6449.788688076061,0.000623354730961841
6449.789687847983,0.0006301113965130848
6449.790687619906,0.000636770054980764
6449.791687391828,0.0006433328264482556
6449.792687163752,0.0006498018663104807
6449.7936869356745,0.000656179365438845
6449.794686707597,0.000662467550304814
6449.79568647952,0.0006686686830546518
6449.796686251442,0.0006747850615287665
6449.797686023365,0.0006808190192201789
6449.798685795288,0.0006867729251677537
6449.799685567211,0.0006926491837809468
6449.800685339133,0.0006984502345938643
6449.801685111056,0.0007041785519473827
6449.802684882979,0.0007098366445988967
6449.803684654902,0.0007154270552599422
6449.804684426825,0.000720952360062494
6449.805684198747,0.0007264151679551602
6449.80668397067,0.0007318181200308384
6449.807683742592,0.0007371638887876755
6449.808683514516,0.0007424551773253836
6449.809683286439,0.00074769471847912
6449.810683058361,0.0007528852738932181
6449.811682830284,0.0007580296330370935
6449.812682602206,0.0007631306121656594
6449.813682374129,0.0007681910532266207
6449.814682146052,0.0007732138227170978
6449.815681917975,0.0007782018104921638
6449.816681689897,0.0007831579285280204
6449.81768146182,0.0007880851096426607
6449.818681233743,0.0007929863061769307
6449.819681005666,0.0007978644886388938
6449.820680777589,0.0008027226443143291
6449.821680549511,0.0008075637758460461
6449.822680321434,0.0008123908997844999
6449.823680093356,0.0008172070451119371
6449.82467986528,0.0008220152517420377
6449.8256796372025,0.0008268185689967729
6449.826679409125,0.0008316200540620246
6449.827679181048,0.000836422770423428
6449.82867895297,0.0008412297862838894
6449.829678724893,0.0008460441729642691
6449.830678496816,0.0008508690032887783
6449.831678268739,0.0008557073499566978
6449.832678040661,0.000860562283902097
6449.833677812584,0.0008654368726433152
6449.834677584507,0.0008703341786240693
6449.83567735643,0.0008752572575481838
6449.836677128353,0.0008802091567100925
6449.837676900275,0.0008851929133234324
6449.838676672198,0.0008902115528502224
6449.83967644412,0.000895268087333271
6449.840676216044,0.0009003655137345758
6449.841675987967,0.0009055068122825224
6449.842675759889,0.0009106949448306705
6449.843675531812,0.0009159328532308088
6449.844675303734,0.0009212234577227845
6449.845675075658,0.0009265696553433698
6449.84667484758,0.0009319743183561686
6449.847674619503,0.0009374402927043198
6449.848674391425,0.0009429703964875582
6449.849674163348,0.0009485674184650736
6449.850673935271,0.0009542341165855376
6449.851673707194,0.000959973216545639
6449.852673479117,0.0009657874103784408
6449.853673251039,0.0009716793550728386
6449.854673022962,0.0009776516712253426
6449.855672794884,0.0009837069417253342
6449.856672566808,0.0009898477104748414
6449.8576723387305,0.0009960764811437364
6449.858672110653,0.0010023957159610495
6449.859671882576,0.001008807834542808
6449.860671654498,0.001015315212756466
6449.861671426422,0.0010219201816215838
6449.862671198344,0.001028625026246017
6449.863670970267,0.0010354319847965144
6449.864670742189,0.0010423432475023067
6449.865670514112,0.0010493609556900322
6449.866670286035,0.0010564872008481485
6449.867670057958,0.0010637240237188618
6449.868669829881,0.0010710734134155484
6449.869669601803,0.0010785373065636797
6449.870669373726,0.0010861175864633915
6449.871669145648,0.0010938160822720454
6449.872668917572,0.001101634568205397
6449.873668689495,0.0011095747627562849
6449.874668461417,0.0011176383279300703
6449.87566823334,0.0011258268684963533
6449.876668005262,0.0011341419312567598
6449.877667777186,0.0011425850043288036
6449.878667549108,0.0011511575164459777
6449.879667321031,0.0011598608362743163
6449.880667092953,0.0011686962717457115
6449.881666864876,0.001177665069408302
6449.882666636799,0.0011867684137942642
6449.883666408722,0.0011960074268053669
6449.884666180645,0.0012053831671166625
6449.885665952567,0.0012148966295987076
6449.88666572449,0.0012245487447587484
6449.887665496412,0.0012343403782013474
6449.888665268336,0.0012442723301090077
6449.8896650402585,0.0012543453347434233
6449.890664812181,0.0012645600599680885
6449.891664584104,0.0012749171067930865
6449.892664356026,0.0012854170089429792
6449.89366412795,0.0012960602324488045
6449.894663899872,0.0013068471752652694
6449.895663671795,0.0013177781669143115
6449.896663443717,0.0013288534681562593
6449.89766321564,0.0013400732706898826
6449.898662987563,0.0013514376968826538
6449.899662759486,0.0013629467995325349
6449.900662531409,0.0013746005616626028
6449.901662303331,0.00138639889634979
6449.902662075254,0.0013983416465889818
6449.903661847176,0.0014104285851936848
6449.9046616191,0.0014226594147344416
6449.905661391023,0.0014350337675161483
6449.906661162945,0.001447551205595406
6449.907660934868,0.0014602112208390195
6449.90866070679,0.0014730132350246952
6449.909660478714,0.0014859565999849162
6449.910660250636,0.001499040597794863
6449.911660022559,0.001512264441005096
6449.912659794481,0.001525627272919533
6449.913659566404,0.0015391281679190143
6449.914659338327,0.00155276613183047
6449.91565911025,0.001566540102341392
6449.916658882173,0.001580448949458966
6449.917658654095,0.0015944914760128858
6449.918658426018,0.0016086664182005186
6449.91965819794,0.0016229724461727275
6449.920657969864,0.0016374081646582585
6449.9216577417865,0.001651972113624146
6449.922657513709,0.0016666627689690965
6449.923657285632,0.0016814785432463014
6449.924657057554,0.001696417786411651
6449.925656829478,0.0017114787865929485
6449.9266566014,0.0017266597708754962
6449.927656373323,0.0017419589060993636
6449.928656145245,0.0017573742996637763
6449.929655917168,0.0017729040003343012
6449.930655689092,0.0017885459990488824
6449.931655461014,0.0018042982297192152
6449.932655232937,0.0018201585700244104
6449.933655004859,0.0018361248421943344
6449.934654776782,0.0018521948137804332
6449.935654548704,0.0018683661984122133
6449.936654320628,0.0018846366565378882
6449.937654092551,0.0019010037961479933
6449.938653864473,0.0019174651734810337
6449.939653636396,0.0019340182937104319
6449.940653408318,0.0019506606116122276
6449.941653180242,0.0019673895322131463
6449.942652952164,0.0019842024114188274
6449.943652724087,0.002001096556622184
6449.944652496009,0.0020180692272920844
6449.945652267932,0.0020351176355427767
6449.946652039856,0.0020522389466847133
6449.947651811778,0.0020694302797576725
6449.948651583701,0.002086688708047295
6449.949651355623,0.002104011259586329
6449.950651127546,0.002121394917642009
6449.951650899468,0.0021388366211910932
6449.952650671392,0.002156333265384118
6449.9536504433145,0.0021738817020004533
6449.954650215237,0.0021914787398957416
6449.95564998716,0.002209121145443314
6449.956649759082,0.002226805642971152
6449.957649531006,0.002244528915195967
6449.958649302928,0.002262287603655968
6449.959649074851,0.002280078309143889
6449.960648846773,0.0022978975921418765
6449.961648618696,0.0023157419732598573
6449.96264839062,0.0023336079336790275
6449.963648162542,0.0023514919156021486
6449.964647934465,0.002369390322712359
6449.965647706387,0.0023872995206422076
6449.96664747831,0.0024052158374546105
6449.967647250232,0.002423135564137347
6449.968647022156,0.0024410549551126108
6449.969646794079,0.002458970228762949
6449.970646566001,0.0024768775679747243
6449.971646337924,0.0024947731207000117
6449.972646109846,0.0025126530005376356
6449.97364588177,0.002530513287333878
6449.974645653692,0.0025483500278032463
6449.975645425615,0.0025661592361696213
6449.976645197537,0.0025839368948280686
6449.97764496946,0.002601678955027589
6449.978644741384,0.0026193813375750617
6449.979644513306,0.002637039933560561
6449.980644285229,0.002654650605104091
6449.981644057151,0.0026722091861235537
6449.982643829074,0.0026897114831234974
6449.983643600997,0.0027071532760038802
6449.98464337292,0.0027245303188878065
6449.9856431448425,0.002741838340966932
6449.986642916765,0.0027590730473630483
6449.987642688688,0.002776230120004214
6449.98864246061,0.0027933052185137356
6449.989642232534,0.002810293981110315
6449.990642004456,0.0028271920255177416
6449.991641776379,0.002843994949882664
6449.992641548301,0.002860698333699145
6449.993641320224,0.0028772977387389793
6449.994641092148,0.002893788709987026
6449.99564086407,0.0029101667765811193
6449.996640635993,0.002926427452756379
6449.997640407915,0.0029425662387939917
6449.998640179838,0.0029585786219746995
6449.99963995176,0.002974460077537345
6450.000639723684,0.0029902060696428913
6450.001639495607,0.003005812052344417
6450.002639267529,0.0030212734705636767
6450.003639039452,0.003036585761074929
6450.004638811374,0.003051744353496884
6450.005638583298,0.003066744671293751
6450.00663835522,0.00308158213278645
6450.007638127143,0.003096252152175148
6450.008637899065,0.003110750140574339
6450.009637670988,0.0031250715070617013
6450.010637442912,0.0031392116597420143
6450.011637214834,0.0031531660068274073
6450.012636986757,0.0031669299577352927
6450.013636758679,0.0031804989242053866
6450.014636530602,0.003193868321437296
6450.015636302525,0.0032070335692502444
6450.016636074448,0.0032199900932665987
6450.0176358463705,0.0032327333261209256
6450.018635618293,0.003245258708696347
6450.019635390216,0.003257561691390002
6450.020635162138,0.00326963773540939
6450.021634934062,0.0032814823141013613
6450.022634705984,0.0032930909143154955
6450.023634477907,0.0033044590378035247
6450.024634249829,0.0033155822026563722
6450.025634021752,0.003326455944780206
6450.026633793676,0.003337075819412676
6450.027633565598,0.0033474374026801366
6450.028633337521,0.0033575362931962324
6450.029633109443,0.003367368113701653
6450.030632881366,0.003376928512744298
6450.031632653289,0.003386213166398451
6450.032632425212,0.003395217780021072
6450.033632197135,0.0034039380900428885
6450.034631969057,0.0034123698657917492
6450.03563174098,0.0034205089113456843
6450.036631512902,0.0034283510674132088
6450.037631284826,0.0034358922132385976
6450.038631056748,0.003443128268530022
6450.039630828671,0.0034500551954085587
6450.040630600593,0.0034566690003761343
6450.041630372516,0.003462965736300436
6450.04263014444,0.003468941504414771
6450.043629916362,0.0034745924563307994
6450.044629688285,0.003479914796062035
6450.045629460207,0.0034849047820560307
6450.04662923213,0.0034895587292332313
6450.047629004053,0.003493873011030568
6450.048628775976,0.003497844061447941
6450.0496285478985,0.0035014683770957585
6450.050628319821,0.0035047425192416604
6450.051628091744,0.003507663115854417
6450.052627863666,0.003510226863642831
6450.05362763559,0.0035124305300872315
6450.054627407512,0.003514270955460912
6450.055627179435,0.003515745054838523
6450.056626951357,0.0035168498200880316
6450.05762672328,0.0035175823218423887
6450.058626495204,0.003517939711446487
6450.059626267126,0.003517919222874431
6450.060626039049,0.003517518174611616
6450.061625810971,0.003516733971495733
6450.062625582894,0.003515564106510653
6450.063625354817,0.00351400616252712
6450.06462512674,0.003512057813984499
6450.065624898663,0.0035097168285081956
6450.066624670585,0.003506981068457966
6450.067624442508,0.00350384849240297
6450.068624214431,0.0035003171565200905
6450.069623986354,0.003496385215912718
6450.070623758276,0.0034920509258478017
6450.071623530199,0.003487312642909523
6450.072623302121,0.0034821688260684796
6450.073623074044,0.003476618037665737
6450.074622845968,0.003470658944311593
6450.07562261789,0.003464290317699315
6450.076622389813,0.0034575110353345572
6450.077622161735,0.003450320081181535
6450.078621933658,0.003442716546227367
6450.079621705581,0.0034346996289663016
6450.080621477504,0.003426268635805742
6450.0816212494265,0.0034174229813961083
6450.082621021349,0.003408162188886589
6450.083620793272,0.0033984858901087655
6450.084620565195,0.003388393825689947
6450.085620337118,0.0033778858450978677
6450.08662010904,0.0033669619066182175
6450.087619880963,0.003355622077266313
6450.088619652885,0.0033438665326341256
6450.089619424808,0.003331695556673884
6450.090619196732,0.0033191095414195583
6450.091618968654,0.003306108986647695
6450.092618740577,0.003292694499479299
6450.093618512499,0.003278866793924701
6450.094618284422,0.003264626690373596
6450.095618056345,0.003249975115032691
6450.096617828268,0.0032349130993135663
6450.097617600191,0.003219441779173545
6450.098617372113,0.003203562394412418
6450.099617144036,0.003187276287927906
6450.100616915959,0.003170584904932698
6450.101616687882,0.003153489792135841
6450.102616459804,0.0031359925968911287
6450.103616231727,0.0031180950663150385
6450.104616003649,0.0030997990463766385
6450.105615775572,0.003081106480961775
6450.106615547496,0.0030620194109137492
6450.107615319418,0.003042539973052631
6450.108615091341,0.003022670399175316
6450.109614863263,0.0030024130150384464
6450.110614635186,0.0029817702393263226
6450.111614407109,0.002960744582605975
6450.112614179032,0.002939338646271592
6450.1136139509545,0.002917555121480524
6450.114613722877,0.0028953967880831102
6450.1156134948,0.0028728665135485656
6450.116613266723,0.0028499672518891785
6450.117613038646,0.002826702042585008
6450.118612810568,0.002803074009511215
6450.119612582491,0.0027790863598700344
6450.120612354413,0.0027547423831291618
6450.121612126336,0.0027300454499679747
6450.12261189826,0.002704999011232493
6450.123611670182,0.0026796065968993097
6450.124611442105,0.0026538718150479626
6450.125611214027,0.00262779835084043
6450.12661098595,0.0026013899655057075
6450.127610757873,0.002574650495326828
6450.128610529796,0.002547583850627269
6450.129610301719,0.0025201940147535095
6450.130610073641,0.002492485043050472
6450.131609845564,0.002464461061826708
6450.132609617487,0.002436126267306367
6450.13360938941,0.0024074849245652123
6450.134609161332,0.002378541366448184
6450.135608933255,0.0023492999924662745
6450.136608705177,0.0023197652676707416
6450.1376084771,0.0022899417215029878
6450.138608249024,0.0022598339466187297
6450.139608020946,0.002229446597685389
6450.140607792869,0.0021987843901519004
6450.141607564791,0.002167852098990361
6450.142607336714,0.002136654557409092
6450.143607108637,0.002105196655536789
6450.14460688056,0.0020734833390774815
6450.1456066524825,0.0020415196079360694
6450.146606424405,0.00200931051481427
6450.147606196328,0.001976861163776933
6450.148605968251,0.001944176708788897
6450.149605740174,0.0019112623522228318
6450.150605512096,0.0018781233433388374
6450.151605284019,0.0018447649767369093
6450.152605055941,0.0018111925907837029
6450.153604827865,0.001777411566015347
6450.154604599788,0.0017434273235183385
6450.15560437171,0.0017092453232907814
6450.156604143633,0.0016748710625864333
6450.157603915555,0.0016403100742441376
6450.158603687478,0.0016055679250052877
6450.159603459401,0.001570650213821967
6450.160603231324,0.0015355625701583403
6450.161603003247,0.0015003106522877632
6450.162602775169,0.001464900145587929
6450.163602547092,0.0014293367608362215
6450.164602319015,0.0013936262325072292
6450.165602090938,0.0013577743170741319
6450.16660186286,0.0013217867913153586
6450.167601634783,0.0012856694506275163
6450.168601406705,0.001249428107345145
6450.169601178629,0.0012130685890673846
6450.170600950552,0.0011765967369912025
6450.171600722474,0.0011400184042504769
6450.172600494397,0.0011033394542599986
6450.173600266319,0.0010665657590633857
6450.174600038242,0.0010297031976839713
6450.175599810165,0.000992757654477928
6450.176599582088,0.0009557350174891358
6450.17759935401,0.0009186411768055809
6450.178599125933,0.0008814820229173273
6450.179598897856,0.0008442634450763524
6450.180598669779,0.0008069913296587634
6450.181598441702,0.0007696715585301206
6450.182598213624,0.000732310007414794
6450.183597985547,0.0006949125442704543
6450.184597757469,0.0006574850276689782
6450.185597529393,0.0006200333051852188
6450.186597301316,0.0005825632117952361
6450.187597073238,0.0005450805682856994
6450.188596845161,0.0005075911796762037
6450.189596617083,0.0004701008336561791
6450.190596389006,0.000432615299037892
6450.191596160929,0.00039514032422675166
6450.192595932852,0.00035768163570977274
6450.193595704774,0.0003202449365626418
6450.194595476697,0.0002828359049754439
6450.19559524862,0.00024546019279676697
6450.196595020543,0.00020812342409564795
6450.197594792466,0.00017083119374066826
6450.198594564388,0.00013358906599543553
6450.199594336311,9.640257312969513e-05
6450.200594108233,5.927721404537575e-05
6450.201593880157,2.2218452916975513e-05
6450.20259365208,-1.4768282154168895e-05
6450.203593424002,-5.167760047201773e-05
6450.204593195925,-8.850415006444811e-05
6450.205592967847,-0.00012524261898819245
6450.206592739771,-0.0001618877366196621
6450.207592511693,-0.0001984342749309615
6450.208592283616,-0.00023487704975017873
6450.209592055538,-0.0002712109220048846
6450.210591827461,-0.00030743079894769763
6450.211591599384,-0.00034353163536275855
6450.212591371307,-0.0003795084347519868
6450.21359114323,-0.00041535625050003914
6450.214590915152,-0.0004510701870169399
6450.215590687075,-0.0004866454008574019
6450.216590458997,-0.0005220771018159044
6450.217590230921,-0.0005573605539966405
6450.218590002844,-0.0005924910768574866
6450.219589774766,-0.0006274640462271641
6450.220589546689,-0.000662274895294754
6450.221589318611,-0.0006969191155706887
6450.222589090535,-0.0007313922578182806
6450.223588862457,-0.0007656899329547619
6450.22458863438,-0.0007998078129206908
6450.225588406302,-0.0008337416315164572
6450.226588178225,-0.0008674871852044998
6450.227587950148,-0.000901040333875739
6450.228587722071,-0.0009343970015786641
6450.229587493994,-0.0009675531772094594
6450.230587265916,-0.001000504915161535
6450.231587037839,-0.0010332483359328222
6450.232586809761,-0.0010657796266892025
6450.233586581685,-0.0010980950417824637
6450.234586353608,-0.0011301909032212156
6450.23558612553,-0.00116206360109326
6450.236585897453,-0.0011937095939379943
6450.237585669375,-0.0012251254090675369
6450.238585441299,-0.00125630764283539
6450.239585213221,-0.0012872529608515687
6450.240584985144,-0.0013179580981432376
6450.241584757066,-0.0013484198592599822
6450.242584528989,-0.001378635118322907
6450.243584300912,-0.001408600819016816
6450.244584072835,-0.0014383139745247787
6450.245583844758,-0.001467771667404433
6450.24658361668,-0.0014969710494053933
6450.247583388603,-0.0015259093412271537
6450.248583160525,-0.0015545838322168827
6450.249582932449,-0.0015829918800065303
6450.250582704372,-0.0016111309100887183
6450.251582476294,-0.001638998415330988
6450.252582248217,-0.0016665919554281557
6450.253582020139,-0.0016939091562927751
6450.254581792063,-0.0017209477093840595
6450.255581563985,-0.0017477053709760533
6450.256581335908,-0.0017741799613663553
6450.25758110783,-0.0018003693640272613
6450.258580879753,-0.0018262715247017577
6450.259580651676,-0.0018518844504473433
6450.260580423599,-0.0018772062086311067
6450.261580195522,-0.0019022349258799047
6450.262579967444,-0.0019269687869898208
6450.263579739367,-0.0019514060337993788
6450.264579511289,-0.0019755449640312494
6450.265579283213,-0.0019993839301073748
6450.266579055136,-0.002022921337942551
6450.267578827058,-0.002046155645721539
6450.268578598981,-0.0020690853626647112
6450.269578370903,-0.0020917090477871256
6450.270578142827,-0.0021140253086557276
6450.271577914749,-0.002136032800149153
6450.272577686672,-0.002157730223224359
6450.273577458594,-0.0021791163236940378
6450.274577230517,-0.00220018989101846
6450.27557700244,-0.0022209497571151157
6450.276576774363,-0.0022413947951892004
6450.277576546286,-0.0022615239185876873
6450.278576318208,-0.002281336079679408
6450.279576090131,-0.0023008302687632515
6450.280575862053,-0.00232000551300631
6450.281575633977,-0.0023388608754135345
6450.2825754059,-0.002357395453830269
6450.283575177822,-0.002375608379978925
6450.284574949745,-0.0023934988185310025
6450.285574721667,-0.002411065966215684
6450.286574493591,-0.0024283090509663124
6450.287574265513,-0.002445227331106185
6450.288574037436,-0.0024618200945752604
6450.289573809358,-0.002478086658199593
6450.290573581281,-0.0024940263670055326
6450.2915733532045,-0.002509638593580971
6450.292573125127,-0.0025249227374861158
6450.29357289705,-0.002539878224716432
6450.294572668972,-0.0025545045072204475
6450.295572440895,-0.0025688010624751088
6450.296572212817,-0.002582767393121288
6450.297571984741,-0.002596403026661913
6450.298571756664,-0.002609707515225009
6450.299571528586,-0.002622680435393738
6450.300571300509,-0.002635321388105289
6450.301571072431,-0.002647629998620207
6450.302570844355,-0.002659605916563435
6450.303570616277,-0.002671248816038024
6450.3045703882,-0.002682558395812125
6450.305570160122,-0.00269353437957957
6450.306569932045,-0.0027041765162940036
6450.3075697039685,-0.0027144845805762486
6450.308569475891,-0.002724458373194269
6450.309569247814,-0.0027340977216148113
6450.310569019736,-0.0027434024806255535
6450.311568791659,-0.002752372533026369
6450.312568563581,-0.002761007790388148
6450.313568335505,-0.002769308193877484
6450.314568107428,-0.0027772737151454422
6450.31556787935,-0.002784904357278561
6450.316567651273,-0.002792200155810181
6450.317567423195,-0.002799161179790229
6450.318567195119,-0.0028057875329115774
6450.319566967041,-0.0028120793546912823
6450.320566738964,-0.00281803682170523
6450.321566510886,-0.0028236601488750936
6450.322566282809,-0.0028289495908069328
6450.3235660547325,-0.0028339054431812043
6450.324565826655,-0.002838528044194353
6450.325565598578,-0.002842817776052396
6450.3265653705,-0.0028467750665169722
6450.327565142423,-0.0028504003905041563
6450.328564914345,-0.002853694271735975
6450.329564686269,-0.0028566572844440385
6450.330564458192,-0.002859290055124092
6450.331564230114,-0.0028615932643396413
6450.332564002037,-0.0028635676485721656
6450.333563773959,-0.0028652140021148357
6450.334563545883,-0.0028665331790061455
6450.335563317805,-0.0028675260949994155
6450.336563089728,-0.0028681937295638154
6450.33756286165,-0.002868537127912323
6450.338562633573,-0.0028685574030518877
6450.3395624054965,-0.002868255737851027
6450.340562177419,-0.002867633387120102
6450.341561949342,-0.0028666916796995794
6450.342561721264,-0.0028654320205517615
6450.343561493187,-0.0028638558928516878
6450.34456126511,-0.002861964860073163
6450.345561037033,-0.002859760568066141
6450.346560808956,-0.0028572447471219117
6450.347560580878,-0.002854419214022703
6450.348560352801,-0.0028512858740722827
6450.349560124723,-0.00284784672310409
6450.350559896647,-0.002844103849463185
6450.351559668569,-0.0028400594359580585
6450.352559440492,-0.0028357157617780707
6450.353559212414,-0.002831075204372037
6450.354558984337,-0.0028261402412832763
6450.3555587562605,-0.0028209134519362545
6450.356558528183,-0.0028153975193698244
6450.357558300106,-0.0028095952319119937
6450.358558072028,-0.0028035094847910893
6450.359557843951,-0.002797143281678203
6450.360557615873,-0.002790499736155804
6450.361557387797,-0.0027835820731074447
6450.36255715972,-0.0027763936300235466
6450.363556931642,-0.0027689378582182837
6450.364556703565,-0.002761218323952692
6450.365556475487,-0.0027532387094592425
6450.366556247411,-0.0027450028138632757
6450.367556019333,-0.002736514553996894
6450.368555791256,-0.0027277779651011217
6450.369555563178,-0.0027187972014123523
6450.370555335101,-0.002709576536629244
6450.3715551070245,-0.002700120364256275
6450.372554878947,-0.0026904331978201673
6450.37355465087,-0.002680519670955308
6450.374554422792,-0.0026703845373542024
6450.375554194715,-0.0026600326705788695
6450.376553966638,-0.002649469063729017
6450.377553738561,-0.002638698828962745
6450.378553510484,-0.0026277271968654817
6450.379553282406,-0.002616559515662842
6450.380553054329,-0.0026052012502731053
6450.381552826251,-0.0025936579811950537
6450.382552598175,-0.0025819354032269536
6450.383552370097,-0.0025700393240125677
6450.38455214202,-0.0025579756624101975
6450.385551913942,-0.0025457504466809373
6450.386551685865,-0.0025333698124925144
6450.3875514577885,-0.0025208400007353323
6450.388551229711,-0.002508167355147553
6450.389551001634,-0.002495358319746276
6450.390550773556,-0.002482419436062104
6450.391550545479,-0.002469357340174612
6450.392550317402,-0.0024561787595465097
6450.393550089325,-0.0024428905096546133
6450.394549861248,-0.002429499490416108
6450.39554963317,-0.0024160126824089847
6450.396549405093,-0.0024024371428860115
6450.397549177015,-0.002388780001582094
6450.398548948939,-0.0023750484563154553
6450.399548720861,-0.002361249768383637
6450.400548492784,-0.002347391257755932
6450.401548264706,-0.002333480298064485
6450.402548036629,-0.0023195243113969194
6450.4035478085525,-0.0023055307628939915
6450.404547580475,-0.0022915071551564154
6450.405547352398,-0.0022774610224656345
6450.40654712432,-0.002263399924823923
6450.407546896243,-0.0022493314418197846
6450.408546668166,-0.002235263166325163
6450.409546440089,-0.0022212026980314966
6450.410546212012,-0.002207157636832202
6450.411545983934,-0.0021931355760597543
6450.412545755857,-0.002179144095586208
6450.413545527779,-0.0021651907547967715
6450.414545299703,-0.0021512830854469303
6450.415545071625,-0.0021374285844145626
6450.416544843548,-0.002123634706359526
6450.41754461547,-0.0021099088563042365
6450.418544387393,-0.0020962583821497846
6450.4195441593165,-0.002082690567143098
6450.420543931239,-0.0020692126223115083
6450.421543703162,-0.0020558316788818077
6450.422543475084,-0.0020425547807014456
6450.423543247007,-0.002029388876679963
6450.42454301893,-0.002016340813269039
6450.425542790853,-0.002003417326999647
6450.426542562776,-0.001990625037094748
6450.427542334698,-0.001977970438175692
6450.428542106621,-0.0019654598930800393
6450.429541878544,-0.0019530996258079174
6450.430541650467,-0.0019408957146132939
6450.431541422389,-0.0019288540852557294
6450.432541194312,-0.0019169805044272833
6450.433540966234,-0.0019052805733682885
6450.434540738157,-0.0018937597216846951
6450.4355405100805,-0.001882423201378644
6450.436540282003,-0.001871276081102843
6450.437540053926,-0.00186032324064824
6450.438539825848,-0.001849569365673418
6450.439539597771,-0.0018390189426831125
6450.440539369694,-0.0018286762542622627
6450.441539141617,-0.0018185453745711156
6450.44253891354,-0.0018086301651060413
6450.443538685462,-0.0017989342707299685
6450.444538457385,-0.0017894611159756384
6450.445538229308,-0.0017802139016242276
6450.446538001231,-0.0017711956015612606
6450.447537773153,-0.001762408959911113
6450.448537545076,-0.001753856488450781
6450.449537316998,-0.001745540464302932
6450.450537088921,-0.0017374629279075919
6450.4515368608445,-0.0017296256812711296
6450.452536632767,-0.0017220302864905256
6450.45353640469,-0.0017146780645502565
6450.454536176612,-0.0017075700943885008
6450.455535948535,-0.0017007072122288006
6450.456535720458,-0.0016940900111728219
6450.457535492381,-0.001687718841049437
6450.458535264304,-0.0016815938085150697
6450.459535036226,-0.001675714777400044
6450.460534808149,-0.0016700813692955923
6450.461534580072,-0.0016646929643761512
6450.462534351995,-0.001659548702451614
6450.463534123917,-0.0016546474842442339
6450.46453389584,-0.001649987972884919
6450.465533667762,-0.0016455685956236802
6450.466533439685,-0.001641387545749004
6450.4675332116085,-0.0016374427847109247
6450.468532983531,-0.0016337320444425958
6450.469532755454,-0.0016302528298751773
6450.470532527376,-0.0016270024216408978
6450.471532299299,-0.0016239778789591762
6450.472532071222,-0.0016211760427007219
6450.473531843145,-0.0016185935386245536
6450.474531615068,-0.0016162267807828758
6450.47553138699,-0.0016140719750886868
6450.476531158913,-0.0016121251230409054
6450.477530930836,-0.0016103820256016563
6450.478530702759,-0.0016088382872201895
6450.479530474681,-0.0016074893199977474
6450.480530246604,-0.001606330347987548
6450.481530018526,-0.0016053564116239333
6450.482529790449,-0.001604562372274669
6450.4835295623725,-0.0016039429169103377
6450.484529334295,-0.0016034925628847817
6450.485529106218,-0.0016032056628205774
6450.48652887814,-0.0016030764095935803
6450.487528650063,-0.0016030988414106222
6450.488528421986,-0.0016032668469745
6450.489528193909,-0.0016035741707304382
6450.490527965832,-0.0016040144181882652
6450.491527737754,-0.0016045810613145926
6450.492527509677,-0.0016052674439893488
6450.4935272816,-0.0016060667875210806
6450.494527053523,-0.0016069721962155114
6450.495526825445,-0.0016079766629919256
6450.496526597368,-0.0016090730750420628
6450.49752636929,-0.0016102542195263361
6450.498526141213,-0.001611512789302354
6450.4995259131365,-0.0016128413886808996
6450.500525685059,-0.0016142325392047142
6450.501525456982,-0.0016156786854456095
6450.502525228904,-0.0016171722008155765
6450.503525000827,-0.0016187053933876907
6450.50452477275,-0.00162027051172269
6450.505524544673,-0.0016218597506971629
6450.506524316596,-0.001623465257329323
6450.507524088518,-0.0016250791365983763
6450.508523860441,-0.001626693457253506
6450.509523632364,-0.0016283002576085322
6450.510523404287,-0.0016298915513183398
6450.511523176209,-0.0016314593331332027
6450.512522948132,-0.0016329955846271658
6450.513522720054,-0.0016344922798966735
6450.514522491978,-0.0016359413912256583
6450.5155222639005,-0.0016373348947133347
6450.516522035823,-0.0016386647758609573
6450.517521807746,-0.0016399230351138376
6450.518521579668,-0.0016411016933549354
6450.519521351591,-0.0016421927973463732
6450.520521123514,-0.0016431884251152508
6450.521520895437,-0.0016440806912801878
6450.52252066736,-0.0016448617523151024
6450.523520439282,-0.0016455238117468714
6450.524520211205,-0.0016460591252837023
6450.525519983128,-0.0016464600058713249
6450.526519755051,-0.0016467188286744296
6450.527519526973,-0.001646828035981162
6450.528519298896,-0.0016467801420289095
6450.529519070818,-0.0016465677377500475
6450.530518842742,-0.0016461834954367245
6450.5315186146645,-0.0016456201733241415
6450.532518386587,-0.0016448706200920323
6450.53351815851,-0.0016439277792841952
6450.534517930432,-0.001642784693645965
6450.535517702355,-0.0016414345093794466
6450.536517474278,-0.0016398704803162348
6450.537517246201,-0.0016380859720072213
6450.538517018124,-0.0016360744657289558
6450.539516790046,-0.0016338295624059198
6450.540516561969,-0.0016313449864479742
6450.541516333892,-0.0016286145895021452
6450.542516105815,-0.001625632354117862
6450.543515877737,-0.0016223923973247049
6450.54451564966,-0.0016188889741217058
6450.545515421582,-0.0016151164808772575
6450.546515193506,-0.0016110694586387057
6450.5475149654285,-0.001606742596350743
6450.548514737351,-0.0016021307339817653
6450.549514509274,-0.0015972288655573881
6450.550514281196,-0.0015920321421003516
6450.551514053119,-0.0015865358744760604
6450.552513825042,-0.0015807355361430258
6450.553513596965,-0.0015746267658075046
6450.554513368888,-0.00156820536998168
6450.55551314081,-0.0015614673254447646
6450.556512912733,-0.0015544087816064434
6450.557512684656,-0.0015470260627721
6450.558512456579,-0.0015393156703092784
6450.559512228501,-0.0015312742847148175
6450.560512000424,-0.0015228987675820738
6450.561511772346,-0.0015141861634676132
6450.56251154427,-0.0015051337016566974
6450.5635113161925,-0.0014957387978268544
6450.564511088115,-0.0014859990556087602
6450.565510860038,-0.0014759122680436257
6450.56651063196,-0.0014654764189362072
6450.567510403884,-0.00145468968410251
6450.568510175806,-0.0014435504325112035
6450.569509947729,-0.0014320572273177408
6450.570509719651,-0.0014202088267901958
6450.571509491574,-0.0014080041851258884
6450.572509263497,-0.0013954424531579768
6450.57350903542,-0.0013825229789513488
6450.574508807343,-0.0013692453082873113
6450.575508579265,-0.0013556091850367592
6450.576508351188,-0.0013416145514216719
6450.57750812311,-0.0013272615481649437
6450.578507895034,-0.001312550514528671
6450.5795076669565,-0.0012974819882411008
6450.580507438879,-0.0012820567053124802
6450.581507210802,-0.0012662755997400524
6450.582506982724,-0.0012501398031024315
6450.583506754648,-0.001233650644043574
6450.58450652657,-0.0012168096476465622
6450.585506298493,-0.0011996185346974293
6450.586506070415,-0.0011820792208392928
6450.587505842338,-0.0011641938156170992
6450.588505614261,-0.0011459646214133316
6450.589505386184,-0.0011273941322750786
6450.590505158107,-0.0011084850326329178
6450.591504930029,-0.0010892401959121242
6450.592504701952,-0.0010696626830367843
6450.593504473874,-0.001049755740827467
6450.594504245798,-0.001029522800293163
6450.5955040177205,-0.0010089674748182862
6450.596503789643,-0.0009880935582455828
6450.597503561566,-0.0009669050228558849
6450.598503333488,-0.0009454060172457042
6450.599503105412,-0.0009236008641037198
6450.600502877334,-0.0009014940578872481
6450.601502649257,-0.0008790902623997932
6450.602502421179,-0.0008563943082707772
6450.603502193102,-0.0008334111903385517
6450.604501965025,-0.0008101460649378042
6450.605501736948,-0.0007866042470925015
6450.606501508871,-0.0007627912076155705
6450.607501280793,-0.0007387125701165978
6450.608501052716,-0.0007143741079189542
6450.609500824638,-0.000689781740887912
6450.610500596562,-0.0006649415321715108
6450.6115003684845,-0.0006398596848561568
6450.612500140407,-0.0006145425385391761
6450.61349991233,-0.0005889965658207704
6450.614499684252,-0.0005632283687180336
6450.615499456176,-0.0005372446750038598
6450.616499228098,-0.0005110523344737088
6450.617499000021,-0.00048465831514328783
6450.618498771943,-0.00045806969938024807
6450.619498543866,-0.00043129367997298543
6450.620498315789,-0.00040433755613956685
6450.621498087712,-0.00037720872947971044
6450.622497859635,-0.0003499146998726405
6450.623497631557,-0.00032246306132353744
6450.62449740348,-0.000294861497761209
6450.625497175402,-0.00026711777878952813
6450.626496947326,-0.00023923975539510137
6450.6274967192485,-0.00021123535561356195
6450.628496491171,-0.0001831125801568189
6450.629496263094,-0.00015487949800354128
6450.630496035016,-0.00012654424195511767
6450.63149580694,-9.811500415930757e-05
6450.632495578862,-6.960003160379399e-05
6450.633495350785,-4.1007621581856965e-05
6450.634495122707,-1.2346117132415175e-05
6450.63549489463,1.637609754327797e-05
6450.636494666553,4.5150601685946536e-05
6450.637494438476,7.396894260121553e-05
6450.638494210399,0.00010282264029868091
6450.639493982321,0.00013170319214458895
6450.640493754244,0.00016060207752551225
6450.641493526166,0.00018951076252034064
6450.64249329809,0.0002184207045778495
6450.6434930700125,0.0002473233571970759
6450.644492841935,0.0002762101746077208
6450.645492613858,0.0003050726164477943
6450.64649238578,0.0003339021524357146
6450.647492157704,0.00036269026703405864
6450.648491929626,0.0003914284641021497
6450.649491701549,0.00042010827153466675
6450.650491473471,0.00044872124588348384
6450.651491245394,0.0004772589769600012
6450.6524910173175,0.000505713092415309
6450.65349078924,0.0005340752622956231
6450.654490561163,0.0005623372035705404
6450.655490333085,0.0005904906846317628
6450.656490105008,0.0006185275297600306
6450.65748987693,0.0006464396235580919
6450.658489648854,0.0006742189153476129
6450.6594894207765,0.0007018574235280111
6450.660489192699,0.0007293472398952749
6450.661488964622,0.0007566805339189094
6450.662488736544,0.0007838495569752387
6450.663488508468,0.0008108466465353826
6450.66448828039,0.0008376642303063252
6450.665488052313,0.0008642948303235862
6450.666487824235,0.0008907310669940879
6450.667487596158,0.0009169656630878899
6450.6684873680815,0.0009429914476775091
6450.669487140004,0.0009688013600235845
6450.670486911927,0.000994388453405666
6450.671486683849,0.0010197458988969108
6450.672486455772,0.0010448669890814372
6450.673486227694,0.0010697451417130094
6450.674485999618,0.0010943739033135802
6450.6754857715405,0.0011187469527100225
6450.676485543463,0.001142858104507133
6450.677485315386,0.0011667013124947246
6450.678485087308,0.0011902706729863587
6450.679484859232,0.0012135604280870372
6450.680484631154,0.0012365649688869408
6450.681484403077,0.0012592788385780926
6450.682484174999,0.0012816967354905796
6450.683483946922,0.0013038135160446495
6450.6844837188455,0.00132562419761461
6450.685483490768,0.001347123961300006
6450.686483262691,0.0013683081545990893
6450.687483034613,0.0013891722939792183
6450.688482806536,0.0014097120673385575
6450.689482578458,0.0014299233363533413
6450.690482350382,0.0014498021387049657
6450.6914821223045,0.001469344690181295
6450.692481894227,0.0014885473866467582
6450.69348166615,0.0015074068058760683
6450.694481438072,0.0015259197092467084
6450.695481209996,0.0015440830432857024
6450.696480981918,0.0015618939410666343
6450.697480753841,0.0015793497234533988
6450.698480525763,0.0015964479001877748
6450.699480297686,0.001613186170818565
6450.7004800696095,0.001629562425470747
6450.701479841532,0.0016455747454537585
6450.702479613455,0.0016612214037087039
6450.703479385377,0.001676500865094892
6450.7044791573,0.0016914117865166856
6450.705478929223,0.0017059530168921679
6450.706478701146,0.0017201235969656157
6450.7074784730685,0.0017339227589662277
6450.708478244991,0.0017473499261159615
6450.709478016914,0.0017604047119897384
6450.710477788836,0.0017730869197316208
6450.71147756076,0.0017853965411308926
6450.712477332682,0.0017973337555622468
6450.713477104605,0.0018088989287945165
6450.714476876527,0.0018200926116725307
6450.71547664845,0.0018309155386767532
6450.7164764203735,0.001841368626365347
6450.717476192296,0.0018514529717031795
6450.718475964219,0.0018611698502820477
6450.719475736141,0.001870520714436043
6450.720475508064,0.0018795071912555035
6450.721475279986,0.001888131080502516
6450.72247505191,0.0018963943524304436
6450.7234748238325,0.0019042991455095666
6450.724474595755,0.0019118477640606495
6450.725474367678,0.0019190426757980782
6450.7264741396,0.0019258865092841233
6450.727473911524,0.0019323820512958632
6450.728473683446,0.0019385322441063083
6450.729473455369,0.0019443401826813242
6450.730473227291,0.0019498091117940383
6450.731472999214,0.0019549424230585017
6450.7324727711375,0.001959743651884509
6450.73347254306,0.001964216474355616
6450.734472314983,0.001968364704032588
6450.735472086905,0.0019721922886847473
6450.736471858828,0.001975703306951943
6450.737471630751,0.0019789019649401403
6450.738471402674,0.0019817925927538495
6450.7394711745965,0.0019843796409687846
6450.740470946519,0.001986667677048187
6450.741470718442,0.0019886613817061893
6450.742470490364,0.001990365545221418
6450.743470262288,0.001991785063703797
6450.74447003421,0.0019929249353172365
6450.745469806133,0.00199379025646064
6450.746469578055,0.0019943862179094348
6450.747469349978,0.0019947181009196866
6450.7484691219015,0.00199479127329677
6450.749468893824,0.0019946111854305605
6450.750468665747,0.0019941833662991634
6450.751468437669,0.001993513419443301
6450.752468209592,0.0019926070189136484
6450.753467981515,0.0019914699051935825
6450.754467753438,0.0019901078811000246
6450.7554675253605,0.0019885268076652433
6450.756467297283,0.0019867326000026215
6450.757467069206,0.001984731223159454
6450.758466841128,0.0019825286879598214
6450.759466613052,0.001980131046840516
6450.760466384974,0.0019775443896829096
6450.761466156897,0.0019747748396435785
6450.762465928819,0.001971828548986453
6450.763465700742,0.001968711694919279
6450.7644654726655,0.0019654304754372297
6450.765465244588,0.0019619911051766306
6450.766465016511,0.001958399811281889
6450.767464788433,0.0019546628292888735
6450.768464560356,0.001950786399028126
6450.769464332279,0.0019467767605513965
6450.770464104202,0.0019426401500850636
6450.7714638761245,0.001938382796014
6450.772463648047,0.0019340109148993938
6450.77346341997,0.0019295307075339304
6450.774463191892,0.0019249483550376006
6450.775462963816,0.0019202700149972452
6450.776462735738,0.0019155018176527632
6450.777462507661,0.0019106498621327104
6450.778462279583,0.0019057202127418173
6450.779462051506,0.0019007188953027488
6450.7804618234295,0.0018956518935542622
6450.781461595352,0.0018905251456077922
6450.782461367275,0.0018853445404644527
6450.783461139197,0.0018801159145944593
6450.78446091112,0.0018748450485810532
6450.785460683043,0.001869537663831115
6450.786460454966,0.0018641994193547772
6450.7874602268885,0.001858835908616418
6450.788459998811,0.001853452656459459
6450.789459770734,0.0018480551161073379
6450.790459542657,0.0018426486662429132
6450.79145931458,0.001837238608168382
6450.792459086502,0.0018318301630475995
6450.793458858425,0.0018264284692325432
6450.794458630347,0.0018210385796755808
6450.79545840227,0.001815665459429234
6450.7964581741935,0.0018103139832352367
6450.797457946116,0.0018049889332048114
6450.798457718039,0.0017996949965921516
6450.799457489961,0.0017944367636630524
6450.800457261884,0.0017892187256604286
6450.801457033807,0.0017840452728681735
6450.80245680573,0.0017789206927744234
6450.8034565776525,0.001773849168334875
6450.804456349575,0.0017688347763363797
6450.805456121498,0.0017638814858606372
6450.806455893421,0.0017589931568474661
6450.807455665344,0.001754173538756905
6450.808455437266,0.0017494262693293046
6450.809455209189,0.001744754873442612
6450.810454981111,0.0017401627620661486
6450.811454753034,0.001735653231310351
6450.8124545249575,0.0017312294615721025
6450.81345429688,0.001726894516775467
6450.814454068803,0.0017226513437077961
6450.815453840725,0.0017185027714513156
6450.816453612648,0.00171445151091037
6450.817453384571,0.0017105001544344836
6450.818453156494,0.0017066511755372351
6450.8194529284165,0.001702906928710652
6450.820452700339,0.0016992696493343918
6450.821452472262,0.0016957414536784578
6450.822452244185,0.0016923243389976202
6450.823452016108,0.0016890201837151347
6450.82445178803,0.0016858307476928303
6450.825451559953,0.0016827576725841923
6450.826451331875,0.0016798024822667374
6450.827451103798,0.00167696658334973
6450.8284508757215,0.0016742512657531656
6450.829450647644,0.0016716577033538598
6450.830450419567,0.0016691869546944884
6450.831450191489,0.0016668399637514949
6450.832449963412,0.0016646175607579383
6450.833449735335,0.0016625204630775897
6450.834449507258,0.001660549276126866
6450.8354492791805,0.0016587044943414883
6450.836449051103,0.0016569865021850748
6450.837448823026,0.0016553955751971582
6450.838448594949,0.0016539318810783632
6450.839448366872,0.0016525954808106543
6450.840448138794,0.0016513863298106204
6450.841447910717,0.0016503042791137608
6450.842447682639,0.0016493490765876432
6450.843447454562,0.0016485203681716927
6450.8444472264855,0.001647817699141264
6450.845446998408,0.0016472405153935838
6450.846446770331,0.0016467881647531442
6450.847446542253,0.0016464598982941898
6450.848446314176,0.0016462548716780492
6450.849446086099,0.0016461721465031904
6450.850445858022,0.0016462106916659866
6450.8514456299445,0.0016463693847302754
6450.852445401867,0.0016466470133038923
6450.85344517379,0.001647042276420496
6450.854444945713,0.0016475537859251912
6450.855444717636,0.0016481800678626727
6450.856444489558,0.0016489195638668224
6450.857444261481,0.001649770632550902
6450.858444033403,0.001650731550897665
6450.859443805326,0.0016518005156488879
6450.8604435772495,0.001652975644693971
6450.861443349172,0.0016542549784574383
6450.862443121095,0.0016556364812853144
6450.863442893017,0.0016571180428305258
6450.86444266494,0.0016586974794376055
6450.865442436863,0.0016603725355270704
6450.866442208786,0.0016621408849798677
6450.8674419807085,0.0016640001325222433
6450.868441752631,0.0016659478151112976
6450.869441524554,0.00166798140332138
6450.870441296477,0.001670098302731352
6450.8714410684,0.001672295855312625
6450.872440840322,0.0016745713408177832
6450.873440612245,0.0016769219781695428
6450.874440384167,0.0016793449268497635
6450.875440156091,0.001681837288288266
6450.8764399280135,0.0016843961072512896
6450.877439699936,0.0016870183732295512
6450.878439471859,0.0016897010218260185
6450.879439243781,0.0016924409361436872
6450.880439015704,0.0016952349481738056
6450.881438787627,0.0016980798401851614
6450.88243855955,0.00170097234611521
6450.8834383314725,0.0017039091529639724
6450.884438103395,0.001706886902191778
6450.885437875318,0.0017099021911220233
6450.886437647241,0.0017129515743501721
6450.887437419164,0.0017160315651602405
6450.888437191086,0.0017191386369499653
6450.889436963009,0.0017222692246657938
6450.890436734931,0.0017254197262487482
6450.891436506855,0.0017285865040921067
6450.8924362787775,0.0017317658865117509
6450.8934360507,0.0017349541692299267
6450.894435822623,0.0017381476168730496
6450.895435594545,0.001741342464484086
6450.896435366468,0.0017445349190499061
6450.897435138391,0.0017477211610438766
6450.898434910314,0.0017508973459838151
6450.8994346822365,0.001754059606005283
6450.900434454159,0.001757204051450074
6450.901434226082,0.0017603267724696605
6450.902433998005,0.0017634238406432836
6450.903433769928,0.0017664913106103437
6450.90443354185,0.0017695252217167206
6450.905433313773,0.0017725215996746847
6450.906433085695,0.0017754764582360865
6450.907432857619,0.0017783858008785741
6450.9084326295415,0.0017812456225046376
6450.909432401464,0.0017840519111533325
6450.910432173387,0.0017868006497245763
6450.911431945309,0.0017894878177159388
6450.912431717232,0.001792109392971887
6450.913431489155,0.001794661353445466
6450.914431261078,0.0017971396789724203
6450.9154310330005,0.0017995403530577663
6450.916430804923,0.0018018593646748527
6450.917430576846,0.0018040927100769627
6450.918430348769,0.0018062363946215543
6450.919430120692,0.0018082864346072752
6450.920429892614,0.0018102388591239725
6450.921429664537,0.0018120897119159687
6450.922429436459,0.0018138350532589376
6450.923429208383,0.0018154709618507557
6450.9244289803055,0.001816993536716722
6450.925428752228,0.0018183988991295446
6450.926428524151,0.0018196831945444779
6450.927428296073,0.001820842594549975
6450.928428067997,0.0018218732988341702
6450.929427839919,0.0018227715371674372
6450.930427611842,0.0018235335714011731
6450.9314273837645,0.0018241556974828222
6450.932427155687,0.0018246342474869898
6450.93342692761,0.0018249655916623164
6450.934426699533,0.0018251461404935857
6450.935426471456,0.0018251723467783687
6450.936426243378,0.001825040707717347
6450.937426015301,0.0018247477670173336
6450.938425787223,0.0018242901170059417
6450.939425559147,0.0018236644007568034
6450.9404253310695,0.0018228673142242325
6450.941425102992,0.001821895608386243
6450.942424874915,0.0018207460913948598
6450.943424646837,0.001819415630732696
6450.944424418761,0.0018179011553747977
6450.945424190683,0.0018161996579547917
6450.946423962606,0.0018143081969343884
6450.9474237345285,0.0018122238987753267
6450.948423506451,0.0018099439601128456
6450.949423278374,0.001807465649929781
6450.950423050297,0.0018047863117303601
6450.95142282222,0.001801903365712726
6450.952422594142,0.0017988143109391595
6450.953422366065,0.001795516727502863
6450.954422137987,0.0017920082786900657
6450.955421909911,0.0017882867131360854
6450.9564216818335,0.0017843498669738408
6450.957421453756,0.0017801956659731274
6450.958421225679,0.0017758221276687363
6450.959420997601,0.0017712273634752137
6450.960420769525,0.0017664095807857212
6450.961420541447,0.001761367085052103
6450.96242031337,0.0017560982818429296
6450.9634200852925,0.0017506016788760067
6450.964419857215,0.0017448758880216292
6450.965419629138,0.0017389196272727607
6450.966419401061,0.0017327317226782878
6450.967419172984,0.0017263111102355354
6450.968418944906,0.0017196568377383017
6450.969418716829,0.0017127680665767712
6450.970418488751,0.0017056440734857703
6450.971418260675,0.001698284252237939
6450.9724180325975,0.0016906881152785075
6450.97341780452,0.0016828552952984656
6450.974417576443,0.001674785546743
6450.975417348365,0.0016664787472521069
6450.976417120289,0.001657934899030283
6450.977416892211,0.0016491541301421298
6450.978416664134,0.0016401366957306427
6450.979416436056,0.001630882979154907
6450.980416207979,0.0016213934930439627
6450.981415979902,0.00161166888026372
6450.982415751825,0.0016017099147940396
6450.983415523748,0.0015915175025133898
6450.98441529567,0.0015810926818888161
6450.985415067593,0.0015704366245692994
6450.986414839515,0.0015595506358809142
6450.987414611439,0.0015484361552225258
6450.9884143833615,0.001537094756361076
6450.989414155284,0.0015255281476257948
6450.990413927207,0.001513738172000946
6450.991413699129,0.001501726807116914
6450.992413471053,0.0014894961651396176
6450.993413242975,0.0014770484925583419
6450.994413014898,0.0014643861698721776
6450.99541278682,0.001451511711175296
6450.996412558743,0.001438427763641346
6450.997412330666,0.0014251371069073217
6450.998412102589,0.0014116426523573262
6450.999411874512,0.001397947442306759
6451.000411646434,0.0013840546490875513
6451.001411418357,0.0013699675740351798
6451.002411190279,0.001355689646378303
6451.003410962203,0.0013412244220319719
6451.0044107341255,0.0013265755822954612
6451.005410506048,0.0013117469324558663
6451.006410277971,0.001296742400298675
6451.007410049893,0.001281566034526579
6451.008409821817,0.0012662220030878364
6451.009409593739,0.0012507145914155264
6451.010409365662,0.0012350482005790545
6451.011409137584,0.001219227345349292
6451.012408909507,0.0012032566521787407
6451.013408681431,0.0011871408570981346
6451.014408453353,0.0011708848035309112
6451.015408225276,0.0011544934400270102
6451.016407997198,0.001137971817917486
6451.017407769121,0.0011213250888914622
6451.018407541043,0.0011045585024970052
6451.019407312967,0.0010876774035675355
6451.0204070848895,0.0010706872295754542
6451.021406856812,0.001053593507914722
6451.022406628735,0.001036401853114177
6451.023406400657,0.0010191179639834377
6451.024406172581,0.001001747620693307
6451.025405944503,0.0009842966817926256
6451.026405716426,0.0009667710811635906
6451.027405488348,0.0009491768249175836
6451.028405260271,0.0009315199882336032
6451.0294050321945,0.0009138067121414279
6451.030404804117,0.0008960432002516658
6451.03140457604,0.0008782357154348713
6451.032404347962,0.0008603905764519334
6451.033404119885,0.0008425141545379542
6451.034403891807,0.0008246128699418556
6451.035403663731,0.0008066931884239661
6451.0364034356535,0.0007887616177138474
6451.037403207576,0.0007708247039306229
6451.038402979499,0.0007528890279680736
6451.039402751421,0.0007349612018467612
6451.040402523345,0.0007170478650354341
6451.041402295267,0.0006991556807439427
6451.04240206719,0.0006812913321898414
6451.043401839112,0.0006634615188407761
6451.044401611035,0.0006456729526346644
6451.045401382959,0.000627932354179586
6451.046401154881,0.0006102464489352288
6451.047400926804,0.0005926219633776887
6451.048400698726,0.0005750656211494021
6451.049400470649,0.0005575841391959991
6451.050400242571,0.0005401842238919068
6451.051400014495,0.0005228725671565934
6451.0523997864175,0.0005056558425634144
6451.05339955834,0.0004885407014430994
6451.054399330263,0.0004715337689839613
6451.055399102185,0.0004546416403309523
6451.056398874109,0.0004378708766857
6451.057398646031,0.0004212280014096469
6451.058398417954,0.00040471949613240686
6451.059398189876,0.00038835179686742783
6451.060397961799,0.0003721312901370355
6451.0613977337225,0.0003560643091089125
6451.062397505645,0.0003401571297460623
6451.063397277568,0.0003244159669723024
6451.06439704949,0.00030884697085533546
6451.065396821413,0.0002934562228094379
6451.066396593336,0.0002782497318197839
6451.067396365259,0.00026323343069038145
6451.0683961371815,0.00024841317231754343
6451.069395909104,0.0002337947259907632
6451.070395681027,0.00021938377372280978
6451.071395452949,0.00020518590661081727
6451.072395224873,0.00019120662123011092
6451.073394996795,0.00017745131606248843
6451.074394768718,0.00016392528796065786
6451.07539454064,0.00015063372865051463
6451.076394312563,0.00013758172127292066
6451.077394084487,0.00012477423696662424
6451.078393856409,0.00011221613149393327
6451.079393628332,9.99121419107265e-05
6451.080393400254,8.786688328235951e-05
6451.081393172177,7.608484544699392e-05
6451.082392944099,6.45703898278496e-05
6451.083392716023,5.332774629584926e-05
6451.0843924879455,4.2361010084091795e-05
6451.085392259868,3.167413875555571e-05
6451.086392031791,2.1270949225397707e-05
6451.087391803713,1.115511483917348e-05
6451.088391575637,1.330162508270706e-06
6451.089391347559,-8.200530096191776e-06
6451.090391119482,-1.7433737289775325e-05
6451.091390891404,-2.636638806024176e-05
6451.092390663327,-3.499556869099197e-05
6451.0933904352505,-4.331852532123559e-05
6451.094390207173,-5.133266644170641e-05
6451.095389979096,-5.9035565324745234e-05
6451.096389751018,-6.642496238758625e-05
6451.097389522941,-7.349876748770126e-05
6451.098389294864,-8.02550621490756e-05
6451.099389066787,-8.669210171830835e-05
6451.1003888387095,-9.280831744944681e-05
6451.101388610632,-9.860231851648016e-05
6451.102388382555,-0.00010407289395242766
6451.103388154477,-0.00010921901451396105
6451.104387926401,-0.00011403983447050068
6451.105387698323,-0.00011853469331672239
6451.106387470246,-0.00012270311740741034
6451.107387242168,-0.00012654482151358624
6451.108387014091,-0.0001300597102988381
6451.109386786015,-0.00013324787971475926
6451.110386557937,-0.00013610961831439275
6451.11138632986,-0.00013864540848255956
6451.112386101782,-0.0001408559275819295
6451.113385873705,-0.00014274204901367586
6451.114385645628,-0.00014430484319153972
6451.115385417551,-0.00014554557842812312
6451.1163851894735,-0.00014646572173222956
6451.117384961396,-0.0001470669395160787
6451.118384733319,-0.00014735109821123498
6451.119384505241,-0.0001473202647921095
6451.120384277165,-0.0001469767072059199
6451.121384049087,-0.0001463228947080211
6451.12238382101,-0.00014536149810155064
6451.123383592932,-0.0001440953898803593
6451.124383364855,-0.0001425276442742211
6451.1253831367785,-0.00014066153719533678
6451.126382908701,-0.0001385005460851618
6451.127382680624,-0.00013604834966060418
6451.128382452546,-0.00013330882755864705
6451.129382224469,-0.0001302860598784466
6451.130381996392,-0.0001269843266199378
6451.131381768315,-0.00012340810701794028
6451.1323815402375,-0.00011956207877070416
6451.13338131216,-0.00011545111716177681
6451.134381084083,-0.00011108029407401938
6451.135380856005,-0.00010645487689455924
6451.136380627929,-0.00010158032730943409
6451.137380399851,-9.646229998666874e-05
6451.138380171774,-9.110664114653349e-05
6451.139379943696,-8.551938701777969e-05
6451.140379715619,-7.970676217874313e-05
6451.141379487543,-7.367517778235241e-05
6451.142379259465,-6.743122966426212e-05
6451.143379031388,-6.0981696333532886e-05
6451.14437880331,-5.4333536845481944e-05
6451.145378575233,-4.7493888556521426e-05
6451.146378347156,-4.047006476098445e-05
6451.147378119079,-3.3269552210112214e-05
6451.1483778910015,-2.5900008513535565e-05
6451.149377662924,-1.836925942372471e-05
6451.150377434847,-1.0685296003997458e-05
6451.15137720677,-2.856271680769105e-06
6451.152376978693,5.1095008191991794e-06
6451.153376750615,1.3203552645736576e-05
6451.154376522538,2.1417262115515614e-05
6451.15537629446,2.9741858114707623e-05
6451.156376066383,3.81684236130819e-05
6451.1573758383065,4.668789928855264e-05
6451.158375610229,5.5291087261162946e-05
6451.159375382152,6.396865493552134e-05
6451.160375154074,7.271113895077625e-05
6451.161374925997,8.15089492373112e-05
6451.16237469792,9.035237317944377e-05
6451.163374469843,9.923157988350352e-05
6451.1643742417655,0.00010813662455074349
6451.165374013688,0.00011705745295460246
6451.166373785611,0.00012598390602186656
6451.167373557534,0.00013490572451726392
6451.168373329457,0.00014381255383094828
6451.169373101379,0.00015269394886817609
6451.170372873302,0.00016153937904026208
6451.171372645224,0.00017033823335562914
6451.172372417147,0.0001790798256094877
6451.173372189071,0.00018775339967041832
6451.174371960993,0.00019634813486190902
6451.175371732916,0.00020485315143672027
6451.176371504838,0.00021325751614180368
6451.177371276761,0.00022155024787136424
6451.178371048684,0.00022972032340551048
6451.179370820607,0.00023775668323175542
6451.1803705925295,0.0002456482374463858
6451.181370364452,0.00025338387173239795
6451.182370136375,0.0002609524534103172
6451.183369908298,0.0002683428375578121
6451.184369680221,0.0002755438731936261
6451.185369452143,0.0002825444095209996
6451.186369224066,0.00028933330222542217
6451.187368995988,0.00029589941982120966
6451.188368767911,0.00030223165004101453
6451.1893685398345,0.0003083189062619684
6451.190368311757,0.0003141501339617914
6451.19136808368,0.00031971431719795705
6451.192367855602,0.00032500048510292445
6451.193367627525,0.0003299977183885566
6451.194367399448,0.0003346951558530949
6451.195367171371,0.00033908200088440983
6451.1963669432935,0.0003431475279536403
6451.197366715216,0.00034688108909371326
6451.198366487139,0.00035027212035756603
6451.199366259062,0.00035331014825115
6451.200366030985,0.0003559847961364835
6451.201365802907,0.0003582857906001734
6451.20236557483,0.00036020296778295615
6451.203365346752,0.0003617262796659261
6451.204365118675,0.000362845800309187
6451.205364890599,0.0003635517320386657
6451.206364662521,0.00036383441157676437
6451.207364434444,0.0003636843161124253
6451.208364206366,0.0003630920693060779
6451.209363978289,0.0003620484472248831
6451.210363750212,0.00036054438420370755
6451.211363522135,0.00035857097862738405
6451.2123632940575,0.00035611949863004135
6451.21336306598,0.00035318138770761145
6451.214362837903,0.0003497482702400164
6451.215362609826,0.00034581195691997025
6451.216362381749,0.0003413644500857825
6451.217362153671,0.0003363979489559945
6451.218361925594,0.0003309048547641129
6451.219361697516,0.00032487777579211035
6451.220361469439,0.0003183095323017467
6451.2213612413625,0.0003111931613631171
6451.222361013285,0.0003035219215801663
6451.223360785208,0.00029528929771321596
6451.22436055713,0.0002864890051988293
6451.225360329053,0.00027711499456756434
6451.226360100976,0.0002671614557603358
6451.227359872899,0.0002566228223442015
6451.2283596448215,0.0002454937756284228
6451.229359416744,0.0002337692486816255
6451.230359188667,0.00022144443025083168
6451.23135896059,0.00020851476858305902
6451.232358732513,0.00019497597515010103
6451.233358504435,0.00018082402827700877
6451.234358276358,0.00016605517667467028
6451.23535804828,0.00015066594287670572
6451.236357820204,0.00013465312658064447
6451.237357592127,0.00011801380789302488
6451.238357364049,0.00010074535047766471
6451.239357135972,8.284540460590805e-05
6451.240356907894,6.431191010718188e-05
6451.241356679817,4.5143099217717346e-05
6451.24235645174,2.533749932484073e-05
6451.243356223663,4.893935603847575e-06
6451.2443559955855,-1.618846645584358e-05
6451.245355767508,-3.791027863880654e-05
6451.246355539431,-6.0271767709719946e-05
6451.247355311354,-8.327289324131864e-05
6451.248355083277,-0.00010691330556807393
6451.249354855199,-0.00013119234386948914
6451.250354627122,-0.00015610903438686557
6451.251354399044,-0.0001816620887773492
6451.252354170968,-0.0002078499026090095
6451.2533539428905,-0.00023467055400061183
6451.254353714813,-0.0002621218024096306
6451.255353486736,-0.0002902010875719206
6451.256353258658,-0.0003189055285963582
6451.257353030581,-0.0003482319232176947
6451.258352802504,-0.0003781767472108442
6451.259352574427,-0.0004087361539698507
6451.2603523463495,-0.0004399059742548322
6451.261352118272,-0.00047168171611028516
6451.262351890195,-0.000504058564958226
6451.263351662118,-0.0005370313838697231
6451.264351434041,-0.0005705947140184137
6451.265351205963,-0.0006047427753195738
6451.266350977886,-0.0006394694672582253
6451.267350749808,-0.0006747683699096323
6451.268350521732,-0.0007106327451553734
6451.269350293655,-0.0007470555380980155
6451.270350065577,-0.0007840293786772366
6451.2713498375,-0.0008215465834900519
6451.272349609422,-0.0008595991578175488
6451.273349381345,-0.0008981787978601969
6451.274349153268,-0.0009372768931833557
6451.275348925191,-0.0009768845293740731
6451.2763486971135,-0.0010169924909096872
6451.277348469036,-0.0010575912642381844
6451.278348240959,-0.0010986710410697358
6451.279348012882,-0.001140221721878357
6451.280347784805,-0.0011822329196121961
6451.281347556727,-0.0012246939636105436
6451.28234732865,-0.0012675939037252732
6451.283347100572,-0.0013109215146440512
6451.284346872496,-0.001354665300412317
6451.2853466444185,-0.0013988134991507449
6451.286346416341,-0.00144335408796462
6451.287346188264,-0.0014882747880413398
6451.288345960186,-0.0015335630699320243
6451.28934573211,-0.0015792061590130043
6451.290345504032,-0.0016251910411227471
6451.291345275955,-0.0016715044683695678
6451.2923450478775,-0.0017181329651052844
6451.2933448198,-0.0017650628340598262
6451.294344591723,-0.001812280162631694
6451.295344363646,-0.0018597708293291413
6451.296344135569,-0.001907520510357025
6451.297343907491,-0.001955514686344449
6451.298343679414,-0.0020037386492086267
6451.299343451336,-0.0020521775091507655
6451.30034322326,-0.0021008162017801682
6451.301342995183,-0.0021496394953631286
6451.302342767105,-0.002198631998193479
6451.303342539028,-0.002247778166081847
6451.30434231095,-0.0022970623099607345
6451.305342082874,-0.0023464686036025013
6451.306341854796,-0.0023959810914471395
6451.307341626719,-0.002445583696536492
6451.3083413986415,-0.0024952602285512058
6451.309341170564,-0.0025449943919463574
6451.310340942487,-0.002594769794181309
6451.31134071441,-0.002644569954039022
6451.312340486333,-0.002694378310029771
6451.313340258255,-0.0027441782288739253
6451.314340030178,-0.002793953014058262
6451.3153398021,-0.002843685914460049
6451.316339574024,-0.0028933601330330037
6451.3173393459465,-0.0029429588355490664
6451.318339117869,-0.002992465159389837
6451.319338889792,-0.0030418622223814524
6451.320338661714,-0.0030911331316666093
6451.321338433638,-0.0031402609926074083
6451.32233820556,-0.003189228917712616
6451.323337977483,-0.0032380200355828503
6451.3243377494055,-0.0032866174998670843
6451.325337521328,-0.003335004498223716
6451.326337293251,-0.003383164261279316
6451.327337065174,-0.003431080071578016
6451.328336837097,-0.003478735272514401
6451.329336609019,-0.003526113277242662
6451.330336380942,-0.003573197577554708
6451.331336152864,-0.0036199717527198986
6451.332335924788,-0.0036664194782790303
6451.333335696711,-0.0037125245347851784
6451.334335468633,-0.003758270816484004
6451.335335240556,-0.003803642339926084
6451.336335012478,-0.003848623252503836
6451.337334784402,-0.003893197840905623
6451.338334556324,-0.003937350539479704
6451.339334328247,-0.0039810659385007665
6451.3403341001695,-0.004024328792331943
6451.341333872092,-0.004067124027475311
6451.342333644015,-0.004109436750504022
6451.343333415938,-0.004151252255869244
6451.344333187861,-0.0041925560335751505
6451.345332959783,-0.004233333776715172
6451.346332731706,-0.004273571388862593
6451.347332503628,-0.004313254991308454
6451.348332275552,-0.004352370930139513
6451.3493320474745,-0.004390905783148779
6451.350331819397,-0.004428846366570941
6451.35133159132,-0.004466179741634827
6451.352331363242,-0.004502893220924866
6451.353331135166,-0.004538974374543408
6451.354330907088,-0.004574411036065676
6451.355330679011,-0.0046091913082790936
6451.3563304509335,-0.004643303568698672
6451.357330222856,-0.004676736474850161
6451.358329994779,-0.004709478969312706
6451.359329766702,-0.0047415202845127865
6451.360329538625,-0.004772849947261311
6451.361329310547,-0.004803457783025895
6451.36232908247,-0.0048333339199305774
6451.363328854392,-0.004862468792475583
6451.364328626316,-0.004890853144970193
6451.365328398239,-0.004918478034672322
6451.366328170161,-0.004945334834628991
6451.367327942084,-0.004971415236212452
6451.368327714006,-0.004996711251347297
6451.36932748593,-0.005021215214424403
6451.370327257852,-0.005044919783898034
6451.371327029775,-0.005067817943562886
6451.372326801697,-0.005089903003508336
6451.37332657362,-0.005111168600747748
6451.374326345544,-0.005131608699521322
6451.375326117466,-0.0051512175912716675
6451.376325889389,-0.005169989894292034
6451.377325661311,-0.00518792055304785
6451.378325433234,-0.005205004837172844
6451.379325205156,-0.005221238340141628
6451.38032497708,-0.005236616977620985
6451.3813247490025,-0.0052511369855024964
6451.382324520925,-0.005264794917619438
6451.383324292848,-0.005277587643151293
6451.38432406477,-0.00528951234371971
6451.385323836694,-0.0053005665101804236
6451.386323608616,-0.005310747939116446
6451.387323380539,-0.005320054729038788
6451.388323152461,-0.005328485276301982
6451.389322924384,-0.005336038270742792
6451.390322696308,-0.005342712691051631
6451.39132246823,-0.0053485077998873904
6451.392322240153,-0.005353423138747622
6451.393322012075,-0.0053574585226072585
6451.394321783998,-0.005360614034340234
6451.39532155592,-0.005362890018939643
6451.396321327844,-0.005364287077553142
6451.397321099767,-0.005364806061351387
6451.398320871689,-0.00536444806524812
6451.399320643612,-0.005363214421491309
6451.400320415534,-0.005361106693145231
6451.401320187458,-0.005358126667483782
6451.40231995938,-0.005354276349315456
6451.403319731303,-0.005349557954260514
6451.404319503225,-0.005343973902000729
6451.405319275148,-0.005337526809521802
6451.406319047072,-0.005330219484368212
6451.407318818994,-0.005322054917929639
6451.408318590917,-0.005313036278777472
6451.409318362839,-0.005303166906069193
6451.410318134762,-0.005292450303037607
6451.411317906684,-0.0052808901305809895
6451.412317678608,-0.005268490200969344
6451.4133174505305,-0.005255254471680942
6451.414317222453,-0.005241187039382343
6451.415316994376,-0.005226292134064147
6451.416316766298,-0.005210574113343692
6451.417316538222,-0.00519403745694493
6451.418316310144,-0.005176686761364625
6451.419316082067,-0.005158526734732919
6451.420315853989,-0.005139562191875165
6451.421315625912,-0.005119798049580761
6451.422315397836,-0.005099239322083563
6451.423315169758,-0.005077891116757353
6451.424314941681,-0.005055758630028722
6451.425314713603,-0.005032847143508681
6451.426314485526,-0.005009162020343337
6451.427314257449,-0.0049847087017830406
6451.428314029372,-0.004959492703968553
6451.429313801295,-0.004933519614932086
6451.430313573217,-0.004906795091810355
6451.43131334514,-0.0048793248582661986
6451.432313117062,-0.004851114702114802
6451.433312888986,-0.004822170473150094
6451.434312660908,-0.004792498081166492
6451.435312432831,-0.004762103494170876
6451.436312204753,-0.004730992736779427
6451.437311976676,-0.00469917188879379
6451.4383117486,-0.004666647083950922
6451.439311520522,-0.004633424508840891
6451.440311292445,-0.004599510401986843
6451.441311064367,-0.0045649110530813575
6451.44231083629,-0.004529632802373362
6451.443310608212,-0.004493682040199807
6451.444310380136,-0.004457065206656258
6451.4453101520585,-0.004419788791400578
6451.446309923981,-0.0043818593335838265
6451.447309695904,-0.004343283421902468
6451.448309467826,-0.004304067694765985
6451.44930923975,-0.0042642188405739604
6451.450309011672,-0.00422374359809668
6451.451308783595,-0.004182648756953381
6451.452308555517,-0.004140941158182263
6451.45330832744,-0.004098627694896465
6451.454308099364,-0.004055715313020265
6451.455307871286,-0.004012211012099853
6451.456307643209,-0.003968121846183118
6451.457307415131,-0.00392345492476298
6451.458307187054,-0.0038782174137788994
6451.459306958977,-0.003832416536671286
6451.4603067309,-0.0037860595754836547
6451.461306502823,-0.003739153872007426
6451.462306274745,-0.0036917068289643615
6451.463306046668,-0.003643725911221683
6451.46430581859,-0.003595218647034947
6451.465305590514,-0.0035461926293137427
6451.466305362436,-0.003496655516905284
6451.467305134359,-0.0034466150358909756
6451.468304906281,-0.0033960789808910093
6451.469304678204,-0.003345055216372085
6451.470304450128,-0.003293551677953364
6451.47130422205,-0.0032415763737058054
6451.472303993973,-0.0031891373854400933
6451.473303765895,-0.003136242869978427
6451.474303537818,-0.0030829010604055537
6451.475303309741,-0.003029120267294554
6451.476303081664,-0.0029749088799030073
6451.4773028535865,-0.002920275367335293
6451.478302625509,-0.0028652282796668566
6451.479302397432,-0.002809776249026347
6451.480302169354,-0.0027539279906315874
6451.481301941278,-0.0026976923037753914
6451.4823017132,-0.002641078072757299
6451.483301485123,-0.002584094267757412
6451.484301257045,-0.002526749945648623
6451.485301028968,-0.0024690542507436247
6451.486300800892,-0.002411016415473203
6451.487300572814,-0.0023526457609924253
6451.488300344737,-0.0022939516977114336
6451.489300116659,-0.002234943725747628
6451.490299888582,-0.0021756314352961
6451.491299660505,-0.0021160245069152357
6451.492299432428,-0.0020561327117244836
6451.493299204351,-0.0019959659115113726
6451.494298976273,-0.001935534058745004
6451.495298748196,-0.0018748471964933815
6451.496298520118,-0.0018139154582421085
6451.497298292042,-0.001752749067612135
6451.498298063964,-0.0016913583379743467
6451.499297835887,-0.0016297536719588972
6451.500297607809,-0.0015679455608573318
6451.501297379732,-0.0015059445839157462
6451.502297151656,-0.0014437614075175178
6451.503296923578,-0.0013814067842544777
6451.504296695501,-0.001318891551885777
6451.505296467423,-0.0012562266321840456
6451.506296239346,-0.001193423029668764
6451.507296011269,-0.001130491830227054
6451.508295783192,-0.0010674441996223571
6451.5092955551145,-0.0010042913818917379
6451.510295327037,-0.0009410446976327951
6451.51129509896,-0.000877715542181434
6451.512294870883,-0.0008143153836820295
6451.513294642806,-0.0007508557610518576
6451.514294414728,-0.0006873482818421122
6451.515294186651,-0.0006238046199983579
6451.516293958573,-0.0005602365135238767
6451.517293730496,-0.000496655762049999
6451.51829350242,-0.00043307422431811625
6451.519293274342,-0.00036950381557856766
6451.520293046265,-0.0003059565049119273
6451.521292818187,-0.00024244431247836103
6451.52229259011,-0.00017897930670067393
6451.523292362033,-0.00011557360138646984
6451.524292133956,-5.2239352794522206e-05
6451.525291905879,1.1011243349944423e-05
6451.526291677801,7.41659548868104e-05
6451.527291449724,0.00013721251629567085
6451.528291221647,0.00020013863181018803
6451.52929099357,0.0002629319785693401
6451.530290765492,0.00032558020980316975
6451.531290537415,0.00038807095805107013
6451.532290309337,0.0004503918384110557
6451.53329008126,0.0005125304518188497
6451.534289853184,0.0005744743883559661
6451.535289625106,0.0006362112305862641
6451.536289397029,0.0006977285569207027
6451.537289168951,0.0007590139450102571
6451.538288940874,0.0008200549751671626
6451.539288712797,0.0008808392338148801
6451.54028848472,0.0009413543169673926
6451.5412882566425,0.0010015878337386495
6451.542288028565,0.0010615274098831576
6451.543287800488,0.001121160691368847
6451.544287572411,0.0011804753479834138
6451.545287344334,0.001239459076975345
6451.546287116256,0.0012980996067307534
6451.547286888179,0.0013563847004869904
6451.548286660101,0.0014143021600837565
6451.549286432024,0.0014718398297520977
6451.550286203948,0.0015289855999412706
6451.55128597587,0.0015857274111829754
6451.552285747793,0.0016420532579919296
6451.553285519715,0.001697951192801219
6451.554285291638,0.0017534093299303385
6451.555285063561,0.001808415849583365
6451.556284835484,0.0018629590018743372
6451.557284607407,0.0019170271108766423
6451.558284379329,0.001970608578693065
6451.559284151252,0.002023691889543111
6451.560283923175,0.0020762656138642232
6451.561283695098,0.002128318412423503
6451.56228346702,0.002179839040436463
6451.563283238943,0.002230816351689135
6451.564283010865,0.0022812393026595316
6451.565282782788,0.0023310969566340805
6451.566282554712,0.0023803784878142957
6451.567282326634,0.002429073185408758
6451.568282098557,0.002477170457705467
6451.569281870479,0.0025246598361198538
6451.570281642402,0.002571530979214102
6451.571281414325,0.002617773676683878
6451.572281186248,0.0026633778533090144
6451.5732809581705,0.002708333572865112
6451.574280730093,0.002752631041993394
6451.575280502016,0.0027962606140264933
6451.576280273939,0.0028392127927682103
6451.577280045862,0.0028814782362256083
6451.578279817784,0.0029230477602920414
6451.579279589707,0.0029639123423798575
6451.580279361629,0.003004063125001497
6451.581279133552,0.003043491419297577
6451.582278905476,0.003082188708510279
6451.583278677398,0.0031201466514001026
6451.584278449321,0.0031573570856037953
6451.585278221243,0.0031938120309311755
6451.586277993166,0.003229503692598545
6451.587277765089,0.0032644244643966107
6451.588277537012,0.0032985669317911097
6451.589277308935,0.0033319238749546986
6451.590277080857,0.0033644882717290586
6451.59127685278,0.003396253300516515
6451.592276624703,0.00342721234310079
6451.593276396626,0.003457358987396772
6451.594276168548,0.0034866870301294285
6451.595275940471,0.0035151904794421657
6451.596275712393,0.003542863557435099
6451.597275484317,0.003569700702633807
6451.59827525624,0.0035956965723892317
6451.599275028162,0.0036208460452094565
6451.600274800085,0.0036451442230241164
6451.601274572007,0.003668586433382282
6451.60227434393,0.003691168231584699
6451.603274115853,0.003712885402751335
6451.604273887776,0.0037337339638252266
6451.6052736596985,0.003753710165513671
6451.606273431621,0.003772810494167763
6451.607273203544,0.0037910316736012683
6451.608272975467,0.0038083706668497067
6451.60927274739,0.0038248246778704374
6451.610272519312,0.0038403911531843977
6451.611272291235,0.0038550677834600245
6451.612272063157,0.003868852505039771
6451.613271835081,0.003881743501409528
6451.614271607004,0.0038937392046111503
6451.615271378926,0.003904838296598234
6451.616271150849,0.003915039710535201
6451.617270922771,0.00392434263203971
6451.618270694694,0.0039327465003683735
6451.619270466617,0.003940251009545747
6451.62027023854,0.003946856109436524
6451.621270010463,0.003952562006760933
6451.622269782385,0.00395736916605333
6451.623269554308,0.0039612783105641165
6451.624269326231,0.003964290423105122
6451.625269098154,0.0039664067468386235
6451.626268870076,0.003967628786010088
6451.627268641999,0.0039679583066244825
6451.628268413921,0.003967397337065633
6451.629268185845,0.003965948168657582
6451.630267957768,0.00396361335616623
6451.63126772969,0.003960395718238748
6451.632267501613,0.00395629833777745
6451.633267273535,0.003951324562243973
6451.634267045458,0.003945478003888927
6451.635266817381,0.003938762539901546
6451.636266589304,0.003931182312473553
6451.6372663612265,0.003922741728771339
6451.638266133149,0.0039134454608107366
6451.639265905072,0.003903298445229024
6451.640265676995,0.003892305882949235
6451.641265448918,0.0038804732387324047
6451.64226522084,0.00386780624061387
6451.643264992763,0.0038543108792202397
6451.644264764685,0.003839993406964076
6451.645264536609,0.0038248603371137274
6451.646264308532,0.0038089184427360554
6451.647264080454,0.003792174755510037
6451.648263852377,0.0037746365644094285
6451.649263624299,0.0037563114142528282
6451.650263396223,0.003737207104119667
6451.651263168145,0.0037173316856308563
6451.652262940068,0.003696693461093049
6451.653262711991,0.003675300981505785
6451.654262483913,0.0036531630444311333
6451.655262255836,0.003630288691725873
6451.656262027759,0.0036066872071366693
6451.657261799682,0.0035823681137591512
6451.658261571604,0.003557341171362128
6451.659261343527,0.0035316163735784577
6451.660261115449,0.003505203944964215
6451.661260887373,0.0034781143379278554
6451.662260659296,0.0034503582295310506
6451.663260431218,0.0034219465181627873
6451.664260203141,0.0033928903200882467
6451.665259975063,0.0033632009658739084
6451.666259746987,0.0033328899966902814
6451.667259518909,0.0033019691604936957
6451.668259290832,0.003270450408088643
6451.6692590627545,0.003238345889072281
6451.670258834677,0.003205667947662874
6451.6712586066,0.003172429118414143
6451.672258378523,0.0031386421218177044
6451.673258150446,0.0031043198597959848
6451.674257922368,0.003069475411088221
6451.675257694291,0.0030341220265323147
6451.676257466213,0.002998273124245423
6451.677257238137,0.002961942284706234
6451.67825701006,0.0029251432457418915
6451.679256781982,0.002887889897422505
6451.680256553905,0.002850196276866081
6451.681256325827,0.0028120765629565956
6451.682256097751,0.002773545070977769
6451.683255869673,0.002734616247164975
6451.684255641596,0.002695304663177645
6451.685255413519,0.0026556250104944846
6451.686255185441,0.002615592094733844
6451.687254957364,0.0025752208299015824
6451.688254729287,0.002534526232568768
6451.68925450121,0.0024935234159815644
6451.690254273132,0.0024522275841056887
6451.691254045055,0.002410654025607876
6451.692253816977,0.002368818107776833
6451.693253588901,0.0023267352703861886
6451.694253360824,0.0022844210195019513
6451.695253132746,0.002241890921236925
6451.696252904669,0.002199160595454517
6451.697252676591,0.0021562457094243853
6451.698252448515,0.0021131619714324927
6451.699252220437,0.002069925124348364
6451.70025199236,0.0020265509391526404
6451.7012517642825,0.0019830552084283814
6451.702251536205,0.0019394537398198792
6451.703251308128,0.0018957623494630352
6451.704251080051,0.0018519968553915647
6451.705250851974,0.0018081730709234782
6451.706250623896,0.0017643067980324253
6451.707250395819,0.0017204138207086144
6451.708250167741,0.0016765098983140946
6451.709249939665,0.0016326107589372408
6451.710249711588,0.0015887320927513015
6451.71124948351,0.0015448895453818881
6451.712249255433,0.0015010987112882897
6451.713249027355,0.0014573751271635034
6451.714248799279,0.0014137342653579047
6451.715248571201,0.001370191527331514
6451.716248343124,0.0013267622371398744
6451.717248115047,0.0012834616349586203
6451.718247886969,0.001240304870651863
6451.719247658892,0.0011973069973895435
6451.720247430815,0.0011544829653188924
6451.721247202738,0.0011118476152950597
6451.72224697466,0.0010694156726758738
6451.723246746583,0.0010272017411855103
6451.724246518505,0.0009852202968516197
6451.725246290429,0.0009434856820201775
6451.726246062352,0.0009020120994519617
6451.727245834274,0.0008608136065041816
6451.728245606197,0.0008199041094004071
6451.729245378119,0.0007792973575916283
6451.730245150043,0.0007390069382110461
6451.731244921965,0.000699046270625082
6451.732244693888,0.0006594286010830792
6451.7332444658105,0.0006201669974682241
6451.734244237733,0.000581274344152285
6451.7352440096565,0.0005427633369568265
6451.736243781579,0.0005046464782235612
6451.737243553502,0.000466936071996447
6451.738243325424,0.0004296442193179902
6451.739243097347,0.0003927828136419715
6451.740242869269,0.0003563635363644952
6451.741242641193,0.00032039785247491096
6451.742242413116,0.0002848970063278289
6451.743242185038,0.0002498720175371718
6451.744241956961,0.00021533367699299834
6451.745241728883,0.00018129254300169027
6451.746241500807,0.00014775893755003392
6451.747241272729,0.0001147429426937442
6451.748241044652,8.225439707107879e-05
6451.749240816575,5.030289254236079e-05
6451.750240588497,1.88977709564516e-05
6451.7512403604205,-1.1951878954527804e-05
6451.752240132343,-4.2237224550661034e-05
6451.753239904266,-7.194969212805485e-05
6451.754239676188,-0.00010108096962893617
6451.755239448111,-0.00012962300921573903
6451.756239220033,-0.00015756802970672492
6451.757238991957,-0.00018490851887056908
6451.75823876388,-0.00021163723557730498
6451.759238535802,-0.0002377472118030731
6451.760238307725,-0.00026323175448628253
6451.761238079647,-0.0002880844472330664
6451.762237851571,-0.00031229915187027714
6451.763237623493,-0.0003358700098446863
6451.764237395416,-0.00035879144346749267
6451.7652371673385,-0.00038105815700365686
6451.766236939261,-0.0004026651376059442
6451.7672367111845,-0.00042360765609384174
6451.768236483107,-0.0004438812675777321
6451.76923625503,-0.0004634818119288691
6451.770236026952,-0.0004824054140958391
6451.771235798875,-0.0005006484842683189
6451.772235570797,-0.0005182077178890526
6451.773235342721,-0.0005350800955150504
6451.774235114644,-0.0005512628825290636
6451.775234886566,-0.0005667536287024119
6451.776234658489,-0.0005815501676102845
6451.777234430411,-0.0005956506159007202
6451.778234202335,-0.0006090533724186222
6451.779233974257,-0.0006217571171863714
6451.78023374618,-0.0006337608102428429
6451.781233518102,-0.0006450636903429007
6451.782233290025,-0.0006556652735197223
6451.7832330619485,-0.0006655653515125979
6451.784232833871,-0.00067476399006314
6451.785232605794,-0.0006832615270831273
6451.786232377716,-0.000691058570697449
6451.787232149639,-0.0006981559971658044
6451.788231921562,-0.0007045549486869323
6451.789231693485,-0.0007102568310891922
6451.790231465408,-0.0007152633114113203
6451.79123123733,-0.0007195763153771583
6451.792231009253,-0.0007231980247681347
6451.793230781175,-0.0007261308746973041
6451.794230553099,-0.0007283775507888268
6451.795230325021,-0.0007299409862668761
6451.796230096944,-0.0007308243589580575
6451.797229868866,-0.0007310310882114714
6451.798229640789,-0.0007305648317405282
6451.7992294127125,-0.0007294294823905316
6451.800229184635,-0.0007276291648358795
6451.801228956558,-0.0007251682322104982
6451.80222872848,-0.0007220512626748171
6451.803228500403,-0.0007182830559222212
6451.804228272326,-0.0007138686296275079
6451.805228044249,-0.0007088132158394585
6451.806227816172,-0.0007031222573192247
6451.807227588094,-0.0006968014038258649
6451.808227360017,-0.0006898565083500323
6451.809227131939,-0.0006822936232965381
6451.810226903863,-0.000674118996616304
6451.811226675785,-0.0006653390678880664
6451.812226447708,-0.0006559604643501235
6451.81322621963,-0.0006459899968824023
6451.814225991553,-0.0006354346559391739
6451.8152257634765,-0.0006243016074328597
6451.816225535399,-0.000612598188569561
6451.817225307322,-0.0006003319036372077
6451.818225079244,-0.0005875104197475541
6451.819224851167,-0.0005741415625336094
6451.82022462309,-0.0005602333118044282
6451.821224395013,-0.0005457937971594543
6451.822224166936,-0.0005308312935648123
6451.823223938858,-0.0005153542168940857
6451.824223710781,-0.0004993711194362475
6451.825223482703,-0.00048289068537354663
6451.826223254627,-0.0004659217262322663
6451.827223026549,-0.0004484731763093444
6451.828222798472,-0.0004305540880778316
6451.829222570394,-0.0004121736275740643
6451.830222342317,-0.0003933410697692351
6451.8312221142405,-0.0003740657939277777
6451.832221886163,-0.0003543572789546592
6451.833221658086,-0.00033422509873331694
6451.834221430008,-0.00031367891745561074
6451.835221201931,-0.0002927284849448085
6451.836220973854,-0.0002713836319723159
6451.837220745777,-0.0002496542655686086
6451.8382205177,-0.000227550364328645
6451.839220289622,-0.00020508197371191077
6451.840220061545,-0.0001822592013371582
6451.841219833467,-0.00015909221227183038
6451.842219605391,-0.0001355912243160934
6451.843219377313,-0.00011176650328133956
6451.844219149236,-8.762835826298003e-05
6451.845218921158,-6.318713690733161e-05
6451.846218693081,-3.8453220672434765e-05
6451.8472184650045,-1.343702008272954e-05
6451.848218236927,1.1851030022338177e-05
6451.84921800885,3.740047524551334e-05
6451.850217780772,6.32008463942267e-05
6451.851217552695,8.92416642476124e-05
6451.852217324618,0.00011551244432698955
6451.853217096541,0.00014200270166848445
6451.854216868464,0.00016870195559624658
6451.855216640386,0.00019559973449452235
6451.856216412309,0.0002226855805766609
6451.857216184231,0.00024994905464889073
6451.858215956155,0.0002773797408663975
6451.859215728077,0.00030496725147885
6451.8602155,0.00033270123156209163
6451.861215271922,0.00036057136373226275
6451.862215043845,0.00038856737283817476
6451.8632148157685,0.0004166790306273193
6451.864214587691,0.0004448961603804681
6451.865214359614,0.0004732086415093928
6451.866214131536,0.0005016064141118142
6451.867213903459,0.0005300794834772878
6451.868213675382,0.0005586179245373801
6451.869213447305,0.0005872118862532396
6451.870213219228,0.000615851595933576
6451.87121299115,0.0006445273634761992
6451.872212763073,0.000673229585526626
6451.873212534996,0.0007019487495478153
6451.874212306919,0.0007306754377957542
6451.875212078841,0.0007594003311963283
6451.876211850764,0.0007881142131195978
6451.877211622686,0.0008168079730482446
6451.878211394609,0.0008454726101375029
6451.8792111665325,0.000874099236664358
6451.880210938455,0.0009026790813641718
6451.881210710378,0.0009312034926532007
6451.8822104823,0.0009596639417357178
6451.883210254223,0.000988052025594674
6451.884210026146,0.0010163594698650437
6451.885209798069,0.0010445781315892057
6451.886209569992,0.001072700001853935
6451.887209341914,0.0011007172083087678
6451.888209113837,0.0011286220175656878
6451.88920888576,0.0011564068374802215
6451.890208657683,0.0011840642193141537
6451.891208429605,0.0012115868597801852
6451.892208201528,0.001238967602968976
6451.89320797345,0.0012661994421591547
6451.894207745373,0.0012932755215110307
6451.8952075172965,0.0013201891376449304
6451.896207289219,0.001346933741105232
6451.897207061142,0.0013735029377113027
6451.898206833064,0.0013998904897965774
6451.899206604987,0.001426090317336927
6451.90020637691,0.0014520964989692617
6451.901206148833,0.0014779032729009753
6451.902205920756,0.0015035050377104585
6451.903205692678,0.0015288963530385546
6451.904205464601,0.0015540719401706043
6451.905205236524,0.0015790266825086682
6451.906205008447,0.0016037556259336414
6451.907204780369,0.0016282539790572286
6451.908204552292,0.0016525171133640949
6451.909204324214,0.0016765405632448783
6451.910204096137,0.0017003200259211105
6451.9112038680605,0.0017238513612633927
6451.912203639983,0.001747130591504425
6451.913203411906,0.0017701539008486533
6451.914203183828,0.0017929176349804061
6451.915202955751,0.0018154183004724445
6451.916202727674,0.0018376525640968735
6451.917202499597,0.0018596172520403908
6451.91820227152,0.0018813093490259074
6451.919202043442,0.001902725997342663
6451.920201815365,0.0019238644957870641
6451.921201587288,0.0019447222985166234
6451.922201359211,0.0019652970138195063
6451.923201131133,0.001985586402802328
6451.924200903056,0.002005588377998952
6451.925200674978,0.0020253010019031354
6451.926200446901,0.0020447224854279436
6451.9272002188245,0.002063851186294904
6451.928199990747,0.0020826856073559103
6451.92919976267,0.002101224394850882
6451.930199534592,0.002119466336604163
6451.931199306515,0.0021374103601625558
6451.932199078438,0.0021550555308778156
6451.933198850361,0.0021724010499362856
6451.934198622284,0.002189446252338236
6451.935198394206,0.0022061906048292924
6451.936198166129,0.002222633703786164
