Time,Filtered_ECG
6416.871197519494,0.00039620057189162453
6416.872197291416,0.0004814660927548558
6416.873197063339,0.0005666607237864877
6416.8741968352615,0.0006517697911059153
6416.875196607185,0.0007367786060336531
6416.876196379108,0.0008216724699292512
6416.87719615103,0.0009064366790357821
6416.878195922953,0.0009910565293274763
6416.879195694875,0.0010755173213572364
6416.880195466799,0.0011598043651009557
6416.881195238721,0.0012439029847957923
6416.882195010644,0.0013277985237697884
6416.883194782567,0.0014114763492604583
6416.884194554489,0.0014949218572201744
6416.885194326412,0.0015781204771063524
6416.886194098335,0.0016610576766545664
6416.887193870258,0.0017437189666328302
6416.88819364218,0.0018260899055753694
6416.889193414103,0.001908156104494311
6416.8901931860255,0.001989903231567825
6416.891192957949,0.0020713170168033634
6416.892192729872,0.0021523832566747655
6416.893192501794,0.0022330878187321046
6416.894192273717,0.0023134166461832415
6416.895192045639,0.0023933557624461533
6416.896191817563,0.0024728912756711717
6416.897191589485,0.002552009383232315
6416.898191361408,0.0026306963761868712
6416.8991911333305,0.0027089386437022665
6416.900190905253,0.0027867226774489673
6416.901190677176,0.0028640350759577726
6416.902190449099,0.0029408625489392944
6416.903190221022,0.003017191921562848
6416.904189992944,0.003093010138691431
6416.905189764867,0.003168304269069058
6416.9061895367895,0.003243061509456483
6416.907189308713,0.0033172691887113125
6416.908189080636,0.0033909147718086266
6416.909188852558,0.0034639858637983997
6416.910188624481,0.0035364702136962117
6416.911188396403,0.0036083557183039213
6416.912188168327,0.003679630425957108
6416.913187940249,0.0037502825401961835
6416.914187712172,0.0038203004233581307
6416.915187484095,0.00388967260008584
6416.916187256017,0.003958387760751998
6416.91718702794,0.004026434764794449
6416.918186799863,0.0040938026439599155
6416.919186571786,0.00416048060545294
6416.920186343708,0.004226458034986954
6416.921186115631,0.004291724499734516
6416.9221858875535,0.004356269751173968
6416.923185659477,0.004420083727830106
6416.9241854314,0.004483156557906767
6416.925185203322,0.004545478561809577
6416.926184975245,0.004607040254557393
6416.927184747167,0.004667832348081228
6416.928184519091,0.004727845753409653
6416.929184291013,0.0047870715827399565
6416.930184062936,0.004845501151394624
6416.9311838348585,0.004903125979662995
6416.932183606781,0.004959937794528291
6416.933183378704,0.005015928531280491
6416.934183150627,0.005071090335015925
6416.93518292255,0.0051254155620246815
6416.936182694472,0.005178896781067307
6416.937182466395,0.0052315267745425
6416.9381822383175,0.005283298539547787
6416.939182010241,0.005334205288835359
6416.940181782164,0.005384240451665375
6416.941181554086,0.005433397674559131
6416.942181326009,0.005481670821954556
6416.943181097931,0.00552905397676653
6416.944180869855,0.005575541440854647
6416.945180641777,0.005621127735401121
6416.9461804137,0.0056658076012017205
6416.947180185623,0.005709575998872733
6416.948179957545,0.005752428108977205
6416.949179729469,0.005794359332073815
6416.950179501391,0.00583536528869189
6416.951179273314,0.005875441819236141
6416.952179045236,0.005914584983824725
6416.953178817159,0.005952791062064143
6416.9541785890815,0.005990056552764389
6416.955178361005,0.006026378173597618
6416.956178132928,0.006061752860703405
6416.95717790485,0.006096177768243439
6416.958177676773,0.006129650267908265
6416.959177448695,0.006162167948378418
6416.960177220619,0.006193728614741989
6416.961176992541,0.006224330287870463
6416.962176764464,0.00625397120375447
6416.9631765363865,0.006282649812801043
6416.964176308309,0.006310364779093929
6416.965176080233,0.0063371149796186375
6416.966175852155,0.006362899503453986
6416.967175624078,0.006387717650932056
6416.968175396,0.006411568932768496
6416.969175167923,0.006434453069164997
6416.9701749398455,0.0064563699888854475
6416.971174711769,0.0064773198283068125
6416.972174483692,0.006497302930445043
6416.973174255614,0.0065163198439554815
6416.974174027537,0.006534371322106383
6416.975173799459,0.006551458321723246
6416.976173571383,0.006567582002101017
6416.977173343305,0.006582743723880693
6416.978173115228,0.006596945047886637
6416.979172887151,0.006610187733920897
6416.980172659073,0.006622473739510965
6416.981172430997,0.0066338052186078215
6416.982172202919,0.006644184520231564
6416.983171974842,0.006653614187062482
6416.984171746764,0.006662096953976063
6416.985171518687,0.006669635746520944
6416.9861712906095,0.006676233679339319
6416.987171062533,0.006681894054529697
6416.988170834456,0.006686620359952197
6416.989170606378,0.006690416267476843
6416.990170378301,0.006693285631175499
6416.991170150223,0.006695232485458432
6416.992169922147,0.006696261043156757
6416.993169694069,0.006696375693552458
6416.994169465992,0.006695581000358004
6416.9951692379145,0.006693881699647952
6416.996169009837,0.006691282697745175
6416.997168781761,0.006687789069064605
6416.998168553683,0.006683406053917426
6416.999168325606,0.006678139056278728
6417.000168097528,0.006671993641521611
6417.001167869451,0.006664975534120688
6417.0021676413735,0.006657090615327853
6417.003167413297,0.00664834492082317
6417.00416718522,0.006638744638343654
6417.005166957142,0.006628296105292779
6417.006166729065,0.006617005806333575
6417.007166500987,0.006604880370968228
6417.008166272911,0.006591926571107139
6417.009166044833,0.006578151318630378
6417.010165816756,0.006563561662944303
6417.011165588679,0.0065481647885358004
6417.012165360601,0.0065319680125260566
6417.013165132525,0.006514978782225038
6417.014164904447,0.00649720467268702
6417.01516467637,0.006478653384266555
6417.016164448292,0.006459332740173379
6417.017164220215,0.006439250684024018
6417.0181639921375,0.006418415277387231
6417.019163764061,0.006396834697320119
6417.020163535984,0.006374517233891553
6417.021163307906,0.006351471287689597
6417.022163079829,0.0063277053673098
6417.023162851751,0.006303228086821478
6417.024162623675,0.006278048163209413
6417.025162395597,0.006252174413788814
6417.02616216752,0.0062256157535918125
6417.0271619394425,0.006198381192724255
6417.028161711365,0.0061704798336921
6417.029161483289,0.006141920868697174
6417.030161255211,0.006112713576902548
6417.031161027134,0.006082867321668199
6417.032160799056,0.006052391547758023
6417.033160570979,0.0060212957785196475
6417.034160342902,0.0059895896130387856
6417.035160114825,0.005957282723270223
6417.036159886748,0.005924384851147729
6417.03715965867,0.005890905805675508
6417.038159430593,0.005856855460004024
6417.039159202515,0.005822243748493293
6417.040158974439,0.005787080663766962
6417.041158746361,0.0057513762537607024
6417.042158518284,0.005715140618768597
6417.043158290207,0.005678383908491359
6417.044158062129,0.005641116319090244
6417.045157834053,0.005603348090250501
6417.046157605975,0.0055650895022582155
6417.047157377898,0.005526350873094313
6417.04815714982,0.005487142555549467
6417.049156921743,0.005447474934363593
6417.050156693666,0.005407358423393577
6417.051156465589,0.005366803462812837
6417.052156237512,0.005325820516346253
6417.053156009434,0.0052844200685439454
6417.054155781357,0.00524261262209726
6417.055155553279,0.005200408695200227
6417.056155325203,0.005157818818959671
6417.057155097125,0.005114853534857039
6417.058154869048,0.005071523392264912
6417.0591546409705,0.005027838946020956
6417.060154412893,0.004983810754061855
6417.061154184817,0.004939449375119434
6417.062153956739,0.004894765366480777
6417.063153728662,0.004849769281813625
6417.064153500584,0.004804471669057798
6417.065153272507,0.004758883068382808
6417.06615304443,0.004713014010211264
6417.067152816353,0.004666875013307144
6417.068152588276,0.004620476582927464
6417.069152360198,0.004573829209035365
6417.070152132121,0.004526943364572113
6417.071151904043,0.0044798295037851025
6417.072151675967,0.00443249806060856
6417.073151447889,0.004384959447093491
6417.074151219812,0.0043372240518832735
6417.075150991735,0.004289302238731312
6417.076150763657,0.004241204345057213
6417.077150535581,0.004192940680538021
6417.078150307503,0.0041445215257311626
6417.079150079426,0.00409595713072593
6417.080149851348,0.004047257713820522
6417.081149623271,0.0039984334602218615
6417.082149395194,0.003949494520765575
6417.083149167117,0.003900451010653607
6417.08414893904,0.003851313008206956
6417.085148710962,0.0038020905536309767
6417.086148482885,0.0037527936477906214
6417.087148254808,0.0037034322509930015
6417.088148026731,0.003654016281774765
6417.089147798653,0.003604555615691998
6417.090147570576,0.0035550600841106695
6417.0911473424985,0.003505539472995988
6417.092147114421,0.0034560035216993686
6417.093146886345,0.003406461921741987
6417.094146658267,0.003356924315594111
6417.09514643019,0.003307400295449588
6417.096146202112,0.003257899401995053
6417.097145974035,0.0032084311231736417
6417.098145745958,0.0031590048929432315
6417.099145517881,0.0031096300900295363
6417.100145289804,0.003060316036674655
6417.101145061726,0.003011071997381908
6417.102144833649,0.002961907177657998
6417.103144605572,0.0029128307227535713
6417.104144377495,0.0028638517164032103
6417.105144149417,0.002814979179565606
6417.10614392134,0.002766222069164298
6417.107143693263,0.0027175892768288726
6417.108143465185,0.002669089627636022
6417.109143237109,0.002620731878849449
6417.110143009031,0.0025725247186572943
6417.111142780954,0.002524476764905639
6417.112142552876,0.002476596563826602
6417.113142324799,0.0024288925887596333
6417.114142096722,0.0023813732388647075
6417.115141868645,0.002334046837826226
6417.116141640568,0.0022869216325465537
6417.11714141249,0.002240005791828234
6417.118141184413,0.0021933074050440532
6417.119140956336,0.0021468344807942853
6417.120140728259,0.0021005949455506286
6417.121140500181,0.002054596642286588
6417.122140272104,0.002008847329094304
6417.1231400440265,0.0019633546777880905
6417.124139815949,0.0019181262724952016
6417.125139587873,0.0018731696082345702
6417.126139359795,0.001828492089484448
6417.127139131718,0.001784101028740068
6417.12813890364,0.0017400036450626202
6417.129138675563,0.0016962070626210049
6417.130138447486,0.0016527183092280191
6417.131138219409,0.0016095443148728028
6417.132137991332,0.001566691910251536
6417.133137763254,0.0015241678252985228
6417.134137535177,0.0014819786877199102
6417.1351373071,0.0014401310215323925
6417.136137079023,0.0013986312456093118
6417.137136850945,0.0013574856722366135
6417.138136622868,0.0013167005056811646
6417.139136394791,0.0012762818407739934
6417.140136166713,0.001236235661511073
6417.141135938637,0.001196567839674341
6417.142135710559,0.0011572841334756999
6417.143135482482,0.001118390186226748
6417.144135254404,0.0010798915250369353
6417.145135026327,0.0010417935595426892
6417.14613479825,0.0010041015806698242
6417.147134570173,0.0009668207594312669
6417.148134342096,0.0009299561457618045
6417.149134114018,0.0008935126673912708
6417.150133885941,0.0008574951287573252
6417.151133657864,0.0008219082099587689
6417.152133429787,0.0007867564657501637
6417.153133201709,0.0007520443245783647
6417.154132973632,0.0007177760876614292
6417.1551327455545,0.0006839559281102529
6417.156132517477,0.0006505878900932153
6417.157132289401,0.0006176758880440968
6417.158132061323,0.0005852237059135831
6417.159131833246,0.000553234996464786
6417.160131605168,0.0005217132806134064
6417.161131377091,0.0004906619468133965
6417.162131149014,0.0004600842504892489
6417.163130920937,0.00042998331351628075
6417.16413069286,0.0004003621237505071
6417.165130464782,0.00037122353460986073
6417.166130236705,0.00034257026470864015
6417.167130008628,0.0003144048975471456
6417.168129780551,0.000286729881258512
6417.169129552473,0.0002595475284147601
6417.170129324396,0.00023286001589406053
6417.171129096319,0.00020666938481112614
6417.172128868242,0.00018097754051251192
6417.173128640165,0.00015578625263841948
6417.174128412087,0.00013109715525238484
6417.17512818401,0.00010691174704000065
6417.176127955932,8.323139157761296e-05
6417.177127727855,6.005731767176793e-05
6417.178127499778,3.73906197700864e-05
6417.179127271701,1.5232258444222551e-05
6417.180127043624,-6.416939054385234e-06
6417.181126815546,-2.7556278165156414e-05
6417.182126587469,-4.818519631446179e-05
6417.183126359392,-6.830326213612754e-05
6417.184126131315,-8.791017461528557e-05
6417.185125903237,-0.00010700576215460509
6417.18612567516,-0.0001255899815622008
6417.1871254470825,-0.00014366291696095716
6417.188125219006,-0.00016122477861962913
6417.189124990929,-0.00017827590170683294
6417.190124762851,-0.0001948167449698481
6417.191124534774,-0.0002108478893409229
6417.192124306696,-0.00022637003647442983
6417.193124078619,-0.00024138400721870746
6417.194123850542,-0.00025589074002674354
6417.195123622465,-0.0002698912893100265
6417.196123394388,-0.0002833868237399561
6417.19712316631,-0.0002963786245012017
6417.198122938233,-0.00030886808350136133
6417.199122710156,-0.00032085670154123684
6417.200122482079,-0.0003323460864500265
6417.201122254001,-0.0003433379511897651
6417.202122025924,-0.00035383411193339796
6417.203121797847,-0.000363836486120919
6417.20412156977,-0.0003733470904979951
6417.205121341693,-0.00038236803914144015
6417.206121113615,-0.0003909015414758193
6417.207120885538,-0.0003989499002854009
6417.20812065746,-0.00040651550972563917
6417.209120429383,-0.0004136008533383666
6417.210120201306,-0.00042020850207486507
6417.211119973229,-0.00042634111233095135
6417.212119745152,-0.0004320014239981245
6417.213119517074,-0.00043719225853466306
6417.214119288997,-0.00044191651706031903
6417.21511906092,-0.0004461771784779404
6417.216118832843,-0.0004499772976249811
6417.217118604765,-0.00045332000345744646
6417.218118376688,-0.00045620849726837995
6417.2191181486105,-0.0004586460509425389
6417.220117920534,-0.0004606360052484449
6417.221117692457,-0.0004621817681685465
6417.222117464379,-0.00046328681326781673
6417.223117236302,-0.00046395467810073977
6417.224117008224,-0.0004641889626563389
6417.225116780148,-0.00046399332784067144
6417.22611655207,-0.0004633714939960704
6417.227116323993,-0.00046232723945634446
6417.228116095916,-0.00046086439913714885
6417.229115867838,-0.00045898686316079966
6417.230115639761,-0.0004566985755149061
6417.231115411684,-0.0004540035327443309
6417.232115183607,-0.0004509057826761341
6417.233114955529,-0.0004474094231772788
6417.234114727452,-0.00044351860094496366
6417.235114499375,-0.000439237510329473
6417.236114271298,-0.00043457039218940325
6417.237114043221,-0.00042952153277902796
6417.238113815143,-0.00042409526266741097
6417.239113587066,-0.00041829595568869366
6417.240113358988,-0.00041212802792277655
6417.241113130912,-0.00040559593670541654
6417.242112902834,-0.0003987041796665735
6417.243112674757,-0.000391457293795677
6417.24411244668,-0.0003838598545323502
6417.245112218602,-0.0003759164748810261
6417.246111990525,-0.000367631804547812
6417.247111762448,-0.0003590105290978776
6417.248111534371,-0.00035005736913155554
6417.249111306293,-0.00034077707947725616
6417.250111078216,-0.00033117444839923994
6417.2511108501385,-0.00032125429681828234
6417.252110622062,-0.00031102147754331287
6417.253110393985,-0.0003004808745122102
6417.254110165907,-0.00028963740204009
6417.25510993783,-0.0002784960040736238
6417.256109709752,-0.0002670616534501789
6417.257109481676,-0.000255339351160866
6417.258109253598,-0.00024333412561691165
6417.259109025521,-0.0002310510319191233
6417.260108797444,-0.00021849515113055086
6417.261108569366,-0.00020567158955274065
6417.262108341289,-0.00019258547800619542
6417.263108113212,-0.0001792419711157926
6417.264107885135,-0.00016564624660198046
6417.265107657057,-0.00015180350457859055
6417.26610742898,-0.00013771896685809342
6417.267107200903,-0.00012339787626508518
6417.268106972826,-0.00010884549595873345
6417.269106744749,-9.406710876483494e-05
6417.270106516671,-7.906801651806034e-05
6417.271106288594,-6.385353941490985e-05
6417.272106060516,-4.842901537789753e-05
6417.27310583244,-3.2799799431550664e-05
6417.274105604362,-1.6971263090970607e-05
6417.275105376285,-9.487937639711938e-07
6417.276105148208,1.5262205831803818e-05
6417.27710492013,3.165631823489241e-05
6417.278104692053,4.822811178670959e-05
6417.279104463976,6.497214115592653e-05
6417.280104235899,8.188294783704573e-05
6417.281104007821,9.895506061932137e-05
6417.282103779744,0.00011618299602198129
6417.2831035516665,0.00013356125869171394
6417.28410332359,0.0001510843417585903
6417.285103095513,0.0001687467271469547
6417.286102867435,0.00018654288583826894
6417.287102639358,0.00020446727808335686
6417.28810241128,0.00022251435356193235
6417.289102183204,0.0002406785514876868
6417.290101955126,0.0002589543006575781
6417.291101727049,0.00027733601944430954
6417.292101498972,0.00029581811573132057
6417.293101270894,0.0003143949867899264
6417.294101042817,0.0003330610190985367
6417.29510081474,0.00035181058810414105
6417.296100586663,0.0003706380579264792
6417.297100358585,0.0003895377810055214
6417.298100130508,0.00040850409769308064
6417.299099902431,0.00042753133578958134
6417.300099674354,0.0004466138100272175
6417.301099446277,0.00046574582150096333
6417.302099218199,0.00048492165704914234
6417.303098990122,0.0005041355885855154
6417.304098762044,0.0005233818723850956
6417.305098533968,0.0005426547483261206
6417.30609830589,0.0005619484390907797
6417.307098077813,0.0005812571493274097
6417.308097849736,0.000600575064776923
6417.309097621658,0.0006198963513662603
6417.310097393582,0.0006392151542716578
6417.311097165504,0.0006585255969545378
6417.312096937427,0.0006778217801728587
6417.313096709349,0.0006970977809708327
6417.314096481272,0.0007163476516500256
6417.3150962531945,0.0007355654187250017
6417.316096025118,0.0007547450818668284
6417.317095797041,0.0007738806128378877
6417.318095568963,0.0007929659544215181
6417.319095340886,0.0008119950193499842
6417.320095112808,0.000830961689234112
6417.321094884732,0.0008498598134976806
6417.322094656654,0.0008686832083193626
6417.323094428577,0.0008874256555847715
6417.3240942005,0.0009060809018510643
6417.325093972422,0.0009246426573265868
6417.326093744346,0.0009431045948681978
6417.327093516268,0.0009614603489991082
6417.328093288191,0.0009797035149502714
6417.329093060113,0.000997827647728551
6417.330092832036,0.0010158262612150356
6417.331092603959,0.00103369282729697
6417.332092375882,0.0010514207750368157
6417.333092147805,0.001069003489881914
6417.334091919727,0.0010864343129181272
6417.33509169165,0.0011037065401706403
6417.336091463572,0.0011208134219548372
6417.337091235496,0.0011377481622798723
6417.338091007418,0.0011545039183072483
6417.339090779341,0.0011710737998664497
6417.340090551264,0.0011874508690295292
6417.341090323186,0.001203628139746514
6417.34209009511,0.0012195985775436391
6417.343089867032,0.0012353550992866696
6417.344089638955,0.001250890573011903
6417.345089410877,0.0012661978178277558
6417.3460891828,0.0012812696038900985
6417.3470889547225,0.0012960986524546802
6417.348088726646,0.001310677636010075
6417.349088498569,0.0013249991784946215
6417.350088270491,0.0013390558556008222
6417.351088042414,0.0013528401951706786
6417.352087814336,0.0013663446776854583
6417.35308758626,0.001379561736853441
6417.354087358182,0.0013924837602992699
6417.355087130105,0.0014051030903586255
6417.356086902028,0.0014174120249820185
6417.35708667395,0.0014294028187515641
6417.358086445874,0.001441067684014645
6417.359086217796,0.001452398792138357
6417.360085989719,0.0014633882748885851
6417.361085761641,0.0014740282259374543
6417.362085533564,0.0014843107025027517
6417.363085305487,0.001494227727122779
6417.36408507741,0.0015037712895699812
6417.365084849333,0.0015129333489066644
6417.366084621255,0.0015217058356861788
6417.367084393178,0.0015300806543030404
6417.3680841651,0.0015380496854955948
6417.369083937024,0.0015456047890049212
6417.370083708946,0.0015527378063936973
6417.371083480869,0.00155944056402869
6417.372083252792,0.0015657048762303626
6417.373083024714,0.001571522548592796
6417.374082796638,0.0015768853814767227
6417.37508256856,0.0015817851736780015
6417.376082340483,0.0015862137262733671
6417.377082112405,0.0015901628466448122
6417.378081884328,0.0015936243526835587
6417.3790816562505,0.0015965900771742379
6417.380081428174,0.001599051872359597
6417.381081200097,0.0016010016146857373
6417.382080972019,0.0016024312097275108
6417.383080743942,0.0016033325972932512
6417.384080515864,0.001603697756707451
6417.385080287788,0.0016035187122693138
6417.38608005971,0.001602787538884357
6417.387079831633,0.0016014963678654495
6417.388079603556,0.0015996373928988976
6417.389079375478,0.0015972028761705318
6417.390079147402,0.0015941851546461944
6417.391078919324,0.001590576646500652
6417.392078691247,0.0015863698576887213
6417.393078463169,0.0015815573886522444
6417.394078235092,0.0015761319411564702
6417.395078007015,0.001570086325249306
6417.396077778938,0.0015634134663368245
6417.397077550861,0.001556106412368288
6417.398077322783,0.001548158341123809
6417.399077094706,0.001539562567597579
6417.400076866628,0.0015303125514693602
6417.401076638552,0.0015204019046566445
6417.402076410474,0.0015098243989395141
6417.403076182397,0.0014985739736498435
6417.40407595432,0.001486644743416009
6417.405075726242,0.0014740310059537234
6417.406075498166,0.0014607272498929835
6417.407075270088,0.001446728162630404
6417.408075042011,0.001432028638195437
6417.409074813933,0.0014166237851181381
6417.410074585856,0.0014005089342852752
6417.411074357779,0.0013836796467706675
6417.412074129702,0.001366131721624736
6417.413073901625,0.001347861203607309
6417.414073673547,0.0013288643908467952
6417.41507344547,0.001309137842407863
6417.416073217392,0.0012886783857487814
6417.417072989316,0.001267483124048578
6417.418072761238,0.0012455494433833137
6417.419072533161,0.0012228750197301372
6417.420072305084,0.0011994578257775404
6417.421072077006,0.0011752961375203902
6417.42207184893,0.001150388540618864
6417.423071620852,0.0011247339365012482
6417.424071392775,0.0010983315481915847
6417.425071164697,0.0010711809258442846
6417.42607093662,0.0010432819519690386
6417.427070708543,0.0010146348463306064
6417.428070480466,0.0009852401705093823
6417.429070252389,0.0009550988321099562
6417.430070024311,0.000924212088606265
6417.431069796234,0.0008925815508133025
6417.432069568156,0.0008602091859767793
6417.43306934008,0.0008270973204735546
6417.434069112002,0.0007932486421170889
6417.435068883925,0.0007586662020635485
6417.436068655848,0.0007233534163155224
6417.43706842777,0.0006873140668215771
6417.438068199694,0.0006505523021711422
6417.439067971616,0.0006130726378854705
6417.440067743539,0.0005748799563067042
6417.441067515461,0.0005359795060883616
6417.442067287384,0.0004963769012918532
6417.443067059307,0.00045607812009489584
6417.44406683123,0.00041508950311887935
6417.445066603153,0.00037341775138332255
6417.446066375075,0.0003310699238964673
6417.447066146998,0.00028805343489179134
6417.448065918921,0.00024437605072078833
6417.449065690844,0.00020004588641278924
6417.450065462766,0.0001550714019129344
6417.451065234689,0.00010946139800967532
6417.452065006612,6.322501196339178e-05
6417.453064778534,1.63717128478475e-05
6417.454064550458,-3.108870338372342e-05
6417.45506432238,-7.914611909608967e-05
6417.456064094303,-0.00012779010042125228
6417.457063866225,-0.0001770099029476426
6417.458063638148,-0.0002267944776375205
6417.459063410071,-0.00027713247696084157
6417.460063181994,-0.00032801226123392894
6417.461062953917,-0.00037942190515139303
6417.462062725839,-0.00043134920449989296
6417.463062497762,-0.000483781683042521
6417.464062269685,-0.0005367065995628042
6417.465062041608,-0.0005901109550575317
6417.46606181353,-0.0006439815000678214
6417.467061585453,-0.0006983047421380217
6417.468061357376,-0.0007530669533922252
6417.469061129298,-0.0008082541782183812
6417.470060901222,-0.0008638522410502454
6417.471060673144,-0.0009198467542377482
6417.472060445067,-0.000976223125996788
6417.473060216989,-0.0010329665684299433
6417.474059988912,-0.001090062105610115
6417.475059760835,-0.001147494581719591
6417.476059532758,-0.001205248669237439
6417.477059304681,-0.0012633088771684372
6417.478059076603,-0.0013216595593069412
6417.479058848526,-0.001380284922529158
6417.480058620449,-0.0014391690351073076
6417.481058392372,-0.0014982958350391686
6417.482058164294,-0.0015576491383865628
6417.483057936217,-0.0016172126476165312
6417.48405770814,-0.0016769699599392743
6417.485057480062,-0.0017369045756373636
6417.486057251986,-0.001796999906381236
6417.487057023908,-0.0018572392835264594
6417.488056795831,-0.0019176059663886702
6417.489056567753,-0.001978083150492375
6417.490056339676,-0.002038653975789945
6417.491056111599,-0.0020993015348471514
6417.492055883522,-0.002160008880991532
6417.493055655445,-0.002220759036419818
6417.494055427367,-0.0022815350002606182
6417.49505519929,-0.0023423197565886128
6417.496054971213,-0.002403096282386598
6417.497054743136,-0.0024638475554518567
6417.498054515058,-0.0025245565622434496
6417.499054286981,-0.002585206305667122
6417.500054058904,-0.002645779812794586
6417.501053830826,-0.002706260142513948
6417.50205360275,-0.0027666303931080157
6417.503053374672,-0.002826873709757123
6417.504053146595,-0.002886973291962958
6417.505052918517,-0.002946912400889733
6417.50605269044,-0.0030066743666189158
6417.507052462363,-0.003066242595313642
6417.508052234286,-0.003125600576288927
6417.509052006209,-0.00318473188898382
6417.510051778131,-0.003243620209831728
6417.511051550054,-0.0033022493190252326
6417.512051321977,-0.0033606031071718406
6417.5130510939,-0.00341866558183725
6417.514050865822,-0.0034764208739728724
6417.515050637745,-0.0035338532442245846
6417.516050409668,-0.0035909470891199876
6417.51705018159,-0.003647686947131868
6417.518049953514,-0.0037040575046160527
6417.519049725436,-0.003760043601622427
6417.520049497359,-0.003815630237578457
6417.521049269281,-0.0038708025768450656
6417.522049041204,-0.003925545954145093
6417.523048813127,-0.003979845879864785
6417.52404858505,-0.004033688045228923
6417.525048356973,-0.004087058327350189
6417.526048128895,-0.00413994279415341
6417.527047900818,-0.004192327709175254
6417.528047672741,-0.0042441995362399645
6417.529047444664,-0.004295544944011684
6417.530047216586,-0.004346350810423905
6417.531046988509,-0.004396604226986581
6417.532046760432,-0.004446292502971514
6417.533046532355,-0.0044954031694766795
6417.534046304278,-0.004543923983370244
6417.5350460762,-0.004591842931115148
6417.536045848123,-0.004639148232475098
6417.537045620045,-0.004685828344102777
6417.538045391968,-0.004731871963010969
6417.539045163891,-0.004777268029927118
6417.540044935814,-0.004822005732531669
6417.541044707737,-0.004866074508580336
6417.542044479659,-0.004909464048910272
6417.543044251582,-0.004952164300329911
6417.544044023505,-0.004994165468392071
6417.545043795428,-0.005035458020049774
6417.54604356735,-0.005076032686194048
6417.547043339273,-0.00511588046407286
6417.548043111196,-0.005154992619590187
6417.549042883119,-0.005193360689484127
6417.550042655042,-0.005230976483382803
6417.551042426964,-0.0052678320857367355
6417.552042198887,-0.005303919857626226
6417.553041970809,-0.005339232438442265
6417.554041742732,-0.005373762747439431
6417.555041514655,-0.0054075039851592946
6417.556041286578,-0.0054404496347229235
6417.5570410585005,-0.005472593462991175
6417.558040830423,-0.005503929521591618
6417.559040602346,-0.005534452147810985
6417.560040374269,-0.005564155965352116
6417.561040146192,-0.005593035884954339
6417.562039918114,-0.005621087104876187
6417.563039690037,-0.005648305111239306
6417.56403946196,-0.005674685678232379
6417.565039233883,-0.005700224868173955
6417.566039005806,-0.0057249190314331184
6417.567038777728,-0.005748764806207096
6417.568038549651,-0.005771759118154939
6417.569038321573,-0.005793899179886561
6417.570038093496,-0.005815182490306425
6417.571037865419,-0.005835606833811304
6417.572037637342,-0.005855170279341692
6417.5730374092645,-0.005873871179286769
6417.574037181187,-0.005891708168243285
6417.57503695311,-0.005908680161629344
6417.576036725033,-0.005924786354154767
6417.577036496956,-0.005940026218150444
6417.578036268878,-0.005954399501759869
6417.579036040801,-0.005967906226996665
6417.580035812724,-0.0059805466876724726
6417.581035584647,-0.005992321447199982
6417.58203535657,-0.0060032313362762425
6417.583035128492,-0.006013277450451609
6417.584034900415,-0.0060224611475898845
6417.585034672337,-0.006030784045225342
6417.586034444261,-0.006038248017822429
6417.587034216183,-0.006044855193943994
6417.588033988106,-0.006050607953333837
6417.5890337600285,-0.006055508923919202
6417.590033531951,-0.006059560978738476
6417.591033303874,-0.006062767232798882
6417.592033075797,-0.006065131039868385
6417.59303284772,-0.006066655989205381
6417.594032619642,-0.006067345902229098
6417.595032391565,-0.006067204829133109
6417.596032163488,-0.006066237045443828
6417.597031935411,-0.006064447048525521
6417.598031707334,-0.006061839554033068
6417.599031479256,-0.006058419492313591
6417.600031251179,-0.006054192004758124
6417.601031023101,-0.006049162440104544
6417.602030795025,-0.006043336350693205
6417.603030566947,-0.006036719488676862
6417.60403033887,-0.00602931780218666
6417.6050301107925,-0.006021137431456083
6417.606029882715,-0.006012184704904888
6417.607029654638,-0.006002466135185109
6417.608029426561,-0.0059919884151912696
6417.609029198484,-0.0059807584140370035
6417.610028970406,-0.005968783173000226
6417.611028742329,-0.005956069901438916
6417.612028514252,-0.0059426259726794856
6417.613028286175,-0.005928458919879618
6417.614028058098,-0.005913576431867412
6417.61502783002,-0.005897986348958722
6417.616027601943,-0.005881696658754672
6417.617027373865,-0.005864715491921457
6417.618027145789,-0.00584705111795474
6417.619026917711,-0.00582871194093105
6417.620026689634,-0.005809706495248684
6417.6210264615565,-0.005790043441360595
6417.622026233479,-0.0057697315615016925
6417.623026005402,-0.00574877975541287
6417.624025777325,-0.0057271970360639225
6417.625025549248,-0.005704992525377326
6417.62602532117,-0.0056821754499546285
6417.627025093093,-0.005658755136806912
6417.628024865016,-0.005634741009090508
6417.629024636939,-0.005610142581848912
6417.630024408862,-0.005584969457761563
6417.631024180784,-0.005559231322899978
6417.632023952707,-0.005532937942491483
6417.633023724629,-0.005506099156690611
6417.634023496553,-0.005478724876358125
6417.635023268475,-0.005450825078847506
6417.636023040398,-0.0054224098037987285
6417.6370228123205,-0.005393489148939139
6417.638022584243,-0.005364073265891292
6417.639022356166,-0.005334172355987627
6417.640022128089,-0.00530379666609193
6417.641021900012,-0.005272956484427542
6417.642021671934,-0.005241662136412311
6417.643021443857,-0.005209923980500294
6417.64402121578,-0.0051777524040302085
6417.645020987703,-0.005145157819080641
6417.646020759626,-0.0051121506583319265
6417.647020531548,-0.005078741370934585
6417.648020303471,-0.005044940418384079
6417.649020075393,-0.005010758270401546
6417.650019847317,-0.004976205400820072
6417.651019619239,-0.004941292283475995
6417.652019391162,-0.0049060293881047394
6417.6530191630845,-0.004870427176240675
6417.654018935007,-0.00483449609712068
6417.65501870693,-0.004798246583591251
6417.656018478853,-0.004761689048019302
6417.657018250776,-0.004724833878207198
6417.658018022698,-0.004687691433313053
6417.659017794621,-0.00465027203977789
6417.660017566544,-0.004612585987262027
6417.661017338467,-0.004574643524593718
6417.66201711039,-0.004536454855733829
6417.663016882312,-0.004498030135760907
6417.664016654235,-0.004459379466881465
6417.665016426157,-0.004420512894470621
6417.666016198081,-0.0043814404031484325
6417.667015970003,-0.0043421719128973
6417.668015741926,-0.004302717275225763
6417.6690155138485,-0.004263086269383897
6417.670015285771,-0.004223288598635409
6417.671015057695,-0.004183333886591407
6417.672014829617,-0.004143231673610726
6417.67301460154,-0.004102991413271545
6417.674014373462,-0.00406262246891894
6417.675014145385,-0.004022134110292765
6417.676013917308,-0.003981535510240026
6417.677013689231,-0.0039408357415155635
6417.678013461154,-0.003900043773674437
6417.679013233076,-0.003859168470059012
6417.680013004999,-0.0038182185848832395
6417.681012776921,-0.0037772027604161774
6417.682012548845,-0.0037361295242663256
6417.683012320767,-0.0036950072867679203
6417.68401209269,-0.00365384433846996
6417.6850118646125,-0.0036126488477283636
6417.686011636535,-0.0035714288584013936
6417.687011408459,-0.003530192287648201
6417.688011180381,-0.0034889469238301965
6417.689010952304,-0.003447700424514838
6417.690010724226,-0.0034064603145814243
6417.691010496149,-0.0033652339844285383
6417.692010268072,-0.003324028688282879
6417.693010039995,-0.0032828515426094242
6417.694009811918,-0.003241709524623059
6417.69500958384,-0.003200609470902025
6417.696009355763,-0.0031595580761037342
6417.697009127685,-0.0031185618917836224
6417.698008899609,-0.0030776273253177474
6417.699008671531,-0.0030367606389297606
6417.700008443454,-0.0029959679488226858
6417.7010082153765,-0.00295525522441564
6417.702007987299,-0.0029146282876852097
6417.703007759223,-0.002874092812610759
6417.704007531145,-0.0028336543247224747
6417.705007303068,-0.0027933182007505272
6417.70600707499,-0.0027530896683733933
6417.707006846913,-0.0027129738060631898
6417.708006618836,-0.00267297554302583
6417.709006390759,-0.0026330996592339668
6417.710006162682,-0.00259335078555091
6417.711005934604,-0.0025537334039440487
6417.712005706527,-0.002514251847786597
6417.713005478449,-0.002474910302246757
6417.714005250373,-0.002435712804763557
6417.715005022295,-0.002396663245608712
6417.716004794218,-0.0023577653685338843
6417.7170045661405,-0.002319022771502674
6417.718004338063,-0.0022804389075065713
6417.719004109987,-0.0022420170854639703
6417.720003881909,-0.00220376047120112
6417.721003653832,-0.0021656720885136313
6417.722003425754,-0.0021277548203068567
6417.723003197677,-0.0020900114098131575
6417.7240029696,-0.0020524444618837535
6417.725002741523,-0.002015056444352586
6417.726002513446,-0.0019778496894693656
6417.727002285368,-0.0019408263953987928
6417.728002057291,-0.001903988627782798
6417.729001829213,-0.00186733832136259
6417.730001601137,-0.0018308772816573052
6417.731001373059,-0.0017946071866961608
6417.732001144982,-0.0017585295888012027
6417.7330009169045,-0.0017226459164180051
6417.734000688827,-0.0016869574759919388
6417.735000460751,-0.0016514654538878077
6417.736000232673,-0.0016161709183507415
6417.737000004596,-0.0015810748215062211
6417.737999776518,-0.0015461780013970212
6417.738999548441,-0.0015114811840547281
6417.739999320364,-0.001476984985603327
6417.740999092287,-0.0014426899143921985
6417.74199886421,-0.0014085963731557342
6417.742998636132,-0.0013747046611967096
6417.743998408055,-0.0013410149765905586
6417.744998179977,-0.001307527418407795
6417.745997951901,-0.0012742419889520153
6417.746997723823,-0.001241158596011163
6417.747997495746,-0.0012082770551200361
6417.7489972676685,-0.0011755970918323575
6417.749997039591,-0.0011431183440010725
6417.750996811515,-0.001110840364065875
6417.751996583437,-0.0010787626213472664
6417.75299635536,-0.0010468845043466975
6417.753996127282,-0.0010152053230525165
6417.754995899205,-0.0009837243112515467
6417.755995671128,-0.0009524406288461481
6417.756995443051,-0.0009213533641765936
6417.757995214974,-0.0008904615363485355
6417.758994986896,-0.0008597640975652581
6417.759994758819,-0.0008292599354643106
6417.760994530741,-0.0007989478754579874
6417.761994302665,-0.0007688266830769478
6417.762994074587,-0.0007388950663160508
6417.76399384651,-0.0007091516779812288
6417.7649936184325,-0.0006795951180359436
6417.765993390355,-0.0006502239359454943
6417.766993162279,-0.0006210366330171781
6417.767992934201,-0.0005920316647340805
6417.768992706124,-0.0005632074430800862
6417.769992478046,-0.0005345623388535802
6417.770992249969,-0.0005060946839672504
6417.771992021892,-0.00047780277373139324
6417.772991793815,-0.0004496848691181507
6417.773991565738,-0.0004217391990041539
6417.77499133766,-0.00039396396238910644
6417.775991109583,-0.0003663573305878921
6417.776990881505,-0.00033891744939380575
6417.777990653429,-0.00031164244121048026
6417.778990425351,-0.0002845304071500043
6417.779990197274,-0.0002575794290946305
6417.7809899691965,-0.00023078757171938766
6417.781989741119,-0.00020415288447287383
6417.782989513043,-0.00017767340351355985
6417.783989284965,-0.00015134715359912723
6417.784989056888,-0.00012517214992673867
6417.78598882881,-9.914639992271206e-05
6417.786988600733,-7.32679049808038e-05
6417.787988372656,-4.7534662149128946e-05
6417.788988144579,-2.1944665766535426e-05
6417.789987916502,3.5040909501080556e-06
6417.790987688424,2.8813614365831625e-05
6417.791987460347,5.3985908932616956e-05
6417.792987232269,7.902297573748109e-05
6417.793987004193,0.00010392681109155652
6417.794986776115,0.00012869940515823904
6417.795986548038,0.00015334274061859406
6417.7969863199605,0.0001778587913723398
6417.797986091883,0.0002022495212728708
6417.798985863807,0.00022651688289496307
6417.799985635729,0.00025066281633402416
6417.800985407652,0.0002746892480360161
6417.801985179574,0.0002985980896574681
6417.802984951497,0.00032239123695529344
6417.80398472342,0.00034607056870640984
6417.804984495343,0.0003696379456574056
6417.805984267266,0.0003930952095046749
6417.806984039188,0.00041644418190553715
6417.807983811111,0.00043968666352087556
6417.808983583034,0.0004628244330898041
6417.809983354957,0.0004858592465368454
6417.810983126879,0.000508792836112066
6417.811982898802,0.0005316269095645618
6417.8129826707245,0.0005543631493495603
6417.813982442647,0.00057700321186918
6417.814982214571,0.0005995487267465544
6417.815981986493,0.0006220012961326091
6417.816981758416,0.0006443624940443313
6417.817981530338,0.0006666338657329958
6417.818981302261,0.0006888169270805722
6417.819981074184,0.0007109131640224948
6417.820980846107,0.0007329240319950819
6417.82198061803,0.0007548509554060769
6417.822980389952,0.0007766953271269834
6417.823980161875,0.0007984585080060332
6417.824979933798,0.0008201418264007759
6417.825979705721,0.0008417465777294027
6417.826979477643,0.0008632740240400498
6417.827979249566,0.0008847253935974648
6417.8289790214885,0.0009061018804865635
6417.829978793411,0.0009274046442325296
6417.830978565335,0.0009486348094372282
6417.831978337257,0.000969793465431803
6417.83297810918,0.0009908816659454053
6417.833977881102,0.0010119004287900842
6417.834977653025,0.0010328507355619433
6417.835977424948,0.0010537335313587414
6417.836977196871,0.0010745497245141743
6417.837976968794,0.0010953001863491173
6417.838976740716,0.0011159857509401405
6417.839976512639,0.0011366072149056135
6417.840976284562,0.0011571653372096763
6417.841976056485,0.0011776608389842643
6417.842975828407,0.0011980944033692317
6417.84397560033,0.0012184666753704396
6417.8449753722525,0.0012387782617354947
6417.845975144175,0.0012590297308466927
6417.846974916099,0.001279221612630672
6417.847974688021,0.0012993543984843351
6417.848974459944,0.0013194285412167534
6417.849974231866,0.0013394444550069871
6417.850974003789,0.0013594025153779651
6417.851973775712,0.0013793030591867175
6417.852973547635,0.0013991463846313014
6417.853973319558,0.0014189327512746984
6417.85497309148,0.0014386623800858398
6417.855972863403,0.0014583354534977331
6417.856972635326,0.0014779521154824782
6417.857972407249,0.001497512471642808
6417.858972179171,0.0015170165893196958
6417.859971951094,0.0015364644977156068
6417.8609717230165,0.0015558561880331192
6417.861971494939,0.0015751916136288822
6417.862971266863,0.0015944706901831755
6417.863971038785,0.001613693295885622
6417.864970810708,0.0016328592716378563
6417.86597058263,0.0016519684212741425
6417.866970354553,0.001671020511801083
6417.867970126476,0.0016900152736576608
6417.868969898399,0.001708952400996925
6417.869969670322,0.0017278315519906268
6417.870969442244,0.0017466523491580452
6417.871969214167,0.001765414379720026
6417.87296898609,0.001784117195978947
6417.873968758013,0.001802760315724886
6417.874968529935,0.0018213432226677694
6417.875968301858,0.0018398653668947787
6417.8769680737805,0.001858326165351822
6417.877967845703,0.0018767250023475172
6417.878967617627,0.0018950612300778521
6417.879967389549,0.0019133341691695413
6417.880967161472,0.0019315431092400337
6417.881966933394,0.0019496873094721583
6417.882966705317,0.0019677659992015143
6417.88396647724,0.0019857783785149096
6417.884966249163,0.002003723618858418
6417.885966021086,0.002021600863653925
6417.886965793008,0.002039409228923379
6417.887965564931,0.0020571478039202746
6417.888965336854,0.0020748156517682347
6417.889965108777,0.0020924118101068134
6417.890964880699,0.002109935291744906
6417.891964652622,0.002127385085322339
6417.8929644245445,0.0021447601559803574
6417.893964196468,0.0021620594460418133
6417.894963968391,0.002179281875701898
6417.895963740313,0.002196426343730274
6417.896963512236,0.002213491728185414
6417.897963284158,0.002230476887141878
6417.898963056081,0.0022473806594310998
6417.899962828004,0.0022642018653960673
6417.900962599927,0.0022809393076600277
6417.90196237185,0.0022975917719090726
6417.902962143772,0.00231415802768817
6417.903961915695,0.0023306368292099595
6417.904961687618,0.0023470269161754136
6417.905961459541,0.002363327014605352
6417.906961231463,0.0023795358376817086
6417.907961003386,0.002395652086597446
6417.9089607753085,0.0024116744514139873
6417.909960547232,0.002427601611925073
6417.910960319155,0.0024434322385260003
6417.911960091077,0.002459164993087302
6417.912959863,0.0024747985298320826
6417.913959634922,0.0024903314962164335
6417.914959406845,0.0025057625338125488
6417.915959178768,0.0025210902791943535
6417.916958950691,0.0025363133648255744
6417.917958722614,0.0025514304199502355
6417.918958494536,0.0025664400714855468
6417.919958266459,0.0025813409449170744
6417.920958038382,0.0025961316651959402
6417.921957810305,0.0026108108576376084
6417.922957582227,0.00262537714882162
6417.92395735415,0.0026398291674914333
6417.9249571260725,0.0026541655454533687
6417.925956897996,0.002668384918473539
6417.926956669919,0.002682485927171568
6417.927956441841,0.0026964672179097824
6417.928956213764,0.002710327443676399
6417.929955985686,0.0027240652649608995
6417.930955757609,0.002737679350619425
6417.931955529532,0.002751168378727569
6417.932955301455,0.0027645310374175697
6417.933955073378,0.0027777660256966077
6417.9349548453,0.0027908720542427685
6417.935954617223,0.002803847846175275
6417.936954389146,0.002816692137795786
6417.937954161069,0.0028294036792978748
6417.938953932991,0.00284198123544224
6417.939953704914,0.0028544235861957135
6417.9409534768365,0.002866729527332702
6417.94195324876,0.002878897870998263
6417.942953020683,0.002890927446232571
6417.943952792605,0.002902817099457017
6417.944952564528,0.002914565694922628
6417.94595233645,0.0029261721151218117
6417.946952108374,0.0029376352611647006
6417.947951880296,0.0029489540531215013
6417.948951652219,0.002960127430332321
6417.949951424142,0.0029711543516860264
6417.950951196064,0.00298203379586978
6417.951950967987,0.0029927647615910317
6417.95295073991,0.003003346267773892
6417.953950511833,0.0030137773537319257
6417.954950283755,0.0030240570793195402
6417.955950055678,0.0030341845250641893
6417.9569498276005,0.003044158792281635
6417.957949599524,0.003053979003176461
6417.958949371447,0.0030636443009298335
6417.959949143369,0.0030731538497762102
6417.960948915292,0.003082506835070217
6417.961948687214,0.0030917024633443715
6417.962948459138,0.003100739962357717
6417.96394823106,0.0031096185811348323
6417.964948002983,0.0031183375899940867
6417.9659477749055,0.003126896280563482
6417.966947546828,0.003135293965781987
6417.967947318751,0.0031435299798839565
6417.968947090674,0.0031516036783641086
6417.969946862597,0.003159514437920618
6417.970946634519,0.00316726165637421
6417.971946406442,0.0031748447525615847
6417.9729461783645,0.003182263166202048
6417.973945950288,0.0031895163577367884
6417.974945722211,0.003196603808140798
6417.975945494133,0.0032035250187079254
6417.976945266056,0.003210279510809975
6417.977945037978,0.003216866825631123
6417.978944809902,0.003223286523879216
6417.979944581824,0.0032295381854757655
6417.980944353747,0.0032356214092266636
6417.9819441256695,0.0032415358124758607
6417.982943897592,0.0032472810307444316
6417.983943669515,0.0032528567173576526
6417.984943441438,0.003258262543062908
6417.985943213361,0.003263498195641392
6417.986942985283,0.0032685633795166993
6417.987942757206,0.0032734578153634573
6417.9889425291285,0.0032781812397191233
6417.989942301052,0.003282733404601921
6417.990942072975,0.0032871140771376286
6417.991941844897,0.0032913230391975862
6417.99294161682,0.0032953600870498346
6417.993941388742,0.003299225031024855
6417.994941160666,0.0033029176951969207
6417.995940932588,0.0033064379170816643
6417.996940704511,0.003309785547350207
6417.9979404764335,0.0033129604495600977
6417.998940248356,0.0033159624999033674
6417.999940020279,0.0033187915869722024
6418.000939792202,0.003321447611542989
6418.001939564125,0.003323930486379724
6418.002939336047,0.0033262401360579195
6418.00393910797,0.0033283764968101404
6418.0049388798925,0.003330339516394159
6418.005938651816,0.0033321291539844533
6418.006938423739,0.0033337453800874766
6418.007938195661,0.003335188176480851
6418.008937967584,0.0033364575361764324
6418.009937739506,0.003337553463407031
6418.01093751143,0.0033384759736363955
6418.011937283352,0.0033392250935918447
6418.012937055275,0.003339800861318624
6418.0139368271975,0.00334020332625462
6418.01493659912,0.003340432549323618
6418.015936371043,0.003340488603044799
6418.016936142966,0.003340371571655826
6418.017935914889,0.0033400815512466915
6418.018935686811,0.003339618649901577
6418.019935458734,0.0033389829878462305
6418.0209352306565,0.0033381746975987823
6418.02193500258,0.003337193924122375
6418.022934774503,0.0033360408249783566
6418.023934546425,0.0033347155704790705
6418.024934318348,0.003333218343839445
6418.02593409027,0.003331549341326634
6418.026933862194,0.003329708772406962
6418.027933634116,0.003327696859889369
6418.028933406039,0.0033255138400645388
6418.0299331779615,0.003323159962838852
6418.030932949884,0.003320635491862306
6418.031932721808,0.003317940704649528
6418.03293249373,0.0033150758926930772
6418.033932265653,0.0033120413615682566
6418.034932037575,0.003308837431028862
6418.035931809498,0.003305464435093505
6418.0369315814205,0.00330192272212249
6418.037931353344,0.0032982126548855985
6418.038931125267,0.003294334610621552
6418.039930897189,0.003290288981090302
6418.040930669112,0.003286076172619622
6418.041930441034,0.0032816966061477216
6418.042930212958,0.0032771507172637457
6418.04392998488,0.0032724389562479796
6418.044929756803,0.0032675617881134287
6418.0459295287255,0.003262519692650062
6418.046929300648,0.00325731316447253
6418.047929072572,0.0032519427130715995
6418.048928844494,0.003246408862868964
6418.049928616417,0.003240712153274609
6418.050928388339,0.0032348531387455088
6418.051928160262,0.003228832388844178
6418.0529279321845,0.003222650488295413
6418.053927704108,0.0032163080370394437
6418.054927476031,0.003209805650279576
6418.055927247953,0.0032031439585222757
6418.056927019876,0.0031963236076075125
6418.057926791798,0.00318934525872703
6418.058926563722,0.003182209588428178
6418.059926335644,0.0031749172886009576
6418.060926107567,0.0031674690664461286
6418.0619258794895,0.0031598656444224997
6418.062925651412,0.0031521077601718707
6418.063925423336,0.0031441961664204206
6418.064925195258,0.003136131630855651
6418.065924967181,0.0031279149359782345
6418.066924739103,0.003119546878928345
6418.067924511026,0.003111028271286284
6418.0689242829485,0.0031023599388473916
6418.069924054872,0.003093542721371406
6418.070923826795,0.003084577472306533
6418.071923598717,0.0030754650584884986
6418.07292337064,0.003066206359814876
6418.073923142562,0.00305680226889498
6418.074922914486,0.003047253690675731
6418.075922686408,0.0030375615420440614
6418.076922458331,0.003027726751406699
6418.0779222302535,0.0030177502582483876
6418.078922002176,0.0030076330126697663
6418.0799217741,0.0029973759749061467
6418.080921546022,0.0029869801148283094
6418.081921317945,0.0029764464114262223
6418.082921089867,0.002965775852276316
6418.08392086179,0.0029549694329926907
6418.0849206337125,0.0029440281566624612
6418.085920405636,0.002932953033265356
6418.086920177559,0.0029217450790777946
6418.087919949481,0.0029104053160618894
6418.088919721404,0.0028989347712401574
6418.089919493326,0.0028873344760571166
6418.09091926525,0.0028756054657293213
6418.091919037172,0.0028637487785857034
6418.092918809095,0.0028517654554003403
6418.0939185810175,0.002839656538719918
6418.09491835294,0.002827423072188241
6418.095918124864,0.00281506609987016
6418.096917896786,0.0028025866655772475
6418.097917668709,0.002789985812197507
6418.098917440631,0.002777264581031359
6418.099917212554,0.0027644240111361295
6418.1009169844765,0.002751465138681326
6418.1019167564,0.002738388996317094
6418.102916528323,0.002725196612558434
6418.103916300245,0.002711889011187977
6418.104916072168,0.002698467210680333
6418.10591584409,0.002684932223651241
6418.106915616014,0.0026712850563349187
6418.107915387936,0.0026575267080931188
6418.108915159859,0.0026436581709594134
6418.1099149317815,0.0026296804292221723
6418.110914703704,0.002615594459049575
6418.111914475628,0.0026014012281598215
6418.11291424755,0.0025871016955395718
6418.113914019473,0.0025726968112135627
6418.114913791395,0.0025581875160683013
6418.115913563318,0.002543574741732751
6418.116913335241,0.0025288594105189123
6418.117913107164,0.0025140424354251727
6418.118912879087,0.002499124720205212
6418.119912651009,0.0024841071595050664
6418.120912422932,0.0024689906390706682
6418.121912194854,0.002453776036027733
6418.122911966778,0.002438464219235232
6418.1239117387,0.0024230560497128743
6418.124911510623,0.0024075523811420588
6418.1259112825455,0.002391954060438754
6418.126911054468,0.0023762619283957923
6418.127910826392,0.002360476820391297
6418.128910598314,0.002344599567159394
6418.129910370237,0.002328630995619029
6418.130910142159,0.002312571929756584
6418.131909914082,0.0022964231915580053
6418.132909686005,0.002280185601986292
6418.133909457928,0.002263859982000401
6418.134909229851,0.0022474471536119115
6418.135909001773,0.002230947940976089
6418.136908773696,0.002214363171514249
6418.137908545618,0.002197693677064498
6418.138908317542,0.002180940295057967
6418.139908089464,0.002164103869717523
6418.140907861387,0.00214718525327564
6418.1419076333095,0.002130185307207712
6418.142907405232,0.0021131049034766062
6418.143907177156,0.002095944925783804
6418.144906949078,0.002078706270822122
6418.145906721001,0.0020613898495248175
6418.146906492923,0.002043996588305884
6418.147906264846,0.0020265274302865605
6418.148906036769,0.0020089833365034317
6418.149905808692,0.0019913652870939555
6418.150905580615,0.0019736742824558113
6418.151905352537,0.0019559113443770064
6418.15290512446,0.0019380775171342517
6418.153904896382,0.001920173868557582
6418.154904668306,0.001902201491059576
6418.155904440228,0.001884161502627721
6418.156904212151,0.0018660550477784623
6418.1579039840735,0.0018478832984712978
6418.158903755996,0.0018296474549809394
6418.15990352792,0.0018113487467251851
6418.160903299842,0.0017929884330458526
6418.161903071765,0.001774567803940003
6418.162902843687,0.001756088180738798
6418.16390261561,0.001737550916731641
6418.164902387533,0.0017189573977337046
6418.165902159456,0.001700309042595459
6418.166901931379,0.0016816073036533864
6418.167901703301,0.0016628536671216218
6418.168901475224,0.0016440496534247632
6418.169901247147,0.0016251968174725718
6418.17090101907,0.0016062967488776898
6418.171900790992,0.0015873510721178736
6418.172900562915,0.0015683614466445682
6418.1739003348375,0.001549329566939953
6418.17490010676,0.0015302571625248557
6418.175899878684,0.0015111459979201781
6418.176899650606,0.0014919978725646606
6418.177899422529,0.0014728146206919618
6418.178899194451,0.0014535981111701186
6418.179898966374,0.001434350247306483
6418.180898738297,0.0014150729666212198
6418.18189851022,0.0013957682405924168
6418.182898282143,0.0013764380743758176
6418.183898054065,0.0013570845065021514
6418.184897825988,0.0013377096085550246
6418.185897597911,0.0013183154848323303
6418.186897369834,0.0012989042719941213
6418.187897141756,0.0012794781386998779
6418.188896913679,0.001260039285238059
6418.1898966856015,0.0012405899431507997
6418.190896457524,0.001221132374856598
6418.191896229448,0.0012016688732738366
6418.19289600137,0.0011822017614479881
6418.193895773293,0.0011627333921853454
6418.194895545215,0.001143266147696066
6418.195895317138,0.00112380243924922
6418.196895089061,0.001104344706842346
6418.197894860984,0.0010848954188878023
6418.198894632907,0.0010654570719179364
6418.199894404829,0.001046032190310853
6418.200894176752,0.00102662332603834
6418.201893948675,0.0010072330584373205
6418.202893720598,0.000987863994006011
6418.20389349252,0.0009685187662257603
6418.204893264443,0.0009492000354092542
6418.2058930363655,0.0009299104885753779
6418.206892808288,0.000910652839350498
6418.207892580212,0.0008914298278952536
6418.208892352134,0.0008722442208551647
6418.209892124057,0.0008530988113325646
6418.210891895979,0.0008339964188766284
6418.211891667902,0.0008149398894877251
6418.212891439825,0.0007959320956319714
6418.213891211748,0.000776975936261721
6418.214890983671,0.0007580743368376847
6418.215890755593,0.0007392302493483837
6418.216890527516,0.0007204466523226246
6418.217890299439,0.0007017265508306083
6418.218890071362,0.0006830729764691377
6418.219889843284,0.0006644889873261649
6418.220889615207,0.0006459776679196499
6418.2218893871295,0.0006275421291054498
6418.222889159052,0.0006091855079488004
6418.223888930976,0.0005909109675539929
6418.224888702898,0.0005727216968471404
6418.225888474821,0.000554620910307449
6418.226888246743,0.0005366118476430973
6418.227888018666,0.0005186977734085868
6418.228887790589,0.0005008819765611955
6418.229887562512,0.0004831677699549107
6418.230887334435,0.000465558489770917
6418.231887106357,0.0004480574948843761
6418.23288687828,0.0004306681661678588
6418.233886650203,0.0004133939057323812
6418.234886422126,0.0003962381361075542
6418.235886194048,0.00037920429936286236
6418.236885965971,0.00036229585617253565
6418.2378857378935,0.00034551628482684535
6418.238885509816,0.00032886908019293576
6418.23988528174,0.0003123577526284818
6418.240885053662,0.0002959858268515205
6418.241884825585,0.00027975684076971414
6418.242884597507,0.0002636743442720517
6418.24388436943,0.0002477418979855762
6418.244884141353,0.00023196307199918107
6418.245883913276,0.0002163414445559126
6418.246883685199,0.0002008806007146253
6418.247883457121,0.00018558413098132366
6418.248883229044,0.00017045562991011237
6418.249883000967,0.00015549869467338062
6418.25088277289,0.00014071692360066555
6418.251882544812,0.00012611391468555927
6418.252882316735,0.00011169326406002729
6418.2538820886575,9.7458564435571e-05
6418.254881860581,8.341340351079088e-05
6418.255881632504,6.956136234509164e-05
6418.256881404426,5.590601369849963e-05
6418.257881176349,4.2450920337805405e-05
6418.258880948271,2.9199633309459524e-05
6418.259880720194,1.6155690179811804e-05
6418.260880492117,3.3226132433841947e-06
6418.26188026404,-9.296092300083286e-06
6418.262880035963,-2.1696940199038324e-05
6418.263879807885,-3.387646503312377e-05
6418.264879579808,-4.583122412478069e-05
6418.265879351731,-5.7557799478195e-05
6418.266879123654,-6.905279974402361e-05
6418.267878895576,-8.031286220799365e-05
6418.268878667499,-9.133465480113388e-05
6418.2698784394215,-0.00010211487812910184
6418.270878211345,-0.00011265026751784178
6418.271877983268,-0.00012293759507266122
6418.27287775519,-0.000132973671747754
6418.273877527113,-0.00014275534942321998
6418.274877299035,-0.00015227952298672875
6418.275877070958,-0.000161543132417137
6418.276876842881,-0.00017054316486758272
6418.277876614804,-0.00017927665674582593
6418.278876386727,-0.00018774069578986273
6418.279876158649,-0.00019593242313707568
6418.280875930572,-0.00020384903538537714
6418.281875702495,-0.00021148778664493244
6418.282875474418,-0.00021884599057911289
6418.28387524634,-0.00022592102243333345
6418.284875018263,-0.0002327103210503963
6418.2858747901855,-0.00023921139087093
6418.286874562109,-0.0002454218039175234
6418.287874334032,-0.00025133920176123673
6418.288874105954,-0.00025696129746934066
6418.289873877877,-0.0002622858775333719
6418.290873649799,-0.00026731080377687626
6418.291873421722,-0.00027203401524249834
6418.292873193645,-0.0002764535300583369
6418.293872965568,-0.00028056744728367403
6418.294872737491,-0.0002843739487342673
6418.295872509413,-0.00028787130078735594
6418.296872281336,-0.00029105785616636995
6418.297872053259,-0.0002939320557050782
6418.298871825182,-0.0002964924300905885
6418.299871597104,-0.0002987376015842606
6418.300871369027,-0.00030066628571924806
6418.3018711409495,-0.0003022772929730856
6418.302870912873,-0.0003035695304135275
6418.303870684796,-0.0003045420033157601
6418.304870456718,-0.00030519381674917425
6418.305870228641,-0.000305524177132084
6418.306870000563,-0.0003055323937530766
6418.307869772487,-0.00030521788025801935
6418.308869544409,-0.0003045801561020685
6418.309869316332,-0.00030361884796626927
6418.310869088255,-0.00030233369113847344
6418.311868860177,-0.00030072453085833373
6418.3128686321,-0.00029879132362610467
6418.313868404023,-0.0002965341384749417
6418.314868175946,-0.0002939531582064009
6418.315867947868,-0.00029104868058893923
6418.316867719791,-0.00028782111951939526
6418.3178674917135,-0.0002842710061476664
6418.318867263637,-0.000280398989965029
6418.31986703556,-0.000276205839856722
6418.320866807482,-0.00027169244511950714
6418.321866579405,-0.00026685981644493823
6418.322866351327,-0.0002617090868690468
6418.323866123251,-0.00025624151268909684
6418.324865895173,-0.00025045847434797437
6418.325865667096,-0.00024436147728664886
6418.326865439019,-0.0002379521527649709
6418.327865210941,-0.0002312322586508656
6418.328864982864,-0.00022420368017776987
6418.329864754787,-0.0002168684306699644
6418.33086452671,-0.00020922865223528924
6418.331864298632,-0.000201286616424624
6418.332864070555,-0.00019304472485747972
6418.3338638424775,-0.00018450550981310645
6418.334863614401,-0.0001756716347866854
6418.335863386324,-0.00016654589501043776
6418.336863158246,-0.00015713121793980075
6418.337862930169,-0.0001474306637051252
6418.338862702091,-0.0001374474255295677
6418.339862474015,-0.0001271848301139401
6418.340862245937,-0.00011664633798923608
6418.34186201786,-0.00010583554383741788
6418.342861789783,-9.475617678087325e-05
6418.343861561705,-8.341210064081478e-05
6418.344861333628,-7.180731416483445e-05
6418.345861105551,-5.9945951223870867e-05
6418.346860877474,-4.7832280978980045e-05
6418.347860649396,-3.5470708018485255e-05
6418.348860421319,-2.2865772466263147e-05
6418.3498601932415,-1.0022150062048188e-05
6418.350859965165,3.0553477853357594e-06
6418.351859737088,1.636177397099817e-05
6418.35285950901,2.9892045692634695e-05
6418.353859280933,4.364094447444032e-05
6418.354859052855,5.7603116216165364e-05
6418.355858824779,7.17730712673852e-05
6418.356858596701,8.614518452713945e-05
6418.357858368624,0.00010071369556908201
6418.3588581405465,0.00011547270879222403
6418.359857912469,0.00013041619359732714
6418.360857684392,0.00014553798458907547
6418.361857456315,0.00016083178180434192
6418.362857228238,0.00017629115096714874
6418.36385700016,0.00019190952377127183
6418.364856772083,0.0002076801981918169
6418.3658565440055,0.0002235963388274744
6418.366856315929,0.00023965097727550938
6418.367856087852,0.0002558370125418478
6418.368855859774,0.0002721472114888769
6418.369855631697,0.0002885742093237883
6418.370855403619,0.00030511051013046287
6418.371855175543,0.0003217484874480228
6418.372854947465,0.00033848038489925055
6418.373854719388,0.0003552983168721021
6418.374854491311,0.0003721942692575162
6418.375854263233,0.0003891601002466531
6418.376854035156,0.00040618754119059474
6418.377853807079,0.00042326819752540795
6418.378853579002,0.00044039354976534314
6418.379853350924,0.00045755495456683155
6418.380853122847,0.00047474364586586574
6418.3818528947695,0.0004919507360913155
6418.382852666693,0.0005091672174567384
6418.383852438616,0.0005263839633332959
6418.384852210538,0.0005435917297064543
6418.385851982461,0.0005607811567192291
6418.386851754383,0.0005779427703047864
6418.387851526307,0.0005950669839112478
6418.388851298229,0.00061214410032153
6418.389851070152,0.000629164313571005
6418.3908508420745,0.0006461177109656876
6418.391850613997,0.0006629942752035694
6418.392850385921,0.0006797838866016522
6418.393850157843,0.0006964763254311882
6418.394849929766,0.0007130612743636189
6418.395849701688,0.0007295283210296737
6418.396849473611,0.0007458669606940172
6418.3978492455335,0.0007620665990476796
6418.398849017457,0.0007781165551202563
6418.39984878938,0.0007940060643135469
6418.400848561302,0.0008097242815579479
6418.401848333225,0.000825260284592566
6418.402848105147,0.0008406030773696873
6418.403847877071,0.0008557415935839706
6418.404847648993,0.0008706647003265283
6418.405847420916,0.0008853612018639342
6418.406847192839,0.00089981984354213
6418.407846964761,0.0009140293158151631
6418.408846736685,0.0009279782583986645
6418.409846508607,0.0009416552645479294
6418.41084628053,0.0009550488854604001
6418.411846052452,0.000968147634802312
6418.412845824375,0.0009809399933592771
6418.4138455962975,0.0009934144138106747
6418.414845368221,0.0010055593256278672
6418.415845140144,0.0010173631400964237
6418.416844912066,0.0010288142554626502
6418.417844683989,0.001039901062204769
6418.418844455911,0.0010506119484290344
6418.419844227835,0.0010609353053909014
6418.420843999757,0.001070859533141071
6418.42184377168,0.001080373046295834
6418.4228435436025,0.0010894642799307004
6418.423843315525,0.0010981216955958792
6418.424843087449,0.0011063337874519083
6418.425842859371,0.0011140890885236296
6418.426842631294,0.0011213761770708052
6418.427842403216,0.0011281836830739156
6418.428842175139,0.0011345002948339792
6418.4298419470615,0.0011403147656854943
6418.430841718985,0.0011456159208217557
6418.431841490908,0.001150392664231759
6418.43284126283,0.0011546339857477017
6418.433841034753,0.0011583289682017015
6418.434840806675,0.0011614667946898572
6418.435840578599,0.0011640367559411732
6418.436840350521,0.0011660282577882202
6418.437840122444,0.0011674308287356727
6418.438839894367,0.0011682341276220466
6418.439839666289,0.0011684279513690388
6418.440839438213,0.0011680022428118932
6418.441839210135,0.0011669470986032152
6418.442838982058,0.001165252777181725
6418.44383875398,0.0011629097067966342
6418.444838525903,0.0011599084935777018
6418.4458382978255,0.001156239929640605
6418.446838069749,0.0011518950012170156
6418.447837841672,0.0011468648967987035
6418.448837613594,0.0011411410152850506
6418.449837385517,0.0011347149741234728
6418.450837157439,0.001127578617432396
6418.451836929363,0.0011197240240965382
6418.452836701285,0.0011111435158243379
6418.453836473208,0.0011018296651574269
6418.4548362451305,0.0010917753034220827
6418.455836017053,0.00108097352861261
6418.456835788977,0.0010694177131965724
6418.457835560899,0.0010571015118317167
6418.458835332822,0.0010440188689842948
6418.459835104744,0.0010301640264383076
6418.460834876667,0.0010155315306849524
6418.4618346485895,0.001000116240181248
6418.462834420513,0.0009839133324664488
6418.463834192436,0.0009669183111244511
6418.464833964358,0.0009491270125799732
6418.465833736281,0.0009305356127158605
6418.466833508203,0.000911140633298454
6418.467833280127,0.0008909389481975885
6418.468833052049,0.0008699277893874916
6418.469832823972,0.0008481047527146914
6418.470832595895,0.0008254678034190418
6418.471832367817,0.000802015281394175
6418.472832139741,0.0007777459061740362
6418.473831911663,0.0007526587816326272
6418.474831683586,0.0007267534003846195
6418.475831455508,0.000700029647875067
6418.476831227431,0.000672487806147052
6418.477830999354,0.0006441285572767102
6418.478830771277,0.0006149529864657183
6418.4798305432,0.0005849625847819743
6418.480830315122,0.0005541592515398809
6418.481830087045,0.0005225452963123823
6418.482829858967,0.0004901234405677273
6418.483829630891,0.00045689681892484133
6418.484829402813,0.00042286898002220186
6418.485829174736,0.00038804388699620156
6418.4868289466585,0.0003524259175661605
6418.487828718581,0.00031601986372439947
6418.488828490505,0.0002788309310310921
6418.489828262427,0.00024086473751495279
6418.49082803435,0.00020212731218217182
6418.491827806272,0.00016262509313735168
6418.492827578195,0.00012236492532151242
6418.493827350118,8.135405787350673e-05
6418.494827122041,3.9600141122391815e-05
6418.495826893964,-2.8887767805846283e-06
6418.496826665886,-4.61042535807448e-05
6418.497826437809,-9.003745697902761e-05
6418.498826209731,-0.0001346791690202183
6418.499825981655,-0.00018001979079878983
6418.500825753577,-0.0002260493474704672
6418.5018255255,-0.000272757493557412
6418.502825297423,-0.00032013351853475073
6418.503825069345,-0.0003681663526859922
6418.504824841269,-0.00041684457321467975
6418.505824613191,-0.0004661564105994348
6418.506824385114,-0.0005160897551794225
6418.507824157036,-0.0005666321639572726
6418.508823928959,-0.0006177708676066277
6418.509823700882,-0.0006694927776717634
6418.510823472805,-0.0007217844939470619
6418.511823244728,-0.0007746323120244961
6418.51282301665,-0.0008280222309976674
6418.513822788573,-0.0008819399613113581
6418.514822560495,-0.0009363709327460316
6418.515822332419,-0.0009913003025272338
6418.516822104341,-0.0010467129635504321
6418.517821876264,-0.0011025935527124429
6418.5188216481865,-0.0011589264593412244
6418.519821420109,-0.001215695833716461
6418.520821192033,-0.001272885595674001
6418.521820963955,-0.001330479443287829
6418.522820735878,-0.0013884608616238079
6418.5238205078,-0.0014468131315598866
6418.524820279723,-0.0015055193386677899
6418.525820051646,-0.0015645623821513859
6418.526819823569,-0.0016239249838369944
6418.527819595492,-0.0016835896972108872
6418.528819367414,-0.0017435389164991986
6418.529819139337,-0.0018037548857854453
6418.53081891126,-0.0018642197081608879
6418.531818683183,-0.0019249153549030663
6418.532818455105,-0.001985823674677958
6418.533818227028,-0.002046926402761302
6418.534817998951,-0.002108205170274612
6418.535817770873,-0.0021696415134312692
6418.536817542797,-0.0022312168827878743
6418.537817314719,-0.0022929126524957565
6418.538817086642,-0.0023547101295472678
6418.539816858564,-0.0024165905630112367
6418.540816630487,-0.00247853515325177
6418.54181640241,-0.0025405250611244736
6418.542816174333,-0.0026025414171441654
6418.543815946256,-0.002664565330618209
6418.544815718178,-0.0027265778987397593
6418.545815490101,-0.0027885602156353865
6418.546815262024,-0.002850493381361707
6418.547815033947,-0.0029123585108457627
6418.548814805869,-0.0029741367427639194
6418.549814577792,-0.0030358092483539737
6418.5508143497145,-0.003097357240155052
6418.551814121637,-0.003158761980669685
6418.552813893561,-0.0032200047909423063
6418.553813665483,-0.003281067059048292
6418.554813437406,-0.00334193024848763
6418.555813209328,-0.0034025759064773447
6418.556812981251,-0.003462985672136939
6418.557812753174,-0.0035231412845613775
6418.558812525097,-0.0035830245907764904
6418.55981229702,-0.0036426175535721546
6418.560812068942,-0.0037019022592091402
6418.561811840865,-0.003760860924996117
6418.562811612788,-0.0038194759067338912
6418.563811384711,-0.003877729706024485
6418.564811156633,-0.003935604977443128
6418.565810928556,-0.003993084535571593
6418.566810700479,-0.004050151361891571
6418.567810472401,-0.004106788611536963
6418.568810244325,-0.004162979619904065
6418.569810016247,-0.004218707909118641
6418.57080978817,-0.004273957194358844
6418.571809560092,-0.004328711390032872
6418.572809332015,-0.004382954615810103
6418.573809103938,-0.004436671202504363
6418.574808875861,-0.004489845697807835
6418.575808647784,-0.004542462871874047
6418.576808419706,-0.004594507722748305
6418.577808191629,-0.00464596548164397
6418.578807963552,-0.004696821618062958
6418.579807735475,-0.0047470618447589576
6418.580807507397,-0.004796672122541915
6418.58180727932,-0.004845638664922439
6418.5828070512425,-0.004893947942594838
6418.583806823165,-0.0049415866877574955
6418.584806595089,-0.004988541898269306
6418.585806367011,-0.005034800841640881
6418.586806138934,-0.005080351058859222
6418.587805910856,-0.005125180368044609
6418.588805682779,-0.0051692768679385305
6418.589805454702,-0.005212628941221584
6418.590805226625,-0.005255225257660443
6418.591804998548,-0.0052970547770831425
6418.59280477047,-0.005338106752182091
6418.593804542393,-0.005378370731144523
6418.594804314316,-0.00541783656011043
6418.595804086239,-0.005456494385458569
6418.596803858161,-0.005494334655921708
6418.597803630084,-0.005531348124532929
6418.598803402007,-0.005567525850405393
6418.599803173929,-0.0056028592003484114
6418.600802945853,-0.005637339850323002
6418.601802717775,-0.0056709597867402066
6418.602802489698,-0.005703711307605412
6418.60380226162,-0.005735587023511723
6418.604802033543,-0.005766579858485208
6418.605801805466,-0.005796683050684504
6418.606801577389,-0.00582589015295704
6418.607801349312,-0.0058541950332539824
6418.608801121234,-0.005881591874905926
6418.609800893157,-0.005908075176761401
6418.61080066508,-0.00593363975319037
6418.611800437003,-0.005958280733954943
6418.612800208925,-0.005981993563949629
6418.613799980848,-0.006004774002813444
6418.6147997527705,-0.006026618124416131
6418.615799524694,-0.006047522316220744
6418.616799296617,-0.00606748327852481
6418.617799068539,-0.006086498023582361
6418.618798840462,-0.006104563874609188
6418.619798612384,-0.0061216784646738786
6418.620798384307,-0.006137839735477288
6418.62179815623,-0.006153045936023212
6418.622797928153,-0.006167295621182984
6418.623797700076,-0.006180587650156727
6418.624797471998,-0.006192921184833921
6418.625797243921,-0.006204295688055977
6418.626797015844,-0.006214710921783598
6418.627796787767,-0.006224166945171888
6418.628796559689,-0.006232664112556223
6418.629796331612,-0.006240203071351967
6418.630796103535,-0.00624678475987104
6418.631795875458,-0.0062524104050581345
6418.632795647381,-0.00625708152014914
6418.633795419303,-0.006260799902254112
6418.634795191226,-0.006263567629866868
6418.635794963148,-0.006265387060303174
6418.636794735071,-0.006266260827069456
6418.637794506994,-0.006266191837164043
6418.638794278917,-0.006265183268313014
6418.63979405084,-0.006263238566142956
6418.640793822762,-0.006260361441292979
6418.641793594685,-0.006256555866468424
6418.642793366608,-0.006251826073438643
6418.643793138531,-0.006246176549981017
6418.644792910453,-0.006239612036773221
6418.645792682376,-0.006232137524235385
6418.6467924542985,-0.006223758249323606
6418.647792226222,-0.006214479692275986
6418.648791998145,-0.006204307573312137
6418.649791770067,-0.00619324784928699
6418.65079154199,-0.006181306710299542
6418.651791313912,-0.006168490576257136
6418.652791085835,-0.006154806093395668
6418.653790857758,-0.006140260130756051
6418.654790629681,-0.006124859776617096
6418.655790401604,-0.00610861233488482
6418.656790173526,-0.006091525321438055
6418.657789945449,-0.006073606460430193
6418.658789717372,-0.006054863680546771
6418.659789489295,-0.006035305111218613
6418.660789261217,-0.006014939078790175
6418.66178903314,-0.005993774102642729
6418.662788805063,-0.005971818891271932
6418.663788576986,-0.005949082338319382
6418.664788348909,-0.005925573518557711
6418.665788120831,-0.005901301683828879
6418.666787892754,-0.005876276258935344
6418.667787664676,-0.005850506837483886
6418.6687874366,-0.005824003177681987
6418.669787208522,-0.0057967751980867194
6418.670786980445,-0.005768832973306271
6418.671786752368,-0.00574018672965442
6418.67278652429,-0.00571084684075851
6418.673786296213,-0.00568082382312179
6418.674786068136,-0.005650128331641318
6418.675785840059,-0.005618771155083052
6418.676785611981,-0.0055867632115160805
6418.677785383904,-0.005554115543708236
6418.6787851558265,-0.0055208393144855665
6418.67978492775,-0.005486945802058227
6418.680784699673,-0.005452446395315342
6418.681784471595,-0.005417352589091306
6418.682784243518,-0.005381675979405798
6418.68378401544,-0.005345428258679537
6418.684783787364,-0.00530862121092763
6418.685783559286,-0.005271266706932131
6418.686783331209,-0.005233376699395319
6418.687783103132,-0.005194963218075053
6418.688782875054,-0.005156038364903482
6418.689782646977,-0.005116614309090353
6418.6907824189,-0.005076703282212177
6418.691782190823,-0.005036317573288647
6418.692781962745,-0.004995469523847924
6418.693781734668,-0.004954171522982781
6418.694781506591,-0.004912436002399971
6418.695781278514,-0.004870275431465691
6418.696781050437,-0.004827702312250356
6418.697780822359,-0.004784729174576296
6418.698780594282,-0.004741368571072158
6418.699780366204,-0.0046976330722378916
6418.700780138128,-0.004653535261524122
6418.70177991005,-0.0046090877304295055
6418.702779681973,-0.004564303073619359
6418.703779453896,-0.004519193884068508
6418.704779225818,-0.004473772748230904
6418.705778997741,-0.0044280522412382724
6418.706778769664,-0.004382044922129744
6418.707778541587,-0.0043357633291143186
6418.708778313509,-0.004289219974867904
6418.709778085432,-0.004242427341866688
6418.7107778573545,-0.004195397877758629
6418.711777629278,-0.004148143990774818
6418.712777401201,-0.004100678045182366
6418.713777173123,-0.00405301235678028
6418.714776945046,-0.004005159188439499
6418.715776716968,-0.00395713074568794
6418.716776488892,-0.0039089391723411155
6418.717776260814,-0.003860596546178605
6418.718776032737,-0.003812114874666456
6418.71977580466,-0.003763506090725489
6418.720775576582,-0.003714782048545412
6418.721775348505,-0.003665954519444729
6418.722775120428,-0.003617035187776491
6418.723774892351,-0.003568035646880103
6418.724774664273,-0.003518967395079528
6418.725774436196,-0.003469841831728351
6418.726774208119,-0.0034206702533022032
6418.727773980042,-0.0033714638495390544
6418.728773751965,-0.0033222336996279176
6418.729773523887,-0.003272990768446645
6418.73077329581,-0.003223745902849809
6418.731773067732,-0.0031745098280081758
6418.732772839656,-0.003125293143801913
6418.733772611578,-0.0030761063212703566
6418.734772383501,-0.003026959699121752
6418.735772155424,-0.0029778634803068068
6418.736771927346,-0.0029288277286600617
6418.737771699269,-0.0028798623656129604
6418.738771471192,-0.0028309771669821886
6418.739771243115,-0.0027821817598363717
6418.740771015037,-0.002733485619443737
6418.74177078696,-0.002684898066302909
6418.7427705588825,-0.0026364282632586676
6418.743770330806,-0.0025880852127043116
6418.744770102729,-0.002539877753872154
6418.745769874651,-0.002491814560213667
6418.746769646574,-0.0024439041368707975
6418.747769418496,-0.002396154818239917
6418.74876919042,-0.0023485747656297766
6418.749768962342,-0.002301171965014653
6418.750768734265,-0.002253954224883631
6418.751768506188,-0.0022069291741866883
6418.75276827811,-0.0021601042603780173
6418.753768050034,-0.0021134867475568566
6418.754767821956,-0.0020670837147060864
6418.755767593879,-0.002020902054028959
6418.756767365801,-0.0019749484693845683
6418.757767137724,-0.0019292294748229186
6418.758766909647,-0.0018837513932206996
6418.75976668157,-0.0018385203550189922
6418.760766453493,-0.001793542297064126
6418.761766225415,-0.001748822961552764
6418.762765997338,-0.001704367895082031
6418.76376576926,-0.0016601824478051684
6418.764765541184,-0.00161627177269283
6418.765765313106,-0.001572640824899775
6418.766765085029,-0.0015292943612363857
6418.767764856952,-0.0014862369397441672
6418.768764628874,-0.0014434729193742095
6418.769764400798,-0.0014010064597675066
6418.77076417272,-0.0013588415211360535
6418.771763944643,-0.001316981864243781
6418.772763716565,-0.0012754310504866433
6418.773763488488,-0.0012341924420715066
6418.7747632604105,-0.0011932692022938569
6418.775763032334,-0.001152664295914681
6418.776762804257,-0.0011123804896371087
6418.777762576179,-0.0010724203526834956
6418.778762348102,-0.0010327862574736166
6418.779762120024,-0.0009934803804045108
6418.780761891948,-0.0009545047027323146
6418.78176166387,-0.0009158610115561658
6418.782761435793,-0.0008775509009040021
6418.783761207716,-0.0008395757729198754
6418.784760979638,-0.000801936839152241
6418.785760751562,-0.0007646351219425566
6418.786760523484,-0.0007276714559133572
6418.787760295407,-0.0006910464895547174
6418.788760067329,-0.0006547606869076567
6418.789759839252,-0.0006188143293426183
6418.790759611175,-0.0005832075174306874
6418.791759383098,-0.0005479401729047714
6418.792759155021,-0.000513012040707543
6418.793758926943,-0.0004784226911225976
6418.794758698866,-0.0004441715219849768
6418.795758470788,-0.00041025776096697614
6418.796758242712,-0.0003766804679349745
6418.797758014634,-0.00034343853737288545
6418.798757786557,-0.00031053070086771325
6418.79975755848,-0.0002779555296525981
6418.800757330402,-0.000245711437202649
6418.801757102326,-0.00021379668187883506
6418.802756874248,-0.0001822093696152783
6418.803756646171,-0.0001509474566455126
6418.804756418093,-0.00012000875226367634
6418.805756190016,-8.93909216171848e-05
6418.8067559619385,-5.909148852815452e-05
6418.807755733862,-2.910783834165407e-05
6418.808755505785,5.62779200360031e-07
6418.809755277707,2.9923247059889936e-05
6418.81075504963,5.897657797849267e-05
6418.811754821552,8.772591152727844e-05
6418.812754593476,0.00011617451113080778
6418.813754365398,0.00014432576106433706
6418.814754137321,0.00017218316342386777
6418.815753909244,0.0001997503350684665
6418.816753681166,0.0002270310045343174
6418.81775345309,0.0002540290089199479
6418.818753225012,0.00028074829074204816
6418.819752996935,0.0003071928947613056
6418.820752768857,0.00033336696477770004
6418.82175254078,0.00035927474039475286
6418.822752312703,0.000384920553752296
6418.823752084626,0.0004103088262274196
6418.824751856549,0.0004354440651033715
6418.825751628471,0.0004603308602063237
6418.826751400394,0.00048497388051009786
6418.827751172316,0.0005093778707091554
6418.82875094424,0.0005335476477604248
6418.829750716162,0.0005574880973948189
6418.830750488085,0.0005812041705995699
6418.831750260008,0.0006047008800727614
6418.83275003193,0.00062798329665165
6418.833749803854,0.0006510565457165748
6418.834749575776,0.0006739258035724548
6418.835749347699,0.0006965962938101059
6418.836749119621,0.0007190732836498909
6418.837748891544,0.000741362080270538
6418.838748663467,0.0007634680271262985
6418.83974843539,0.000785396500255933
6418.840748207313,0.0008071529045872891
6418.841747979235,0.0008287426702414424
6418.842747751158,0.0008501712488405079
6418.84374752308,0.000871444109823298
6418.844747295004,0.0008925667367729929
6418.845747066926,0.0009135446237609203
6418.846746838849,0.0009343832717103994
6418.847746610772,0.0009550881847844085
6418.848746382694,0.0009756648668005916
6418.849746154618,0.0009961188176768488
6418.85074592654,0.001016455529910475
6418.851745698463,0.0010366804850935375
6418.852745470385,0.001056799150466934
6418.853745242308,0.0010768169755153666
6418.854745014231,0.0010967393886053146
6418.855744786154,0.0011165717936680011
6418.856744558077,0.0011363195669293385
6418.857744329999,0.0011559880536889048
6418.858744101922,0.0011755825651501423
6418.859743873844,0.001195108375304103
6418.860743645768,0.0012145707178691345
6418.86174341769,0.00123397478328882
6418.862743189613,0.0012533257157902621
6418.863742961536,0.0012726286105044313
6418.864742733458,0.001291888510649909
6418.865742505382,0.0013111104047810254
6418.866742277304,0.0013302992241011938
6418.867742049227,0.001349459839842185
6418.868741821149,0.0013685970607101151
6418.869741593072,0.0013877156303989326
6418.870741364995,0.0014068202251721282
6418.871741136918,0.0014259154515131902
6418.872740908841,0.0014450058438450172
6418.873740680763,0.0014640958623181423
6418.874740452686,0.0014831898906672916
6418.875740224608,0.0015022922341355726
6418.876739996532,0.0015214071174655265
6418.877739768454,0.001540538682956313
6418.878739540377,0.0015596909885864359
6418.8797393123,0.001578868006201538
6418.880739084222,0.0015980736197668353
6418.881738856146,0.0016173116236836537
6418.882738628068,0.0016365857211692737
6418.883738399991,0.0016558995226989119
6418.884738171913,0.001675256544508233
6418.885737943836,0.0016946602071543904
6418.886737715759,0.0017141138341332557
6418.887737487682,0.0017336206505502445
6418.888737259605,0.0017531837818419473
6418.889737031527,0.0017728062525455969
6418.89073680345,0.001792490985113219
6418.891736575373,0.0018122407987672018
6418.892736347296,0.0018320584083940346
6418.893736119218,0.001851946423473152
6418.894735891141,0.0018719073470382004
6418.895735663064,0.0018919435746685602
6418.896735434986,0.0019120573935095997
6418.89773520691,0.001932250981320824
6418.898734978832,0.0019525264055517816
6418.899734750755,0.0019728856224462475
6418.900734522677,0.0019933304761757756
6418.9017342946,0.0020138626980042047
6418.902734066523,0.0020344839054850803
6418.903733838446,0.0020551956016942267
6418.904733610369,0.0020759991744998332
6418.905733382291,0.002096895895872446
6418.906733154214,0.0021178869212371576
6418.907732926137,0.002138973288870097
6418.90873269806,0.002160155919341087
6418.909732469982,0.0021814356150040445
6418.910732241905,0.002202813059536444
6418.911732013828,0.0022242888175289543
6418.91273178575,0.0022458633341261806
6418.913731557674,0.0022675369347193424
6418.914731329596,0.0022893098246916112
6418.915731101519,0.0023111820892167383
6418.916730873441,0.0023331536931114716
6418.917730645364,0.0023552244807421192
6418.918730417287,0.002377394175985435
6418.91973018921,0.0023996623822437786
6418.920729961133,0.002422028582514296
6418.921729733055,0.00244449213951167
6418.922729504978,0.0024670522958438724
6418.923729276901,0.0024897081742403016
6418.924729048824,0.002512458777831693
6418.925728820746,0.0025353029904812614
6418.926728592669,0.0025582395771665514
6418.927728364592,0.0025812671844114743
6418.928728136514,0.002604384340767957
6418.929727908438,0.0026275894573465452
6418.93072768036,0.002650880828395179
6418.931727452283,0.002674256631925261
6418.932727224205,0.002697714930384074
6418.933726996128,0.002721253671372578
6418.934726768051,0.002744870688407692
6418.935726539974,0.0027685637017282583
6418.936726311897,0.002792330319143969
6418.937726083819,0.002816168036926615
6418.938725855742,0.0028400742407430134
6418.939725627665,0.0028640462066288836
6418.940725399588,0.0028880811020028036
6418.94172517151,0.002912175986719199
6418.942724943433,0.002936327814159156
6418.943724715356,0.0029605334323577685
6418.944724487278,0.0029847895851667157
6418.945724259202,0.003009092913450906
6418.946724031124,0.0030334399563182015
6418.947723803047,0.0030578271523814867
6418.948723574969,0.0030822508410526077
6418.949723346892,0.0031067072638679668
6418.950723118815,0.0031311925658458017
6418.951722890738,0.003155702796875418
6418.952722662661,0.0031802339131388924
6418.953722434583,0.003204781778566041
6418.954722206506,0.0032293421663237105
6418.955721978429,0.003253910760340701
6418.956721750352,0.0032784831568698153
6418.957721522274,0.0033030548660886376
6418.958721294197,0.003327621313740649
6418.95972106612,0.0033521778428182033
6418.960720838042,0.003376719715288641
6418.961720609966,0.003401242113864462
6418.962720381888,0.003425740143818011
6418.963720153811,0.0034502088348406005
6418.964719925733,0.0034746431429455143
6418.965719697656,0.0034990379524138804
6418.966719469579,0.0035233880777821476
6418.967719241502,0.0035476882658696603
6418.968719013425,0.0035719331978447287
6418.969718785347,0.003596117491327495
6418.97071855727,0.003620235702527834
6418.971718329193,0.0036442823284165314
6418.972718101116,0.003668251808928025
6418.973717873038,0.0036921385291931
6418.974717644961,0.003715936821800072
6418.975717416884,0.003739640969083091
6418.976717188807,0.003763245205436241
6418.97771696073,0.0037867437196520038
6418.978716732652,0.0038101306572824716
6418.979716504575,0.0038334001230214917
6418.980716276497,0.00385654618310571
6418.98171604842,0.003879562867732404
6418.982715820343,0.0039024441734920056
6418.983715592266,0.003925184065813346
6418.984715364189,0.003947776481419828
6418.985715136111,0.00397021533079489
6418.986714908034,0.003992494500655268
6418.987714679957,0.004014607856430624
6418.98871445188,0.0040365492447481145
6418.989714223802,0.004058312495920434
6418.990713995725,0.004079891426435769
6418.991713767648,0.004101279841448019
6418.992713539571,0.004122471537265559
6418.993713311494,0.0041434603038368375
6418.994713083416,0.004164239927231197
6418.995712855339,0.00418480419211347
6418.996712627261,0.004205146884211132
6418.997712399184,0.0042252617927730695
6418.998712171107,0.004245142713019303
6418.99971194303,0.004264783448581265
6419.000711714953,0.0042841778139325595
6419.001711486875,0.004303319636810394
6419.002711258798,0.004322202760628138
6419.003711030721,0.004340821046879673
6419.004710802644,0.0043591683775364145
6419.005710574566,0.004377238657438038
6419.006710346489,0.004395025816678036
6419.007710118412,0.004412523812985266
6419.008709890335,0.004429726634102608
6419.009709662258,0.004446628300163726
6419.01070943418,0.004463222866068704
6419.011709206103,0.004479504423859137
6419.012708978025,0.004495467105092976
6419.013708749948,0.004511105083219181
6419.014708521871,0.004526412575951833
6419.015708293794,0.004541383847642989
6419.016708065717,0.004556013211653088
6419.017707837639,0.00457029503271725
6419.018707609562,0.0045842237293055145
6419.019707381485,0.004597793775974742
6419.020707153408,0.004610999705709883
6419.02170692533,0.0046238361122523455
6419.022706697253,0.0046362976524134064
6419.023706469176,0.004648379048370741
6419.024706241099,0.0046600750899462254
6419.025706013022,0.004671380636863042
6419.026705784944,0.004682290620979788
6419.027705556867,0.004692800048498837
6419.028705328789,0.004702904002145652
6419.029705100713,0.004712597643315289
6419.030704872635,0.004721876214181996
6419.031704644558,0.004730735039767626
6419.032704416481,0.004739169529964693
6419.033704188403,0.004747175181510181
6419.034703960326,0.004754747579906716
6419.035703732249,0.004761882401288394
6419.036703504172,0.004768575414229189
6419.037703276094,0.004774822481492492
6419.038703048017,0.004780619561720869
6419.03970281994,0.004785962711065467
6419.040702591863,0.004790848084754852
6419.041702363786,0.004795271938603279
6419.042702135708,0.00479923063045864
6419.043701907631,0.0048027206215905515
6419.044701679553,0.004805738478019265
6419.045701451477,0.00480828087178631
6419.046701223399,0.0048103445821680016
6419.047700995322,0.004811926496833167
6419.048700767245,0.004813023612946634
6419.049700539167,0.004813633038220263
6419.05070031109,0.004813751991913485
6419.051700083013,0.00481337780578551
6419.052699854936,0.004812507925001528
6419.053699626858,0.004811139908995347
6419.054699398781,0.004809271432290973
6419.055699170704,0.004806900285285689
6419.056698942627,0.004804024374997109
6419.05769871455,0.004800641725776688
6419.058698486472,0.004796750479992075
6419.059698258395,0.0047923488986806794
6419.060698030317,0.004787435362176732
6419.061697802241,0.00478200837071403
6419.062697574163,0.004776066545006419
6419.063697346086,0.004769608626807945
6419.064697118009,0.004762633479454446
6419.065696889931,0.004755140088388293
6419.066696661854,0.004747127561667869
6419.067696433777,0.004738595130463301
6419.0686962057,0.0047295421495397874
6419.069695977622,0.004719968097729615
6419.070695749545,0.00470987257839361
6419.071695521468,0.004699255319872394
6419.072695293391,0.004688116175927309
6419.073695065314,0.004676455126170449
6419.074694837236,0.00466427227648278
6419.075694609159,0.004651567859418999
6419.076694381081,0.004638342234597474
6419.077694153005,0.004624595889073462
6419.078693924927,0.004610329437693725
6419.07969369685,0.0045955436234307746
6419.080693468773,0.004580239317695156
6419.081693240695,0.004564417520624488
6419.082693012618,0.004548079361348381
6419.083692784541,0.004531226098228679
6419.084692556464,0.004513859119074866
6419.085692328386,0.004495979941334662
6419.086692100309,0.004477590212260037
6419.087691872232,0.004458691709048895
6419.088691644155,0.004439286338962684
6419.089691416078,0.004419376139420101
6419.090691188,0.004398963278066989
6419.091690959923,0.004378050052822468
6419.092690731845,0.004356638891901344
6419.093690503769,0.004334732353812916
6419.094690275691,0.004312333127336395
6419.095690047614,0.004289444031473237
6419.096689819537,0.0042660680153767255
6419.097689591459,0.0042422081582590586
6419.098689363382,0.004217867669276026
6419.099689135305,0.004193049887389016
6419.100688907228,0.004167758281203708
6419.10168867915,0.0041419964487843354
6419.102688451073,0.004115768117441917
6419.103688222996,0.0040890771434943275
6419.104687994919,0.004061927511995638
6419.105687766842,0.004034323336431739
6419.106687538764,0.0040062688583790435
6419.107687310687,0.003977768447123031
6419.108687082609,0.003948826599233633
6419.109686854533,0.003919447938094913
6419.110686626455,0.0038896372133870477
6419.111686398378,0.0038593993005192457
6419.112686170301,0.0038287392000128074
6419.113685942223,0.003797662036833984
6419.114685714147,0.0037661730596766432
6419.115685486069,0.0037342776401948856
6419.116685257992,0.003701981272185694
6419.117685029914,0.003669289570721372
6419.118684801837,0.0036362082712310716
6419.11968457376,0.003602743228530142
6419.120684345683,0.003568900415795451
6419.121684117606,0.003534685923484291
6419.122683889528,0.003500105958194105
6419.123683661451,0.0034651668414600067
6419.124683433373,0.003429875008487002
6419.125683205297,0.003394237006813941
6419.126682977219,0.0033582594949065317
6419.127682749142,0.003321949240677179
6419.128682521065,0.0032853131199299303
6419.129682292987,0.003248358114729364
6419.130682064911,0.003211091311692756
6419.131681836833,0.00317351990020536
6419.132681608756,0.003135651170559106
6419.133681380678,0.0030974925120154343
6419.134681152601,0.0030590514107933157
6419.135680924524,0.0030203354479837897
6419.136680696447,0.0029813522973924844
6419.13768046837,0.0029421097233116628
6419.138680240292,0.002902615578223333
6419.139680012215,0.002862877800434946
6419.140679784137,0.0028229044116492344
6419.141679556061,0.0027827035144698045
6419.142679327983,0.002742283289844245
6419.143679099906,0.002701651994446641
6419.144678871829,0.0026608179580015776
6419.145678643751,0.002619789580551883
6419.146678415675,0.0025785753296725467
6419.147678187597,0.0025371837376333534
6419.14867795952,0.002495623398512873
6419.149677731442,0.002453902965266472
6419.150677503365,0.0024120311467509857
6419.151677275288,0.00237001670470862
6419.152677047211,0.002327868450712559
6419.153676819134,0.002285595243076592
6419.154676591056,0.0022432059837309
6419.155676362979,0.002200709615065947
6419.156676134901,0.0021581151167461856
6419.157675906825,0.0021154315024951246
6419.158675678747,0.0020726678168531184
6419.15967545067,0.0020298331319091446
6419.1606752225925,0.0019869365440077762
6419.161674994515,0.0019439871704325527
6419.162674766439,0.0019009941460669927
6419.163674538361,0.0018579666200345588
6419.164674310284,0.0018149137523189784
6419.165674082206,0.0017718447103664482
6419.166673854129,0.0017287686656714163
6419.167673626052,0.0016856947903478288
6419.168673397975,0.0016426322536879589
6419.169673169898,0.0015995902187111704
6419.17067294182,0.0015565778387052044
6419.171672713743,0.0015136042537627786
6419.172672485665,0.0014706785873164587
6419.173672257589,0.0014278099426748626
6419.174672029511,0.001385007399563288
6419.175671801434,0.0013422800106718275
6419.1766715733565,0.0012996367982139815
6419.177671345279,0.001257086750498706
6419.178671117203,0.001214638818518786
6419.179670889125,0.0011723019125584166
6419.180670661048,0.0011300848988229123
6419.18167043297,0.0010879965960935514
6419.182670204893,0.0010460457724106673
6419.183669976816,0.0010042411417882282
6419.184669748739,0.0009625913609632562
6419.185669520662,0.000921105026183549
6419.186669292584,0.0008797906700372426
6419.187669064507,0.0008386567583277826
6419.188668836429,0.000797711686997844
6419.189668608353,0.0007569637791056324
6419.190668380275,0.0007164212818568283
6419.191668152198,0.000676092363695212
6419.1926679241205,0.0006359851114547541
6419.193667696043,0.0005961075275757131
6419.194667467967,0.0005564675273870672
6419.195667239889,0.0005170729364574867
6419.196667011812,0.0004779314880170115
6419.197666783734,0.0004390508204516619
6419.198666555657,0.00040043847487332223
6419.19966632758,0.0003621018927673539
6419.200666099503,0.000324048413720484
6419.201665871426,0.00028628527323152524
6419.202665643348,0.0002488196006074006
6419.203665415271,0.00021165841694672434
6419.204665187193,0.00017480863321281832
6419.205664959117,0.00013827704839752927
6419.206664731039,0.00010207034777660572
6419.207664502962,6.619510125675965e-05
6419.2086642748845,3.065776181395154e-05
6419.209664046807,-4.53533597803084e-06
6419.210663818731,-3.937797732991833e-05
6419.211663590653,-7.38640685315335e-05
6419.212663362576,-0.00010798763815979395
6419.213663134498,-0.0001417428382011193
6419.214662906421,-0.00017512394508891748
6419.215662678344,-0.00020812536065650667
6419.216662450267,-0.00024074161300552613
6419.21766222219,-0.0002729673572896158
6419.218661994112,-0.00030479737641291526
6419.219661766035,-0.000336226581642753
6419.220661537957,-0.0003672500131357878
6419.221661309881,-0.0003978628403768584
6419.222661081803,-0.00042806036252994337
6419.223660853726,-0.00045783800870096314
6419.2246606256485,-0.00048719133811268373
6419.225660397571,-0.0005161160401926778
6419.226660169495,-0.0005446079345761011
6419.227659941417,-0.0005726629710258957
6419.22865971334,-0.0006002772292738745
6419.229659485262,-0.0006274469187869174
6419.230659257185,-0.0006541683784631488
6419.231659029108,-0.0006804380762633925
6419.232658801031,-0.0007062526087833533
6419.233658572954,-0.0007316087007718753
6419.234658344876,-0.0007565032046003361
6419.235658116799,-0.0007809330996878554
6419.236657888721,-0.0008048954918866323
6419.237657660645,-0.0008283876128314217
6419.238657432567,-0.0008514068192569627
6419.23965720449,-0.0008739505922870509
6419.2406569764125,-0.000896016536698895
6419.241656748335,-0.0009176023801663864
6419.242656520259,-0.0009387059724859274
6419.243656292181,-0.0009593252847885219
6419.244656064104,-0.0009794584087419109
6419.245655836026,-0.0009991035557465955
6419.246655607949,-0.0010182590561296327
6419.247655379872,-0.0010369233583400342
6419.248655151795,-0.0010550950281494568
6419.249654923718,-0.0010727727478616075
6419.25065469564,-0.001089955315533416
6419.251654467563,-0.0011066416442105658
6419.252654239486,-0.0011228307611794777
6419.253654011409,-0.0011385218072373368
6419.254653783331,-0.0011537140359812942
6419.255653555254,-0.0011684068131175907
6419.2566533271765,-0.0011825996157910218
6419.257653099099,-0.0011962920319349003
6419.258652871023,-0.0012094837596414276
6419.259652642945,-0.001222174606552156
6419.260652414868,-0.0012343644892679828
6419.26165218679,-0.0012460534327778622
6419.262651958713,-0.0012572415699051763
6419.263651730636,-0.0012679291407704505
6419.264651502559,-0.0012781164922688808
6419.265651274482,-0.0012878040775609453
6419.266651046404,-0.0012969924555742082
6419.267650818327,-0.0013056822905142674
6419.26865059025,-0.0013138743513826856
6419.269650362173,-0.0013215695114996272
6419.270650134095,-0.0013287687480288755
6419.271649906018,-0.0013354731415028771
6419.2726496779405,-0.0013416838753455076
6419.273649449863,-0.0013474022353903345
6419.274649221787,-0.0013526296093922926
6419.275648993709,-0.0013573674865308629
6419.276648765632,-0.0013616174569030589
6419.277648537554,-0.001365381211004774
6419.278648309477,-0.001368660539199289
6419.2796480814,-0.0013714573311719947
6419.280647853323,-0.0013737735753705685
6419.281647625246,-0.0013756113584299883
6419.282647397168,-0.0013769728645818269
6419.283647169091,-0.0013778603750472622
6419.284646941014,-0.001378276267413202
6419.285646712937,-0.0013782230149908448
6419.286646484859,-0.0013777031861559234
6419.287646256782,-0.0013767194436698211
6419.2886460287045,-0.0013752745439807403
6419.289645800627,-0.0013733713365041507
6419.290645572551,-0.001371012762881853
6419.291645344473,-0.0013682018562191339
6419.292645116396,-0.0013649417402996481
6419.293644888318,-0.0013612356287777843
6419.294644660241,-0.0013570868243483285
6419.295644432164,-0.0013524987178932656
6419.296644204087,-0.0013474747876054901
6419.29764397601,-0.00134201859808913
6419.298643747932,-0.001336133799436098
6419.299643519855,-0.001329824126278431
6419.300643291778,-0.0013230933968159727
6419.301643063701,-0.00131594551181899
6419.302642835623,-0.001308384453605405
6419.303642607546,-0.0013004142849924632
6419.3046423794685,-0.0012920391482228483
6419.305642151391,-0.0012832632638655453
6419.306641923315,-0.0012740909296921172
6419.307641695237,-0.0012645265195295277
6419.30864146716,-0.0012545744820911192
6419.309641239082,-0.0012442393397878023
6419.310641011005,-0.001233525687521792
6419.311640782928,-0.001222438191465325
6419.312640554851,-0.0012109815878266958
6419.313640326774,-0.0011991606816057691
6419.314640098696,-0.0011869803453409581
6419.315639870619,-0.001174445517849546
6419.316639642542,-0.0011615612029631983
6419.317639414465,-0.0011483324682605089
6419.318639186387,-0.0011347644437983981
6419.31963895831,-0.0011208623208440777
6419.3206387302325,-0.0011066313506091277
6419.321638502155,-0.0010920768429870113
6419.322638274079,-0.001077204165295101
6419.323638046001,-0.001062018741022057
6419.324637817924,-0.001046526048581163
6419.325637589846,-0.0010307316200699895
6419.326637361769,-0.0010146410400365179
6419.327637133692,-0.0009982599442516186
6419.328636905615,-0.0009815940184875332
6419.329636677538,-0.000964648997301782
6419.33063644946,-0.00094743066282567
6419.331636221383,-0.0009299448435563509
6419.332635993306,-0.0009121974131512029
6419.333635765229,-0.0008941942892231347
6419.334635537151,-0.000875941432135378
6419.335635309074,-0.0008574448437943363
6419.3366350809965,-0.0008387105664391357
6419.33763485292,-0.0008197446814266255
6419.338634624843,-0.0008005533080106914
6419.339634396765,-0.000781142602114864
6419.340634168688,-0.0007615187550973617
6419.34163394061,-0.0007416879925079127
6419.342633712533,-0.0007216565728359781
6419.343633484456,-0.0007014307862503204
6419.344633256379,-0.0006810169533302082
6419.345633028302,-0.0006604214237888533
6419.346632800224,-0.0006396505751898977
6419.347632572147,-0.0006187108116578807
6419.34863234407,-0.0005976085625836298
6419.349632115993,-0.0005763502813254488
6419.350631887915,-0.0005549424439068688
6419.351631659838,-0.0005333915477116106
6419.3526314317605,-0.0005117041101763319
6419.353631203684,-0.0004898866674817235
6419.354630975607,-0.00046794577324261094
6419.355630747529,-0.00044588799719791816
6419.356630519452,-0.0004237199239016471
6419.357630291374,-0.00040144815141639136
6419.358630063297,-0.0003790792900112895
6419.35962983522,-0.0003566199608666988
6419.360629607143,-0.0003340767947881912
6419.361629379066,-0.0003114564309326982
6419.362629150988,-0.0002887655155497203
6419.363628922911,-0.00026601070074044165
6419.364628694834,-0.0002431986432373428
6419.365628466757,-0.0002203360032065158
6419.366628238679,-0.0001974294430744095
6419.367628010602,-0.00017448562638021722
6419.3686277825245,-0.00015151121665461068
6419.369627554448,-0.00012851287632504926
6419.370627326371,-0.00010549726564746759
6419.371627098293,-8.247104166378167e-05
6419.372626870216,-5.944085718436756e-05
6419.373626642138,-3.641335979446361e-05
6419.374626414061,-1.3395190883325349e-05
6419.375626185984,9.607015305081793e-06
6419.376625957907,3.258663260103184e-05
6419.37762572983,5.553704381868398e-05
6419.378625501752,7.845164164725223e-05
6419.379625273675,0.00010132382952420145
6419.380625045598,0.0001241470224905745
6419.381624817521,0.00014691464802814416
6419.382624589443,0.00016962014687773458
6419.383624361366,0.00019225697383783621
6419.3846241332885,0.00021481859854257998
6419.385623905212,0.00023729850621822502
6419.386623677135,0.00025969019841751856
6419.387623449057,0.00028198719373155617
6419.38862322098,0.00030418302847905963
6419.389622992902,0.00032627125737325123
6419.390622764826,0.00034824545416670523
6419.391622536748,0.0003700992122746771
6419.392622308671,0.0003918261453774443
6419.393622080594,0.00041341988800213926
6419.394621852516,0.0004348740960844281
6419.395621624439,0.0004561824475102037
6419.396621396362,0.0004773386426372434
6419.397621168285,0.0004983364047965688
6419.398620940207,0.0005191694807730649
6419.39962071213,0.0005398316412647883
6419.4006204840525,0.000560316681320331
6419.401620255976,0.0005806184207535962
6419.402620027899,0.0006007307045353757
6419.403619799821,0.0006206474031611787
6419.404619571744,0.0006403624129948409
6419.405619343666,0.0006598696565875527
6419.40661911559,0.0006791630829720705
6419.407618887512,0.0006982366679320278
6419.408618659435,0.0007170844142464043
6419.409618431358,0.0007357003519093432
6419.41061820328,0.0007540785383256104
6419.411617975203,0.000772213058482107
6419.412617747126,0.0007900980250959882
6419.413617519049,0.0008077275787401361
6419.414617290971,0.0008250958879469606
6419.415617062894,0.0008421971492917277
6419.4166168348165,0.0008590255874567987
6419.41761660674,0.0008755754552782579
6419.418616378663,0.0008918410337763804
6419.419616150585,0.0009078166321712516
6419.420615922508,0.0009234965878846046
6419.42161569443,0.0009388752665286874
6419.422615466354,0.0009539470618827841
6419.423615238276,0.0009687063958579733
6419.424615010199,0.000983147718450838
6419.425614782122,0.0009972655076871068
6419.426614554044,0.0010110542695565441
6419.427614325967,0.0010245085379407476
6419.42861409789,0.0010376228745357639
6419.429613869813,0.0010503918687715893
6419.430613641735,0.0010628101377306626
6419.431613413658,0.0010748723260674132
6419.4326131855805,0.001086573105930864
6419.433612957504,0.0010979071768922152
6419.434612729427,0.0011088692658792667
6419.435612501349,0.0011194541271194538
6419.436612273272,0.001129656542093185
6419.437612045194,0.0011394713194990687
6419.438611817118,0.0011488932952325552
6419.43961158904,0.001157917332379487
6419.440611360963,0.0011665383212260802
6419.441611132886,0.0011747511792869268
6419.442610904808,0.0011825508513527128
6419.443610676731,0.0011899323095594632
6419.444610448654,0.0011968905534812707
6419.445610220577,0.0012034206102486313
6419.446609992499,0.001209517534694726
6419.447609764422,0.001215176409532266
6419.4486095363445,0.0012203923455638517
6419.449609308268,0.0012251604819291668
6419.450609080191,0.0012294759863926818
6419.451608852113,0.0012333340556757934
6419.452608624036,0.001236729915837434
6419.453608395958,0.0012396588227071021
6419.454608167882,0.0012421160623740162
6419.455607939804,0.0012440969517357357
6419.456607711727,0.0012455968391091798
6419.45760748365,0.0012466111049066197
6419.458607255572,0.0012471351623789394
6419.459607027495,0.0012471644584283051
6419.460606799418,0.0012466944744923126
6419.461606571341,0.001245720727501656
6419.462606343263,0.0012442387709133437
6419.463606115186,0.0012422441958214632
6419.4646058871085,0.001239732632147487
6419.465605659032,0.0012366997499121451
6419.466605430955,0.0012331412605909493
6419.467605202877,0.0012290529185555433
6419.4686049748,0.0012244305226030772
6419.469604746722,0.0012192699175757665
6419.470604518646,0.0012135669960726776
6419.471604290568,0.0012073177002556276
6419.472604062491,0.0012005180237509316
6419.473603834414,0.001193164013648628
6419.474603606336,0.001185251772600775
6419.47560337826,0.001176777461020408
6419.476603150182,0.0011677372993827936
6419.477602922105,0.0011581275706306646
6419.478602694027,0.001147944622685159
6419.47960246595,0.0011371848710641692
6419.4806022378725,0.001125844801609724
6419.481602009796,0.0011139209733258492
6419.482601781719,0.001101410021328124
6419.483601553641,0.0010883086599058963
6419.484601325564,0.0010746136856978877
6419.485601097486,0.0010603219809817656
6419.48660086941,0.0010454305170781888
6419.487600641332,0.0010299363578698568
6419.488600413255,0.0010138366634362009
6419.489600185178,0.0009971286938044949
6419.4905999571,0.000979809812818285
6419.491599729024,0.0009618774921241108
6419.492599500946,0.000943329315277467
6419.493599272869,0.0009241629819688592
6419.494599044791,0.0009043763123706187
6419.495598816714,0.0008839672516048946
6419.4965985886365,0.0008629338743329163
6419.49759836056,0.0008412743894652135
6419.498598132483,0.0008189871449919462
6419.499597904405,0.0007960706329318201
6419.500597676328,0.0007725234943972462
6419.50159744825,0.0007483445247724647
6419.502597220174,0.0007235326790003408
6419.503596992096,0.0006980870769725111
6419.504596764019,0.0006720070090165503
6419.505596535942,0.0006452919414728886
6419.506596307864,0.0006179415223533791
6419.507596079788,0.0005899555870727131
6419.50859585171,0.0005613341642432855
6419.509595623633,0.0005320774815235872
6419.510595395555,0.0005021859715096808
6419.511595167478,0.00047166027765872386
6419.5125949394005,0.00044050126023280665
6419.513594711324,0.00040871000225052757
6419.514594483247,0.0003762878154327703
6419.515594255169,0.00034323624612809427
6419.516594027092,0.0003095570812020915
6419.517593799014,0.00027525235387406284
6419.518593570938,0.00024032434948348936
6419.51959334286,0.00020477561116806104
6419.520593114783,0.0001686089454344758
6419.521592886706,0.00013182742760282744
6419.522592658628,9.44344071051314e-05
6419.523592430552,5.643351261837606e-05
6419.524592202474,1.782865701244696e-05
6419.525591974397,-2.1375957906618634e-05
6419.526591746319,-6.117583687728253e-05
6419.527591518242,-0.0001015661869057663
6419.5285912901645,-0.00014254191324987168
6419.529591062088,-0.0001840976156803641
6419.530590834011,-0.00022622758503583246
6419.531590605933,-0.0002689258000857458
6419.532590377856,-0.00031218592471517095
6419.533590149778,-0.00035600130544332574
6419.534589921702,-0.00040036496928684643
6419.535589693624,-0.00044526962197737784
6419.536589465547,-0.000490707646541869
6419.53758923747,-0.000536671102252795
6419.538589009392,-0.000583151723954419
6419.539588781316,-0.0006301409217701523
6419.540588553238,-0.0006776297811950282
6419.541588325161,-0.0007256090635762845
6419.542588097083,-0.0007740692069840186
6419.543587869006,-0.0008230003274728459
6419.5445876409285,-0.0008723922207344967
6419.545587412852,-0.0009222343641402998
6419.546587184775,-0.0009725159191715457
6419.547586956697,-0.0010232257342347741
6419.54858672862,-0.0010743523478580679
6419.549586500542,-0.001125883992263434
6419.550586272466,-0.0011778085973093014
6419.551586044388,-0.0012301137947960561
6419.552585816311,-0.0012827869231264075
6419.553585588234,-0.0013358150323112689
6419.554585360156,-0.001389184889310805
6419.55558513208,-0.0014428829836993888
6419.556584904002,-0.0014968955336424471
6419.557584675925,-0.0015512084921725825
6419.558584447847,-0.0016058075537519806
6419.55958421977,-0.0016606781611079285
6419.560583991693,-0.0017158055123283032
6419.561583763616,-0.001771174568204082
6419.562583535539,-0.001826770059806211
6419.563583307461,-0.0018825764962844746
6419.564583079384,-0.0019385781728762683
6419.565582851306,-0.0019947591791133717
6419.56658262323,-0.0020511034072149973
6419.567582395152,-0.002107594560655499
6419.568582167075,-0.002164216162895234
6419.5695819389975,-0.0022209515662631185
6419.57058171092,-0.0022777839609794703
6419.571581482844,-0.0023346963843077577
6419.572581254766,-0.0023916717298239306
6419.573581026689,-0.0024486927567920723
6419.574580798611,-0.0025057420996352216
6419.575580570534,-0.0025628022774903158
6419.576580342457,-0.0026198557038363286
6419.57758011438,-0.0026768846961848047
6419.578579886303,-0.002733871485822143
6419.579579658225,-0.0027907982275931615
6419.580579430148,-0.002847647009715661
6419.58157920207,-0.0029043998636159338
6419.582578973994,-0.002961038773775336
6419.583578745916,-0.0030175456875782274
6419.584578517839,-0.0030739025251517132
6419.5855782897615,-0.0031300911891877455
6419.586578061684,-0.0031860935747382232
6419.587577833608,-0.0032418915789738257
6419.58857760553,-0.0032974671108974172
6419.589577377453,-0.003352802101003007
6419.590577149375,-0.003407878510871481
6419.591576921298,-0.003462678342694614
6419.592576693221,-0.0035171836487192763
6419.593576465144,-0.0035713765406043037
6419.594576237067,-0.0036252391986831135
6419.595576008989,-0.003678753881125924
6419.596575780912,-0.0037319029329962302
6419.597575552834,-0.003784668795197014
6419.598575324758,-0.0038370340133029317
6419.59957509668,-0.0038889812462753813
6419.600574868603,-0.003940493275057856
6419.6015746405255,-0.003991553011049378
6419.602574412448,-0.0040421435044540165
6419.603574184372,-0.004092247952504565
6419.604573956294,-0.004141849707558435
6419.605573728217,-0.004190932285063834
6419.606573500139,-0.004239479371394351
6419.607573272062,-0.004287474831550251
6419.608573043985,-0.004334902716724982
6419.609572815908,-0.004381747271735636
6419.610572587831,-0.004427992942316292
6419.611572359753,-0.00447362438227331
6419.612572131676,-0.0045186264605016745
6419.613571903599,-0.0045629842678615185
6419.614571675522,-0.004606683123913928
6419.615571447444,-0.0046497085835151475
6419.616571219367,-0.004692046443268263
6419.6175709912895,-0.004733682747831395
6419.618570763212,-0.004774603796081301
6419.619570535136,-0.004814796147131105
6419.620570307058,-0.004854246626200581
6419.621570078981,-0.0048929423303371595
6419.622569850903,-0.004930870633985433
6419.623569622826,-0.004968019194402679
6419.624569394749,-0.005004375956917581
6419.625569166672,-0.0050399291600291265
6419.626568938595,-0.005074667340342444
6419.627568710517,-0.0051085793373382695
6419.62856848244,-0.005141654297972676
6419.629568254363,-0.005173881681103734
6419.630568026286,-0.0052052512617419685
6419.631567798208,-0.0052357531351218236
6419.632567570131,-0.005265377720591911
6419.6335673420535,-0.005294115765322532
6419.634567113976,-0.005321958347829813
6419.6355668859,-0.005348896881316577
6419.636566657822,-0.005374923116830804
6419.637566429745,-0.005400029146243
6419.638566201667,-0.005424207405044094
6419.63956597359,-0.0054474506749654155
6419.640565745513,-0.005469752086422172
6419.641565517436,-0.005491105120781473
6419.642565289359,-0.005511503612455581
6419.643565061281,-0.005530941750820708
6419.644564833204,-0.005549414081961405
6419.645564605127,-0.00556691551024045
6419.64656437705,-0.005583441299694167
6419.647564148972,-0.005598987075253203
6419.648563920895,-0.005613548823789085
6419.6495636928175,-0.005627122894987164
6419.65056346474,-0.005639706002046917
6419.651563236664,-0.005651295222210855
6419.652563008586,-0.0056618879971235625
6419.653562780509,-0.005671482133022522
6419.654562552431,-0.005680075800762532
6419.655562324354,-0.005687667535675492
6419.656562096277,-0.005694256237267378
6419.6575618682,-0.005699841168754189
6419.658561640123,-0.005704421956438678
6419.659561412045,-0.005707998588929627
6419.660561183968,-0.0057105714162054575
6419.661560955891,-0.005712141148523864
6419.662560727814,-0.005712708855179143
6419.663560499736,-0.005712275963108788
6419.664560271659,-0.005710844255350844
6419.6655600435815,-0.005708415869353442
6419.666559815504,-0.00570499329513789
6419.667559587428,-0.00570057937331662
6419.66855935935,-0.005695177292967245
6419.669559131273,-0.00568879058936397
6419.670558903195,-0.005681423141567566
6419.671558675118,-0.005673079169875082
6419.672558447041,-0.005663763233130431
6419.673558218964,-0.005653480225896993
6419.674557990887,-0.005642235375493352
6419.675557762809,-0.0056300342388933226
6419.676557534732,-0.005616882699491422
6419.677557306655,-0.005602786963735094
6419.678557078578,-0.005587753557625009
6419.6795568505,-0.005571789323084994
6419.680556622423,-0.00555490141420321
6419.6815563943455,-0.00553709729334632
6419.682556166268,-0.005518384727148427
6419.683555938192,-0.005498771782376473
6419.684555710114,-0.005478266821673693
6419.685555482037,-0.005456878499182575
6419.686555253959,-0.005434615756048616
6419.687555025882,-0.0054114878158060585
6419.688554797805,-0.005387504179646598
6419.689554569728,-0.005362674621572008
6419.690554341651,-0.005337009183431437
6419.691554113573,-0.0053105181698441
6419.692553885496,-0.005283212143007888
6419.693553657419,-0.005255101917394446
6419.694553429342,-0.00522619855433117
6419.695553201264,-0.005196513356470707
6419.696552973187,-0.005166057862148674
6419.6975527451095,-0.005134843839630622
6419.698552517033,-0.005102883281249646
6419.699552288956,-0.005070188397436402
6419.700552060878,-0.005036771610643769
6419.701551832801,-0.005002645549168724
6419.702551604723,-0.00496782304087442
6419.703551376646,-0.004932317106815691
6419.704551148569,-0.004896140954771535
6419.705550920492,-0.004859307972688325
6419.706550692415,-0.004821831722037807
6419.707550464337,-0.004783725931094166
6419.70855023626,-0.0047450044881348
6419.709550008183,-0.004705681434569693
6419.710549780106,-0.004665770958004641
6419.711549552028,-0.004625287385243811
6419.712549323951,-0.004584245175237333
6419.7135490958735,-0.004542658911979566
6419.714548867797,-0.004500543297363527
6419.71554863972,-0.004457913143996583
6419.716548411642,-0.004414783367982142
6419.717548183565,-0.004371168981671715
6419.718547955487,-0.004327085086391509
6419.71954772741,-0.004282546865147732
6419.720547499333,-0.0042375695753149225
6419.721547271256,-0.004192168541312028
6419.722547043179,-0.004146359147271467
6419.723546815101,-0.004100156829706958
6419.724546587024,-0.004053577070186444
6419.725546358947,-0.0040066353880168545
6419.72654613087,-0.003959347332947704
6419.727545902792,-0.003911728477900651
6419.728545674715,-0.003863794411732155
6419.7295454466375,-0.00381556073203631
6419.730545218561,-0.00376704303799475
6419.731544990484,-0.0037182569232802926
6419.732544762406,-0.003669217969020605
6419.733544534329,-0.003619941736827729
6419.734544306251,-0.003570443761898782
6419.735544078174,-0.0035207395461926126
6419.736543850097,-0.003470844551686722
6419.73754362202,-0.003420774193718376
6419.738543393943,-0.003370543834413548
6419.739543165865,-0.003320168776207145
6419.740542937788,-0.003269664255457823
6419.741542709711,-0.0032190454361605775
6419.742542481634,-0.0031683274037601554
6419.743542253556,-0.0031175251590681145
6419.744542025479,-0.0030666536122860976
6419.7455417974015,-0.0030157275771375497
6419.746541569325,-0.002964761765109744
6419.747541341248,-0.002913770779807618
6419.74854111317,-0.0028627691114206035
6419.749540885093,-0.002811771131303369
6419.750540657015,-0.002760791086671183
6419.751540428939,-0.00270984309541042
6419.752540200861,-0.0026589411410046187
6419.753539972784,-0.0026080990675763746
6419.754539744707,-0.0025573305750452783
6419.755539516629,-0.0025066492144020197
6419.756539288552,-0.0024560683830987095
6419.757539060475,-0.0024056013205553547
6419.758538832398,-0.002355261103782296
6419.75953860432,-0.002305060643118274
6419.760538376243,-0.002255012678083622
6419.7615381481655,-0.0022051297733479483
6419.762537920089,-0.0021554243148115444
6419.763537692012,-0.0021059085057996774
6419.764537463934,-0.002056594363368862
6419.765537235857,-0.0020074937147241843
6419.766537007779,-0.0019586181937467375
6419.767536779703,-0.001909979237630241
6419.768536551625,-0.0018615880836259401
6419.769536323548,-0.0018134557658949074
6419.770536095471,-0.0017655931124669073
6419.771535867393,-0.00171801074230502
6419.772535639316,-0.0016707190624752617
6419.773535411239,-0.0016237282654204808
6419.774535183162,-0.0015770483263378684
6419.775534955084,-0.00153068900065946
6419.776534727007,-0.0014846598216350436
6419.7775344989295,-0.0014389700980169135
6419.778534270853,-0.0013936289118459048
6419.779534042776,-0.0013486451163381155
6419.780533814698,-0.001304027333871657
6419.781533586621,-0.00125978395407271
6419.782533358543,-0.001215923132000079
6419.783533130467,-0.0011724527864273979
6419.784532902389,-0.0011293805982220918
6419.785532674312,-0.0010867140088202123
6419.786532446235,-0.0010444602187962833
6419.787532218157,-0.0010026261865273862
6419.78853199008,-0.0009612186269508511
6419.789531762003,-0.0009202440104151263
6419.790531533926,-0.0008797085616236239
6419.791531305848,-0.0008396182586715574
6419.792531077771,-0.0007999788321759456
6419.7935308496935,-0.0007607957644990053
6419.794530621617,-0.0007220742890650657
6419.79553039354,-0.0006838193897709196
6419.796530165462,-0.000646035800489211
6419.797529937385,-0.000608728004664075
6419.798529709307,-0.0005719002349978622
6419.799529481231,-0.000535556473227417
6419.800529253153,-0.0004997004499880973
6419.801529025076,-0.0004643356447635538
6419.802528796999,-0.00042946528591926366
6419.803528568921,-0.0003950923508179297
6419.804528340844,-0.0003612195660150906
6419.805528112767,-0.0003278494075336004
6419.80652788469,-0.00029498410121599813
6419.807527656612,-0.00026262562315416233
6419.808527428535,-0.00023077570019601576
6419.8095272004575,-0.00019943581052940046
6419.810526972381,-0.00016860718434358018
6419.811526744304,-0.00013829080456914382
6419.812526516226,-0.00010848740769737748
6419.813526288149,-7.919748468044937e-05
6419.814526060071,-5.042128191402585e-05
6419.815525831995,-2.2158802304201963e-05
6419.816525603917,5.5901935791427945e-06
6419.81752537584,3.282618626029245e-05
6419.818525147763,5.9549896024585734e-05
6419.819524919685,8.576228149184258e-05
6419.820524691608,0.00011146453809387606
6419.821524463531,0.00013665809645357723
6419.822524235454,0.00016134462066297057
6419.823524007376,0.00018552600645752967
6419.824523779299,0.00020920437928392577
6419.8255235512215,0.00023238209225827467
6419.826523323145,0.0002550617240118684
6419.827523095068,0.00027724607642137003
6419.82852286699,0.0002989381722205607
6419.829522638913,0.0003201412524909998
6419.830522410835,0.000340858774029391
6419.831522182759,0.0003610944065900198
6419.832521954681,0.00038085203000129685
6419.833521726604,0.00040013573115614613
6419.834521498527,0.0004189498008766685
6419.835521270449,0.00043729873065411444
6419.836521042373,0.0004551872092656647
6419.837520814295,0.0004726201192697961
6419.838520586218,0.0004896025333820897
6419.83952035814,0.0005061397107332321
6419.840520130063,0.0005222370930107272
6419.8415199019855,0.0005379003004855532
6419.842519673909,0.0005531351279247806
6419.843519445832,0.0005679475403910962
6419.844519217754,0.0005823436689303044
6419.845518989677,0.0005963298061481907
6419.846518761599,0.0006099124016785803
6419.847518533523,0.000623098057544948
6419.848518305445,0.0006358935234184663
6419.849518077368,0.0006483056917758834
6419.850517849291,0.0006603415929610833
6419.851517621213,0.000672008390154598
6419.852517393137,0.0006833133742557228
6419.853517165059,0.0006942639586822334
6419.854516936982,0.0007048676740930031
6419.855516708904,0.0007151321630390669
6419.856516480827,0.0007250651745488743
6419.8575162527495,0.0007346745586536346
6419.858516024673,0.0007439682608587978
6419.859515796596,0.0007529543165678246
6419.860515568518,0.0007616408454644694
6419.861515340441,0.0007700360458598199
6419.862515112363,0.0007781481890102918
6419.863514884287,0.0007859856134126823
6419.864514656209,0.0007935567190822403
6419.865514428132,0.0008008699618195426
