Time,Filtered_EMG_Bicep,Filtered_EMG_Tricep
6772.55605538882,0.003099879679731718,0.0021620704727439628
6772.557055160743,0.0030861589787077558,0.002204598271243008
6772.558054932665,0.0030732340876606073,0.00224733610992395
6772.559054704589,0.003061241585698153,0.0022899932134524104
6772.560054476511,0.003050308063426983,0.0023322783772618512
6772.561054248434,0.003040547682385424,0.002373904739148559
6772.562054020356,0.003032059903293087,0.002414594770527527
6772.563053792279,0.0030249274183302586,0.0024540854491072297
6772.5640535642015,0.0030192142901776663,0.0024921335174062746
6772.565053336125,0.0030149642812998317,0.002528520682512843
6772.566053108048,0.003012199369325095,0.002563058602733321
6772.56705287997,0.003010918483480216,0.0025955935334129143
6772.568052651893,0.0030110965388916357,0.0026260105375487197
6772.569052423815,0.0030126838704977953,0.002654237177220595
6772.570052195739,0.0030156061808627615,0.0026802465769064387
6772.571051967661,0.0030197651272893655,0.0027040596960404614
6772.572051739584,0.003025039666985779,0.0027257465878749265
6772.5730515115065,0.0030312882218819807,0.0027454263892860657
6772.574051283429,0.003038351613158775,0.0027632658168720305
6772.575051055353,0.0030460565890069917,0.002779476049475151
6772.576050827275,0.0030542196818943036,0.0027943080286185057
6772.577050599198,0.003062651119466979,0.002808046355570362
6772.57805037112,0.00307115857249023,0.00282100206128588
6772.579050143043,0.003079550611633441,0.002833504557233489
6772.580049914966,0.003087639815415068,0.0028458930605352426
6772.581049686889,0.003095245507890424,0.002858507758488616
6772.582049458812,0.003102196115075395,0.002871680954510982
6772.583049230734,0.0031083311232508667,0.0028857284210553657
6772.584049002657,0.0031135026109752146,0.002900941165744418
6772.585048774579,0.003117576329042931,0.002917577784904906
6772.586048546503,0.00312043233358061,0.0029358575362575215
6772.587048318425,0.0031219652275040824,0.0029559542248169647
6772.588048090348,0.003122084104905462,0.002977990975745735
6772.589047862271,0.003120712302506897,0.00300203596622759
6772.590047634193,0.003117787051020893,0.003028099197152626
6772.591047406117,0.0031132591035352482,0.0030561303923392156
6772.592047178039,0.003107092399885809,0.003086018111135062
6772.593046949962,0.0030992637980991476,0.003117590149948183
6772.594046721884,0.0030897628632882436,0.0031506152863546044
6772.595046493807,0.003078591662540241,0.0031848063758561367
6772.59604626573,0.003065764501002718,0.0032198247456828462
6772.597046037653,0.003051307569930237,0.0032552857635007515
6772.598045809576,0.003035258539361103,0.0032907654195097114
6772.599045581498,0.0030176661724506475,0.0033258077562133
6772.600045353421,0.0029985900491842476,0.0033599329955606608
6772.601045125344,0.002978100475375155,0.0033926462322115248
6772.602044897267,0.0029562786255418606,0.0034234465786556327
6772.603044669189,0.002933216927840992,0.0034518366540059187
6772.604044441112,0.002909019658160841,0.003477332292305416
6772.6050442130345,0.0028838036797820305,0.003499472311597813
6772.606043984957,0.002857699238240906,0.0035178281451565215
6772.607043756881,0.0028308506931517792,0.0035320130984072768
6772.608043528803,0.002803417059426408,0.003541690966479449
6772.609043300726,0.0027755722598197547,0.003546583742772933
6772.610043072648,0.002747505043608117,0.00354647817168801
6772.611042844571,0.002719418568291216,0.0035412309291852065
6772.612042616494,0.0026915296633260827,0.0035307722391290826
6772.613042388417,0.00266406781534943,0.003515107766303734
6772.61404216034,0.002637273940972112,0.003494318692779758
6772.615041932262,0.002611399023274817,0.0034685599891710215
6772.616041704185,0.002586702657771826,0.0034380570161053506
6772.617041476107,0.002563451496239289,0.0034031006922830244
6772.618041248031,0.002541917530607785,0.0033640415073097865
6772.619041019953,0.00252237614186038,0.0033212826440998386
6772.620040791876,0.0025051038403368646,0.0032752724489875716
6772.621040563799,0.002490375638547777,0.003226496482598431
6772.622040335721,0.002478462030570438,0.003175469393368764
6772.623040107645,0.0024696255907743748,0.003122726844241386
6772.624039879567,0.0024641172241029446,0.003068817677588471
6772.62503965149,0.0024621721028945565,0.003014296446214376
6772.626039423412,0.0024640053431517843,0.002959716396396939
6772.627039195335,0.002469807523880492,0.002905622964350643
6772.628038967258,0.0024797402143699153,0.0028525478256779028
6772.629038739181,0.0024939317066202315,0.002801003512593244
6772.630038511104,0.002512473136811952,0.0027514785959163886
6772.631038283026,0.0025354151391506936,0.002704433427307324
6772.632038054949,0.00256276513398485,0.0026602964449216906
6772.633037826872,0.0025944853145030452,0.002619461043454291
6772.634037598795,0.0026304913546860834,0.002582282985269111
6772.635037370717,0.002670651821103756,0.002549078289943953
6772.63603714264,0.0027147882451886637,0.0025201215038111696
6772.6370369145625,0.0027626757979161217,0.002495644237725814
6772.638036686485,0.0028140444972365396,0.0024758338823211655
6772.639036458409,0.0028685808771466825,0.0024608324588231206
6772.640036230331,0.002925930065688529,0.0024507356127894376
6772.641036002254,0.0029856982546531746,0.002445591784864188
6772.642035774176,0.003047455590195404,0.0024454015977021675
6772.643035546099,0.0031107395625518796,0.002450117492899433
6772.644035318022,0.003175059005299101,0.002459643640494782
6772.645035089945,0.0032398988109582365,0.0024738361309575314
6772.646034861868,0.0033047254262389154,0.002492503460112176
6772.64703463379,0.0033689931144197122,0.002515407342509178
6772.648034405713,0.003432150876695875,0.0025422639255772393
6772.649034177635,0.003493649827661381,0.0025727454945875705
6772.650033949559,0.0035529507488064626,0.002606482739321861
6772.651033721481,0.0036095315214838496,0.002643067610491313
6772.652033493404,0.0036628941693981174,0.002682056757830293
6772.653033265327,0.0037125712961415726,0.002722975536047913
6772.65403303725,0.003758131757149068,0.002765322589427498
6772.655032809173,0.0037991854511035907,0.0028085750551653126
6772.656032581095,0.0038353871629129466,0.002852194427769136
6772.657032353018,0.0038664394364806517,0.0028956330900153913
6772.65803212494,0.003892094486831466,0.002938341456286828
6772.659031896863,0.003912155183184031,0.0029797756226316043
6772.660031668786,0.003926475169373948,0.0030194053949143787
6772.661031440709,0.00393495823467223,0.003056722564537649
6772.662031212632,0.003937557078930619,0.0030912492956903744
6772.663030984554,0.00393427161428655,0.0031225464624654547
6772.664030756477,0.003925146916120563,0.0031502217344075273
6772.6650305284,0.003910270890997878,0.0031739371760169774
6772.666030300323,0.0038897716928204197,0.0031934161164581887
6772.667030072245,0.003863814920964216,0.003208449063730735
6772.668029844168,0.003832600680488481,0.0032188984740552282
6772.6690296160905,0.0037963606433675944,0.00322470222324703
6772.670029388013,0.0037553552818788724,0.003225875646920084
6772.671029159937,0.003709871428735531,0.0032225120251676807
6772.672028931859,0.0036602202596992817,0.0032147813998775073
6772.673028703782,0.00360673572427288,0.003202927636202458
6772.674028475704,0.003549773392535931,0.0031872636779077335
6772.675028247627,0.0034897096336696546,0.003168165007731451
6772.67602801955,0.00342694098023613,0.0031460614154907116
6772.677027791473,0.003361883474155586,0.00312142729502855
6772.678027563396,0.003294971761276081,0.003094770811971803
6772.679027335318,0.00322665771263495,0.0030666223660663653
6772.680027107241,0.003157408397408322,0.003037522787914109
6772.681026879164,0.0030877033033278995,0.003008011670753389
6772.682026651087,0.0030180307805209175,0.002978616170059046
6772.683026423009,0.0029488837646498263,0.0029498405228202945
6772.684026194932,0.002880754905651713,0.002922156455457034
6772.685025966855,0.002814131268445449,0.002895994584493373
6772.686025738778,0.0027494887640265833,0.002871736882435224
6772.687025510701,0.002687286425920941,0.0028497102746600175
6772.688025282623,0.002627960604988043,0.002830181429046101
6772.689025054546,0.0025719191455667546,0.0028133527812531775
6772.690024826468,0.0025195356293706813,0.0027993598025474664
6772.691024598391,0.0024711438036669297,0.002788269478784289
6772.692024370314,0.0024270323221530056,0.0027800799492884425
6772.693024142237,0.0023874399265649024,0.002774721256622538
6772.69402391416,0.0023525512051020326,0.002772057168781531
6772.695023686082,0.002322493078317668,0.002771888045816337
6772.696023458005,0.0022973321608614258,0.0027739547373226772
6772.697023229928,0.0022770731186032445,0.0027779435174396265
6772.698023001851,0.00226165810291969,0.0027834920806696344
6772.699022773773,0.0022509673157170475,0.002790196618991707
6772.700022545696,0.002244820735369219,0.0027976199689544604
6772.7010223176185,0.0022429810026988965,0.0028053007677311687
6772.702022089541,0.0022451574304256858,0.002812763517272168
6772.703021861465,0.002251011068460908,0.0028195294447711313
6772.704021633387,0.0022601607269145847,0.002825128051696342
6772.70502140531,0.002272189818886172,0.002829109222478129
6772.706021177232,0.00228665384204156,0.0028310556900220125
6772.707020949155,0.002303088291491792,0.002830595541014963
6772.708020721078,0.0023210167994836073,0.0028274143279800614
6772.709020493001,0.002339959326119765,0.0028212662720316106
6772.710020264924,0.002359440265260862,0.0028119840138265267
6772.711020036846,0.00237899636592531,0.0027994864196678737
6772.712019808769,0.0023981843942417667,0.002783784073844687
6772.713019580692,0.002416588473718719,0.002764982239162264
6772.714019352615,0.002433827041532689,0.0027432811831626085
6772.715019124537,0.0024495593403065117,0.0027189738428218054
6772.71601889646,0.0024634913239267964,0.0026924408844301176
6772.717018668383,0.00247538080377862,0.002664143329080998
6772.718018440306,0.0024850416335835293,0.0026346130200086033
6772.719018212229,0.0024923467595937125,0.0026044412689527046
6772.720017984151,0.0024972300335742567,0.002574266045030868
6772.721017756074,0.002499686741393086,0.002544758089519969
6772.722017527996,0.002499772806516498,0.0025166063557048157
6772.723017299919,0.002497602614412463,0.0024905031640091125
6772.724017071842,0.0024933454225649077,0.002467129417784839
6772.725016843765,0.0024872203874823392,0.002447140158426175
6772.726016615688,0.0024794903266491357,0.0024311506787422603
6772.72701638761,0.0024704544034041213,0.0024197233861170757
6772.728016159533,0.0024604399598809807,0.0024133556199780297
6772.729015931456,0.0024497937320774473,0.002412468664077462
6772.730015703379,0.002438872683768966,0.0024173982176991437
6772.731015475301,0.0024280347173706897,0.0024283865747842387
6772.732015247224,0.0024176295546487155,0.0024455767068719595
6772.7330150191465,0.0024079900916562356,0.0024690083733719765
6772.73401479107,0.0023994244979286933,0.0024986163120582034
6772.735014562993,0.002392209265442274,0.002534230507350728
6772.736014334915,0.0023865833505732547,0.002575578491715533
6772.737014106838,0.0023827435142442987,0.0026222895926667576
6772.73801387876,0.002380840949654094,0.002673900986922296
6772.739013650684,0.002380979273479811,0.0027298653722733295
6772.740013422606,0.002383213926592014,0.0027895600343559304
6772.741013194529,0.002387552976207828,0.0028522970846993814
6772.742012966452,0.00239395923563313,0.002917334678229365
6772.743012738374,0.0024023535366409043,0.0029838890637166582
6772.744012510297,0.002412618927933196,0.00305114735036948
6772.74501228222,0.0024246055456044846,0.0031182808691024863
6772.746012054143,0.0024381359019512694,0.0031844589743237756
6772.747011826065,0.00245301035315138,0.0032488630924619156
6772.748011597988,0.002469012529724054,0.003310700789466884
6772.749011369911,0.002485914546876251,0.0033692195985369397
6772.750011141834,0.002503481845927396,0.0034237203155994705
6772.7510109137565,0.002521477544029589,0.0034735694369515922
6772.752010685679,0.0025396661962106878,0.0035182103941975135
6772.753010457602,0.002557816916808393,0.0035571732499341275
6772.754010229524,0.0025757058675273245,0.0035900825555596175
6772.755010001447,0.0025931181837038643,0.003616663126831856
6772.75600977337,0.002609849462365455,0.0036367435540707095
6772.757009545293,0.0026257069628796417,0.003650257349059202
6772.758009317216,0.002640510671937198,0.003657241759286702
6772.759009089138,0.0026540943649621313,0.0036578344288452917
6772.760008861061,0.0026663067586423688,0.0036522681984964903
6772.761008632984,0.0026770127982042335,0.0036408643834575736
6772.762008404907,0.0026860950742439516,0.0036240248603771523
6772.763008176829,0.0026934553366135382,0.0036022232642290587
6772.764007948752,0.002699016067363409,0.0035759955538214173
6772.7650077206745,0.0027027220725611696,0.0035459301522093862
6772.766007492598,0.0027045420415882987,0.0035126578153024572
6772.7670072645205,0.002704470005952808,0.003476841338902757
6772.768007036443,0.002702526612566182,0.0034391651788102605
6772.769006808366,0.0026987601077128423,0.003400325030725254
6772.770006580288,0.0026932469129117456,0.0033610174082448364
6772.771006352212,0.0026860916790751002,0.0033219292719095963
6772.772006124134,0.0026774267377407653,0.003283727791399432
6772.773005896057,0.0026674109101608584,0.0032470503606586297
6772.77400566798,0.002656227668499869,0.003212495024032151
6772.775005439902,0.002644082673687293,0.0031806114941702575
6772.776005211825,0.0026312007539250103,0.003151892942293464
6772.777004983748,0.002617822434341242,0.0031267687266859933
6772.778004755671,0.0026042001693566377,0.003105598202622315
6772.779004527593,0.0025905944507490335,0.0030886657263534544
6772.780004299516,0.0025772699556268434,0.0030761769305844462
6772.781004071439,0.002564491860299971,0.0030682563187856074
6772.782003843362,0.002552522391448686,0.0030649462130066074
6772.7830036152845,0.002541617633248251,0.0030662070983674935
6772.784003387207,0.002532024571731255,0.003071919419630268
6772.78500315913,0.0025239783380295523,0.0030818868717462293
6772.786002931052,0.002517699602931088,0.0030958411748319265
6772.787002702975,0.002513392064404903,0.0031134482521530155
6772.788002474898,0.0025112399511568063,0.003134315661945165
6772.789002246821,0.0025114054532537375,0.0031580010760808588
6772.790002018744,0.00251402601187128,0.0031840215452538525
6772.791001790666,0.002519211459925353,0.0032118632481876377
6772.792001562589,0.0025270410795109905,0.003240991409616897
6772.793001334512,0.002537560702243705,0.003270860098474448
6772.794001106435,0.0025507800106127107,0.0033009216763347816
6772.795000878357,0.0025666702003125804,0.003330635735430462
6772.79600065028,0.002585162139989293,0.0033594774195564643
6772.7970004222025,0.002606145123305132,0.0033869450477650906
6772.798000194126,0.002629466259468125,0.003412566974934577
6772.7989999660485,0.002654930513405559,0.003435907646201063
6772.799999737971,0.0026823014073665283,0.003456572826377993
6772.800999509894,0.002711302425969542,0.003474213985183482
6772.801999281816,0.0027416191903049045,0.003488531794315469
6772.80299905374,0.002772902454633339,0.0034992786718977932
6772.803998825662,0.002804771936727317,0.0035062603133034745
6772.804998597585,0.002836820946954286,0.003509336177741878
6772.805998369508,0.0028686217552278508,0.003508418963722517
6772.80699814143,0.002899731635409673,0.003503473196996579
6772.807997913353,0.002929699542346454,0.003494513126673845
6772.808997685276,0.002958073384766355,0.003481600135374753
6772.809997457199,0.002984407834381587,0.0034648398259264075
6772.810997229121,0.0030082725504393414,0.0034443788857901267
6772.811997001044,0.003029260622000696,0.0034204017707823203
6772.812996772967,0.0030469969803420325,0.003393127203577236
6772.81399654489,0.003061146542678249,0.0033628044691122578
6772.8149963168125,0.0030714219080956932,0.0033297095155896874
6772.815996088735,0.0030775904931641855,0.0032941409109228646
6772.816995860658,0.0030794810229126095,0.0032564157184937627
6772.81799563258,0.0030769892672922695,0.00321686532639631
6772.818995404504,0.0030700828483656924,0.003175831215023374
6772.819995176426,0.0030588048706771584,0.003133660615198548
6772.820994948349,0.0030432760864713406,0.003090702014993524
6772.821994720272,0.0030236953299882705,0.0030473005262845916
6772.822994492194,0.0030003380434084604,0.003003793215331197
6772.823994264118,0.002973552844917886,0.0029605046028360117
6772.82499403604,0.0029437562188034745,0.0029177425994762756
6772.825993807963,0.002911425506579082,0.0028757951287179187
6772.826993579885,0.0028770904393069564,0.002834927601763129
6772.827993351808,0.002841323494426823,0.0027953812836370765
6772.8289931237305,0.0028047294041123145,0.002757372468932728
6772.829992895654,0.0027679341775821496,0.002721092302513887
6772.8309926675765,0.0027315740066893492,0.0026867070461439086
6772.831992439499,0.0026962843986678723,0.002654358602933474
6772.832992211422,0.0026626898300553996,0.0026241651511498955
6772.833991983344,0.00263139414373244,0.0025962217830887663
6772.834991755268,0.002602971817478228,0.002570601078934978
6772.83599152719,0.002577960131053422,0.0025473535721177265
6772.836991299113,0.002556852174229054,0.002526508090185118
6772.837991071036,0.00254009059032015,0.0025080719923854674
6772.838990842958,0.002528061943609931,0.0024920313731539557
6772.839990614881,0.0025210916275190762,0.0024783513424779953
6772.840990386804,0.0025194392806988527,0.002466976506763827
6772.841990158727,0.0025232947339793262,0.002457831752837394
6772.842989930649,0.002532774555410862,0.002450823397326874
6772.843989702572,0.002547919284489265,0.002445840720472664
6772.844989474495,0.0025686914544445216,0.00244275786719215
6772.845989246418,0.002594974502378033,0.0024414360728288093
6772.8469890183405,0.00262657265910097,0.002441726156837094
6772.847988790263,0.0026632118830875375,0.002443471221550665
6772.848988562186,0.002704541858618405,0.0024465094904352557
6772.849988334108,0.0027501390394321194,0.0024506772199295378
6772.850988106032,0.0027995107069004118,0.002455811621992574
6772.851987877954,0.0028521000256685734,0.0024617537351834407
6772.852987649877,0.002907292102748714,0.0024683511724844214
6772.8539874218,0.002964421070950892,0.0024754606595352806
6772.854987193722,0.0030227782151126957,0.0024829502788520233
6772.855986965646,0.003081621135111423,0.0024907013725420733
6772.856986737568,0.003140183891490535,0.0024986101230917647
6772.857986509491,0.0031976880142205073,0.002506588898307703
6772.858986281413,0.0032533541889674237,0.0025145674786220037
6772.859986053336,0.0033064143881684116,0.0025224942743981168
6772.8609858252585,0.0033561241964974674,0.002530337604046637
6772.861985597182,0.0034017750830670386,0.002538087055071985
6772.8629853691045,0.0034427063773541785,0.0025457548910426944
6772.863985141027,0.003478316704006677,0.002553377400153997
6772.86498491295,0.0035080746328919636,0.0025610160178306434
6772.865984684872,0.0035315283224027767,0.0025687580138764733
6772.866984456796,0.003548313982948352,0.0025767165292300293
6772.867984228718,0.003558163046941517,0.0025850297849289313
6772.868984000641,0.0035609079690284338,0.0025938593563899414
6772.869983772564,0.003556486575730461,0.0026033874870612086
6772.870983544486,0.0035449448498107703,0.0026138134863784744
6772.87198331641,0.003526438004742696,0.002625349306098484
6772.872983088332,0.0035012297014344017,0.0026382144175095463
6772.873982860255,0.0034696892828605013,0.002652630136929153
6772.874982632177,0.003432286941416353,0.0026688135831258947
6772.8759824041,0.0033895867798627473,0.002686971486516333
6772.876982176023,0.0033422377804047903,0.0027072940815478707
6772.877981947946,0.0032909627703523875,0.00272994929165818
6772.8789817198685,0.003236545580936723,0.0027550773699447396
6772.879981491791,0.003179816730493853,0.0027827861032196804
6772.880981263714,0.0031216380834097517,0.0028131466395183075
6772.881981035636,0.003062886994959456,0.0028461899765802262
6772.88298080756,0.0030044404384894714,0.0028819041568219268
6772.883980579482,0.00294715954999215,0.0029202322374389062
6772.884980351405,0.0028918749421380035,0.002961071120505032
6772.885980123328,0.002839373052665433,0.0030042713301570434
6772.88697989525,0.002790383723628328,0.00304963781413283
6772.887979667174,0.0027455691811715545,0.0030969318191831977
6772.888979439096,0.0027055145942094516,0.0031458738376806098
6772.889979211019,0.0026707203931265284,0.0031961475536403682
6772.890978982941,0.002641596487072799,0.0032474046460220195
6772.891978754864,0.0026184584306151357,0.003299270248410154
6772.8929785267865,0.0026015254885578495,0.003351348827307184
6772.89397829871,0.00259092046420614,0.003403230230137516
6772.8949780706325,0.0025866711099546123,0.003454495657898939
6772.895977842555,0.0025887129311684925,0.0035047233257847897
6772.896977614478,0.0025968932141573636,0.0035534936019874417
6772.8979773864,0.002610976146102428,0.0036003934834599152
6772.898977158324,0.0026306489393216584,0.00364502036952801
6772.899976930246,0.0026555289081007247,0.0036869851903337113
6772.900976702169,0.0026851714563087153,0.0037259150093278044
6772.901976474092,0.002719078909933347,0.0037614552534487654
6772.902976246014,0.0027567100753556183,0.0037932717462374195
6772.903976017938,0.0027974903411371213,0.003821052723307959
6772.90497578986,0.0028408220940387492,0.0038445109834349305
6772.905975561783,0.002886095204380035,0.0038633862810794266
6772.906975333705,0.0029326973508623116,0.0038774480216532434
6772.907975105628,0.0029800239888265064,0.0038864982846821008
6772.908974877551,0.00302748780208406,0.0038903751591205433
6772.909974649474,0.0030745275012642706,0.0038889563263599736
6772.9109744213965,0.003120615832834011,0.0038821627815920842
6772.911974193319,0.003165266649004008,0.0038699625529101524
6772.912973965242,0.0032080408806483083,0.0038523742595859664
6772.913973737164,0.0032485512730504695,0.003829470334743567
6772.914973509088,0.003286465786933058,0.0038013797101227502
6772.91597328101,0.0033215096157046408,0.0037682897260438654
6772.916973052933,0.0033534658121483077,0.0037304470058557005
6772.917972824856,0.003382174559989732,0.003688157035116685
6772.918972596778,0.003407531169818993,0.0036417822230061167
6772.919972368702,0.0034294829052008047,0.0035917383042627904
6772.920972140624,0.003448024738564694,0.003538489049808912
6772.921971912547,0.003463194124021965,0.0034825393659237286
6772.922971684469,0.00347506490633956,0.0034244269683667214
6772.923971456392,0.003483740576361344,0.0033647129244505684
6772.9249712283145,0.003489347191580623,0.0033039714436308818
6772.925971000238,0.0034920263537230926,0.0032427793354001654
6772.9269707721605,0.003491928648310024,0.003181705542834593
6772.927970544083,0.003489207903417838,0.0031213011255361665
6772.928970316006,0.00348401653045131,0.0030620900200672555
6772.929970087928,0.0034765020981299788,0.003004560849536965
6772.930969859852,0.003466805192246073,0.0029491599908096425
6772.931969631774,0.0034550585340970305,0.0028962860436074094
6772.932969403697,0.003441387250234967,0.0028462857794731298
6772.93396917562,0.0034259100935177247,0.0027994515793471884
6772.934968947542,0.0034087413322862956,0.0027560203066474896
6772.935968719466,0.003389992982839161,0.0027161735217977943
6772.936968491388,0.0033697770663029722,0.0026800389226866823
6772.937968263311,0.003348207611723839,0.002647692875241377
6772.938968035233,0.003325402194026544,0.002619163863085452
6772.939967807156,0.0033014828802345915,0.0025944366401361775
6772.940967579079,0.0032765765448685372,0.0025734568389866623
6772.941967351002,0.0032508145938107413,0.0025561357891631066
6772.9429671229245,0.0032243322058068714,0.002542355324469961
6772.943966894847,0.003197267267003366,0.0025319723845962233
6772.94496666677,0.00316975922454458,0.002524823236397219
6772.945966438692,0.003141948088998332,0.0025207271749537003
6772.946966210616,0.0031139737547804486,0.0025194896341319867
6772.947965982538,0.0030859757047003913,0.002520904729404566
6772.948965754461,0.0030580930590547667,0.002524757333805921
6772.949965526384,0.0030304648461048195,0.002530824823213923
6772.950965298306,0.0030032303193873256,0.002538878624395182
6772.95196507023,0.002976529138399733,0.002548685684823575
6772.952964842152,0.0029505012678524766,0.002560009980390051
6772.953964614075,0.0029252865230895244,0.0025726141835332676
6772.954964385997,0.002901023766074058,0.0025862616003874163
6772.95596415792,0.0028778498065881414,0.0026007184260600585
6772.956963929843,0.0028558980681561235,0.0026157562764777837
6772.957963701766,0.002835297045492935,0.002631154879159355
6772.9589634736885,0.0028161685437719177,0.002646704776707423
6772.959963245611,0.00279862568168457,0.0026622099073951694
6772.960963017534,0.002782770665929621,0.002677489943622241
6772.961962789457,0.0027686923870803896,0.0026923822664601327
6772.96296256138,0.002756463919299741,0.002706743431687248
6772.963962333302,0.0027461400066649683,0.0027204499633679347
6772.964962105225,0.002737754584833058,0.0027333983356362204
6772.965961877148,0.002731318345738128,0.00274550409266099
6772.96696164907,0.0027268163446213935,0.0027567001787457517
6772.967961420994,0.002724205688249199,0.0027669346467759193
6772.968961192916,0.0027234134057948223,0.0027761679574243607
6772.969960964839,0.002724334652330464,0.002784370091153803
6772.970960736761,0.0027268314145612502,0.002791517691446175
6772.971960508684,0.0027307318895729072,0.002797591441688992
6772.972960280607,0.002735830703138688,0.002802573848322994
6772.97396005253,0.002741890121805218,0.0028064475684522715
6772.9749598244525,0.0027486423778011228,0.002809194382551276
6772.975959596375,0.0027557931625191634,0.0028107948568063157
6772.976959368298,0.0027630262645619483,0.0028112286565547388
6772.97795914022,0.0027700092459584233,0.002810475381121736
6772.978958912144,0.002776399972391496,0.002808515729617243
6772.979958684066,0.002781853748827129,0.0028053328110249644
6772.980958455989,0.002786030775302563,0.0028009134816437023
6772.981958227912,0.002788603638115917,0.002795249686338374
6772.982957999834,0.0027892645841714864,0.002788339841887647
6772.983957771758,0.0027877323780661155,0.002780190307276193
6772.98495754368,0.0027837586011037942,0.002770816950121296
6772.985957315603,0.002777133306122966,0.0027602467647665657
6772.986957087525,0.0027676899768964377,0.002748519446527862
6772.987956859448,0.002755309751532038,0.0027356887944482095
6772.988956631371,0.0027399248712393852,0.002721823811631199
6772.989956403294,0.0027215213248567944,0.0027070093955299133
6772.9909561752165,0.0027001406678883923,0.0026913465453729966
6772.991955947139,0.0026758809873885197,0.0026749520447588745
6772.992955719062,0.002648896967874911,0.002657957598968127
6772.993955490985,0.002619399007553432,0.002640508418743766
6772.994955262908,0.002587651344346748,0.0026227612500873618
6772.99595503483,0.002553969174224388,0.002604881867406552
6772.996954806753,0.0025187147783722426,0.002587042084680086
6772.997954578676,0.0024822927122735996,0.002569416384032664
6772.998954350598,0.002445144133790518,0.0025521782925638408
6772.999954122522,0.0024077403565437535,0.002535496652084801
6773.000953894444,0.002370575719751435,0.0025195319328059117
6773.001953666367,0.0023341598700839833,0.00250443274602093
6773.002953438289,0.0022990095556696495,0.0024903327097951363
6773.003953210212,0.002265640048698602,0.0024773478171149273
6773.004952982135,0.0022345563509245663,0.0024655744495360662
6773.005952754058,0.002206244386367556,0.0024550881596615702
6773.0069525259805,0.002181162426524159,0.0024459432978443728
6773.007952297903,0.0021597330074914216,0.0024381734857931337
6773.008952069826,0.0021423355783842884,0.002431792862905587
6773.009951841748,0.0021293000740680986,0.0024267979691573387
6773.010951613672,0.0021209015516536053,0.0024231700916291826
6773.011951385594,0.0021173559838669376,0.0024208778955844704
6773.012951157517,0.0021188172618049235,0.00241988018174248
6773.01395092944,0.0021253754147929804,0.0024201286430395818
6773.014950701363,0.002137056001677904,0.0024215705231060473
6773.015950473286,0.002153820575110058,0.002424151107804164
6773.016950245208,0.0021755680925391544,0.0024278160136484194
6773.017950017131,0.0022021371654183442,0.0024325132550442525
6773.018949789053,0.002233309086153364,0.0024381950551618323
6773.019949560976,0.0022688116049178406,0.002444819320376656
6773.020949332899,0.002308323417401346,0.0024523506576515706
6773.021949104822,0.0023514792845269437,0.002460760806017922
6773.0229488767445,0.0023978756729600356,0.0024700283836709773
6773.023948648667,0.0024470768062511464,0.0024801379118596827
6773.02494842059,0.002498621043292512,0.0024910781553052017
6773.025948192513,0.002552027522206746,0.0025028399017267195
6773.026947964436,0.002606803004400281,0.0025154133669357676
6773.027947736358,0.002662448833414275,0.002528785443707136
6773.028947508281,0.002718467902234246,0.0025429370183126425
6773.029947280204,0.002774371508516548,0.0025578405655440075
6773.030947052126,0.0028296859716055583,0.002573458202436909
6773.03194682405,0.0028839588858820655,0.0025897403356151976
6773.032946595972,0.002936764888661865,0.00260662498211367
6773.033946367895,0.0029877108328185756,0.0026240377874461006
6773.034946139817,0.003036440283409132,0.002641892722887437
6773.03594591174,0.00308263729847313,0.002660093425602557
6773.036945683663,0.003126029487095607,0.002678535142170104
6773.037945455586,0.0031663903501753824,0.0026971072302930756
6773.0389452275085,0.003203540909137999,0.002715696150168795
6773.039944999431,0.0032373506312905293,0.0027341888354011717
6773.040944771354,0.003267737669997146,0.002752476293194618
6773.041944543277,0.0032946684401267768,0.002770457267807124
6773.0429443152,0.0033181565385607703,0.0027880418068771985
6773.043944087122,0.0033382610106259727,0.002805154572667245
6773.044943859045,0.00335508397314723,0.0028217377292767466
6773.045943630968,0.003368767633006334,0.0028377532291019715
6773.046943402891,0.003379490769339787,0.002853184335166015
6773.047943174814,0.003387464754734699,0.002868036251444698
6773.048942946736,0.0033929291656598936,0.002882335786094557
6773.049942718659,0.0033961469905542468,0.002896130040438936
6773.050942490581,0.0033973994137877074,0.002909484189501741
6773.051942262504,0.0033969801528885356,0.002922478478454858
6773.052942034427,0.003395189355466073,0.0029352045950410363
6773.05394180635,0.0033923271083019712,0.0029477616001023802
6773.0549415782725,0.0033886866573522114,0.0029602516150864415
6773.055941350195,0.003384547478368711,0.0029727754697644426
6773.056941122118,0.0033801683822807485,0.002985428490777905
6773.057940894041,0.0033757808926146624,0.0029982965560464976
6773.058940665964,0.003371583179290372,0.0030114524604404926
6773.059940437886,0.0033677348469948465,0.003024952555863135
6773.060940209809,0.0033643528441500282,0.0030388335778632706
6773.061939981732,0.003361508695015439,0.003053109585846562
6773.062939753654,0.0033592271866060186,0.003067769026147396
6773.063939525578,0.003357486575867653,0.0030827720323540484
6773.0649392975,0.003356220322080888,0.003098048156818311
6773.065939069423,0.0033553202901748934,0.0031134947672126025
6773.066938841345,0.003354641306300352,0.0031289763513051654
6773.067938613268,0.003354006882052611,0.0031443249586374984
6773.068938385191,0.003353215873434134,0.0031593419708209006
6773.069938157114,0.003352049814925126,0.003173801331227907
6773.0709379290365,0.0033502806670054927,0.0031874542773431317
6773.071937700959,0.003347678727849804,0.0032000355127526584
6773.072937472882,0.0033440204688184646,0.0032112706530646245
6773.073937244805,0.003339096047586036,0.003220884697074799
6773.074937016728,0.0033327162460482806,0.003228611206048629
6773.07593678865,0.003324718596884275,0.0032342018098846115
6773.076936560573,0.003314972508772238,0.0032374355983581186
6773.077936332496,0.003303383258646227,0.0032381279048793324
6773.078936104419,0.0032898947681927414,0.003236137972780093
6773.079935876342,0.003274491115727651,0.0032313750472337467
6773.080935648264,0.0032571967679920393,0.003223802560424308
6773.081935420187,0.0032380755612046387,0.0032134402218398743
6773.082935192109,0.0032172285108626715,0.003200363948036912
6773.083934964032,0.0031947905759980946,0.0031847036726770864
6773.084934735955,0.0031709265489016356,0.0031666391787913105
6773.085934507878,0.00314582628852832,0.003146394176115229
6773.0869342798005,0.00311969955044398,0.003124228895021588
6773.087934051723,0.0030927706682309683,0.0031004314995128316
6773.088933823646,0.0030652733111377773,0.0030753086559819134
6773.089933595569,0.0030374454999265612,0.0030491756337599546
6773.090933367492,0.003009525018640377,0.003022346339735237
6773.091933139414,0.002981745311256828,0.0029951236848098158
6773.092932911337,0.0029543319024550687,0.002967790648425207
6773.09393268326,0.00292749934332496,0.0029406023697775745
6773.094932455183,0.002901448655107347,0.0029137795596144407
6773.095932227106,0.0028763652116386173,0.0028875034787146274
6773.096931999028,0.0028524169593515235,0.002861912651226602
6773.097931770951,0.0028297528425403097,0.0028371013798461574
6773.098931542873,0.0028085013106193216,0.0028131200290932735
6773.099931314797,0.0027887688436256663,0.002789976959699926
6773.100931086719,0.0027706385179237718,0.0027676419305449253
6773.101930858642,0.0027541687016282936,0.002746050726089795
6773.1029306305645,0.0027393919887518333,0.002725110721870985
6773.103930402487,0.002726314459591072,0.0027047070886269207
6773.10493017441,0.00271491532863197,0.0026847093614700973
6773.105929946333,0.002705147042272726,0.002664978136309136
6773.106929718256,0.0026969359121531,0.0026453716748599094
6773.107929490178,0.0026901833806874504,0.002625752210116587
6773.108929262101,0.002684767988700319,0.0026059917729152325
6773.109929034024,0.0026805480597415577,0.002585977413682271
6773.110928805947,0.0026773650601604293,0.0025656157456613368
6773.11192857787,0.0026750475585418086,0.0025448367575420746
6773.112928349792,0.0026734156882599475,0.002523596837569537
6773.113928121715,0.0026722859948983724,0.0025018809490416107
6773.114927893637,0.0026714765192414427,0.002479703918796541
6773.11592766556,0.00267081193573458,0.002457110834750854
6773.116927437483,0.002670128552728728,0.0024341765758158942
6773.117927209406,0.0026692789998152043,0.0024110045168886313
6773.1189269813285,0.0026681364734516765,0.0023877244754434007
6773.119926753251,0.002666598453228096,0.002364489995313234
6773.120926525174,0.0026645898125704027,0.0023414750833918307
6773.121926297097,0.0026620652347512153,0.0023188705167609246
6773.12292606902,0.002659010826792266,0.0022968798281087547
6773.123925840942,0.002655444815387949,0.002275715068269081
6773.124925612865,0.00265141721890161,0.0022555924384449304
6773.125925384788,0.0026470084154707764,0.002236727879632689
6773.126925156711,0.00264232656519232,0.0022193327111730515
6773.127924928634,0.00263750390424877,0.0022036094307143904
6773.128924700556,0.002632692018104792,0.002189747808127827
6773.129924472479,0.002628056298722394,0.0021779213987946533
6773.130924244401,0.0026237698633423197,0.0021682845589380694
6773.131924016325,0.0026200072428444847,0.0021609699855028638
6773.132923788247,0.0026169381384958655,0.00215608675214052
6773.13392356017,0.002614721509089854,0.0021537187875095634
6773.1349233320925,0.002613500201675948,0.0021539237457001274
6773.135923104015,0.0026133962877583445,0.0021567322476245903
6773.136922875938,0.002614507210391036,0.0021621475149591835
6773.137922647861,0.0026169027795472327,0.0021701454522145627
6773.138922419784,0.0026206229794004587,0.0021806752372569614
6773.139922191706,0.002625676499819789,0.0021936604553422926
6773.140921963629,0.002632039906880504,0.002209000773267747
6773.141921735552,0.0026396574169329765,0.0022265741124573497
6773.142921507475,0.0026484412870262314,0.0022462392433767473
6773.143921279398,0.0026582728422436985,0.0022678386860867216
6773.14492105132,0.0026690041367605573,0.002291201768834341
6773.145920823243,0.0026804602262729274,0.0023161476832115457
6773.146920595165,0.002692442033623152,0.0023424883947059413
6773.147920367088,0.0027047298012447146,0.0023700313178396876
6773.148920139011,0.0027170871154532377,0.002398581717700361
6773.149919910934,0.0027292654483907857,0.002427944829483117
6773.1509196828565,0.002741009108786502,0.002457927705612885
6773.151919454779,0.0027520604522196534,0.0024883408313681036
6773.152919226702,0.0027621651983937407,0.002518999583622707
6773.153918998625,0.0027710777313944574,0.002549725605630385
6773.154918770548,0.0027785662898292774,0.0025803481254509323
6773.15591854247,0.002784417969405642,0.002610705188768637
6773.156918314393,0.002788443468539422,0.0026406447410137215
6773.157918086316,0.0027904815167924795,0.0026700254857629354
6773.158917858239,0.0027904029305856506,0.002698717456992151
6773.1599176301615,0.0027881142324034055,0.0027266022644636396
6773.160917402084,0.0027835607492561294,0.002753573000896753
6773.161917174007,0.002776729082812497,0.002779533829788633
6773.162916945929,0.002767648831521466,0.002804399298616531
6773.163916717853,0.0027563934577170225,0.0028280934452859187
6773.164916489775,0.002743080234334857,0.0028505487833380173
6773.165916261698,0.0027278692645562224,0.002871705254371036
6773.1669160336205,0.002710961620958477,0.002891509224120155
6773.167915805543,0.002692596681867827,0.002909912581455129
6773.168915577466,0.0026730487511397185,0.0029268719836283512
6773.169915349389,0.0026526230439572374,0.0029423482765561053
6773.170915121312,0.0026316511124388586,0.002956306104146244
6773.171914893234,0.002610485773316259,0.002968713705832261
6773.172914665157,0.0025894955977815064,0.0029795428893874105
6773.17391443708,0.0025690590460992,0.0029887691585537553
6773.174914209003,0.0025495583673041874,0.0029963719717626446
6773.1759139809255,0.0025313734075192687,0.003002335108442817
6773.176913752848,0.002514875466159267,0.003006647116016035
6773.177913524771,0.002500421321144561,0.0030093017925793587
6773.178913296693,0.00248834752704264,0.003010298632693992
6773.179913068617,0.002478965073978129,0.0030096431545190865
6773.180912840539,0.0024725544725490837,0.00300734705864365
6773.181912612462,0.0024693612976479998,0.0030034282303822283
6773.1829123843845,0.002469592192050827,0.0029979106489773596
6773.183912156307,0.0024734113179847843,0.0029908242827911186
6773.184911928231,0.002480937261394275,0.0029822050381446024
6773.185911700153,0.0024922404310694585,0.002972094815566033
6773.186911472076,0.002507341036334793,0.0029605417225197716
6773.187911243998,0.0025262077558486622,0.0029476004901807045
6773.188911015921,0.002548757212365834,0.002933333130811954
6773.189910787844,0.0025748543395468426,0.0029178098443547523
6773.190910559767,0.0026043136815427914,0.0029011101429950764
6773.1919103316895,0.002636901632787732,0.002883324123016377
6773.192910103612,0.0026723396174235616,0.0028645537793950005
6773.193909875535,0.0027103082043454228,0.002844914227469211
6773.194909647457,0.0027504521292559805,0.0028245346709939423
6773.195909419381,0.0027923861553733743,0.002803558948045364
6773.196909191303,0.0028357016756441157,0.002782145499157462
6773.197908963226,0.002879973947934492,0.0027604666299399176
6773.1989087351485,0.0029247698368872013,0.0027387069829141004
6773.199908507071,0.002969655888435542,0.0027170611991142496
6773.200908278994,0.0030142064938098153,0.0026957308399522158
6773.201908050917,0.003058011843204724,0.0026749207303490294
6773.20290782284,0.0031006853528151327,0.0026548349375945194
6773.203907594762,0.003141870277502679,0.0026356726025510407
6773.204907366685,0.0031812452840842835,0.0026176238182969366
6773.205907138608,0.0032185288413597852,0.002600865742002381
6773.206906910531,0.0032534823667551057,0.0025855591305709454
6773.2079066824535,0.0032859121447871677,0.0025718454830983895
6773.208906454376,0.0033156700955315646,0.002559844935658084
6773.209906226299,0.0033426535195324853,0.0025496549925723934
6773.210905998221,0.0033668039717935413,0.002541350112425658
6773.211905770145,0.0033881054127603187,0.0025349821149623156
6773.212905542067,0.0034065817509266335,0.0025305813435601726
6773.21390531399,0.0034222938506490736,0.0025281584955931043
6773.2149050859125,0.0034353360563083215,0.0025277070007003436
6773.215904857835,0.003445832290469762,0.0025292057838134483
6773.216904629759,0.0034539318074419643,0.0025326222190915335
6773.217904401681,0.0034598047027534183,0.0025379150866607124
6773.218904173604,0.003463637279091552,0.002545037387043317
6773.219903945526,0.003465627355506907,0.002553938925336274
6773.220903717449,0.0034659795997693007,0.0025645686216194726
6773.221903489372,0.003464900977504139,0.002576876528072324
6773.222903261295,0.0034625964358858145,0.002590815550690568
6773.2239030332175,0.0034592649486684082,0.0026063428968934447
6773.22490280514,0.0034550960287609367,0.002623421291588325
6773.225902577063,0.003450266775603793,0.0026420200027509706
6773.226902348985,0.003444939491335847,0.002662115684520279
6773.227902120909,0.003439259880972317,0.0026836929965575987
6773.228901892831,0.003433355829107539,0.0027067449223636382
6773.229901664754,0.003427336700505715,0.0027312727088926116
6773.2309014366765,0.003421293060872738,0.0027572853809052773
6773.231901208599,0.00341529669755928,0.002784798813480733
6773.232900980523,0.0034094008572778754,0.0028138343452227604
6773.233900752445,0.003403640687646207,0.0028444168901155848
6773.234900524368,0.0033980339295845356,0.0028765724944306253
6773.23590029629,0.0033925819264184025,0.0029103253140132348
6773.236900068213,0.0033872709885465523,0.0029456940508086975
6773.237899840136,0.003382074099967203,0.002982687958076914
6773.238899612059,0.0033769529030008164,0.0030213025781548517
6773.2398993839815,0.003371859872239948,0.0030615154066746574
6773.240899155904,0.0033667405965841202,0.003103281684727304
6773.241898927827,0.003361536120187435,0.0031465305120575763
6773.242898699749,0.003356185328942578,0.0031911614585552112
6773.243898471673,0.003350627389437525,0.0032370418348274138
6773.244898243595,0.003344804241167702,0.0032840047655152828
6773.245898015518,0.0033386631160549746,0.0033318481863764005
6773.2468977874405,0.0033321590380319846,0.0033803348586983624
6773.247897559363,0.003325257261571339,0.0034291934731421974
6773.248897331287,0.0033179356315038394,0.0034781209084275375
6773.249897103209,0.0033101868571595396,0.0035267857075595792
6773.250896875132,0.003302020674560448,0.0035748328045612887
6773.251896647054,0.0032934658261163812,0.0036218894528543205
6773.252896418977,0.0032845717358412113,0.0036675721838090474
6773.2538961909,0.0032754097181119674,0.0037114945069150283
6773.254895962823,0.0032660735341155226,0.003753274998333186
6773.2558957347455,0.0032566790986625245,0.003792545426285921
6773.256895506668,0.003247363155967741,0.0038289586056102698
6773.257895278591,0.00323828081344777,0.003862195721156803
6773.258895050513,0.0032296019452400637,0.0038919728947222044
6773.259894822437,0.0032215066127819223,0.003918046811192747
6773.260894594359,0.0032141797568990536,0.0039402192815217365
6773.261894366282,0.0032078054736919743,0.003958340684311589
6773.2628941382045,0.0032025611947355823,0.003972312267779646
6773.263893910127,0.00319861206588293,0.003982087308852458
6773.264893682051,0.003196105778055294,0.003987671137130949
6773.265893453973,0.0031951680572736493,0.00398912006294916
6773.266893225896,0.003195898970221481,0.003986539304472557
6773.267892997818,0.0031983701504253973,0.003980080057380253
6773.268892769741,0.0032026230045835995,0.0039699358526251675
6773.269892541664,0.0032086679136184774,0.00395633829732165
6773.270892313587,0.0032164843917340167,0.003939552228403959
6773.2718920855095,0.0032260221157291652,0.003919870284468166
6773.272891857432,0.003237202696330311,0.003897606946684371
6773.273891629355,0.003249922032882773,0.003873092180979309
6773.274891401277,0.0032640530721160443,0.0038466648647693014
6773.275891173201,0.0032794487930680946,0.003818666172602044
6773.276890945123,0.0032959452745643784,0.003789433051008392
6773.277890717046,0.003313364760938621,0.003759291873616098
6773.2788904889685,0.003331518703417731,0.00372855235432035
6773.279890260891,0.0033502107972462804,0.003697501808099382
6773.280890032815,0.0033692400456587527,0.003666399875336521
6773.281889804737,0.0033884038608313015,0.003635473858200043
6773.28288957666,0.0034075011757324137,0.0036049148471785494
6773.283889348582,0.0034263355160406143,0.0035748748223321898
6773.284889120505,0.0034447179792338064,0.003545464881701164
6773.285888892428,0.003462470072796197,0.003516754686643337
6773.286888664351,0.0034794263556476726,0.0034887731394100145
6773.2878884362735,0.003495436807623707,0.0034615102313398254
6773.288888208196,0.0035103688357112184,0.003434919926166448
6773.289887980119,0.0035241088194160474,0.003408923886304321
6773.290887752041,0.003536563096477385,0.0033834158303435993
6773.291887523965,0.0035476582923304823,0.0033582663348488825
6773.292887295887,0.003557340913654073,0.003333327942108318
6773.29388706781,0.003565576174001746,0.0033084404721502674
6773.2948868397325,0.00357234609764494,0.0032834364469565116
6773.295886611655,0.003577647035073526,0.003258146533184549
6773.296886383579,0.0035814867974750743,0.003232404918153039
6773.297886155501,0.0035838816667760664,0.003206054552202515
6773.298885927424,0.0035848535536243437,0.0031789522018675423
6773.299885699346,0.0035844275477911022,0.003150973255456386
6773.300885471269,0.0035826300353917298,0.003122016214498806
6773.301885243192,0.003579487465985688,0.0030920067963169295
6773.302885015115,0.003575025770109354,0.0030609015597813836
6773.3038847870375,0.0035692703707594716,0.0030286909496394353
6773.30488455896,0.0035622466904443734,0.0029954016518823666
6773.305884330883,0.003553981013957823,0.0029610981778730697
6773.306884102805,0.003544501538876801,0.002925883635844526
6773.307883874729,0.003533839455522244,0.002889899677897893
6773.308883646651,0.0035220299417889882,0.002853325624139658
6773.309883418574,0.003509113007867236,0.0028163767822686793
6773.3108831904965,0.0034951341653645276,0.0027793020065360625
6773.311882962419,0.003480144926021501,0.0027423805518792164
6773.312882734343,0.0034642031548132546,0.002705918257463311
6773.313882506265,0.003447373302180698,0.0026702430539414087
6773.314882278188,0.0034297265201200956,0.0026356997675050457
6773.31588205011,0.0034113406360947143,0.002602644211753032
6773.316881822033,0.0033922999266486845,0.002571436604203009
6773.317881593956,0.003372694611717859,0.0025424343932810285
6773.318881365879,0.0033526200029577935,0.0025159846223608943
6773.3198811378015,0.003332175296906345,0.002492415999144264
6773.320880909724,0.003311462081282857,0.002472030892149813
6773.321880681647,0.003290582675389599,0.0024550975309676013
6773.32288045357,0.0032696384341782277,0.002441842718741847
6773.323880225493,0.0032487281247154075,0.002432445359668015
6773.324879997415,0.003227946456197252,0.0024270310614933704
6773.325879769338,0.0032073828250942624,0.002425668002101212
6773.3268795412605,0.003187120330358412,0.0024283641727623007
6773.327879313183,0.003167235114304866,0.0024350660577472545
6773.328879085107,0.0031477960799412394,0.0024456587880134916
6773.329878857029,0.0031288650130608963,0.002459967793902337
6773.330878628952,0.0031104970939292444,0.0024777619569558294
6773.331878400874,0.0030927417286793126,0.002498758223806097
6773.332878172797,0.003075643585189827,0.002522627605261462
6773.33387794472,0.00305924370099758,0.0025490024445892767
6773.334877716643,0.003043580544138227,0.002577484796752417
6773.3358774885655,0.003028690938872111,0.0026076557144638296
6773.336877260488,0.0030146108036446973,0.002639085194304666
6773.337877032411,0.003001375679876975,0.002671342501328323
6773.338876804333,0.0029890210474400685,0.0027040065630469833
6773.339876576257,0.002977582420097928,0.0027366761088637257
6773.340876348179,0.002967095201536519,0.002768979237025665
6773.341876120102,0.002957594273692241,0.0028005821132009363
6773.3428758920245,0.0029491132841752373,0.0028311965285111426
6773.343875663947,0.002941683595446446,0.0028605860637041423
6773.344875435871,0.0029353328643922693,0.002888570625870903
6773.345875207793,0.0029300832495308907,0.002915029160899917
6773.346874979716,0.0029259492921596257,0.0029399004207510964
6773.347874751638,0.0029229355695199644,0.0029631817808982827
6773.348874523561,0.0029210342550152917,0.002984926217298851
6773.349874295484,0.002920222740737263,0.00300523761288584
6773.350874067407,0.002920461488594469,0.0030242645742735393
6773.3518738393295,0.002921692275855421,0.00304219295200003
6773.352873611252,0.002923836975385421,0.003059237297756725
6773.353873383175,0.0029267969551946553,0.0030756315275395608
6773.354873155098,0.0029304531115467635,0.0030916190572173384
6773.355872927021,0.002934666491669943,0.0031074426560188514
6773.356872698943,0.0029392794356699233,0.0031233342698691055
6773.357872470866,0.0029441171712747205,0.0031395051115129264
6773.3588722427885,0.0029489898094759415,0.003156136363814636
6773.359872014711,0.002953694694645145,0.003173370862449163
6773.360871786635,0.002958019059664204,0.0031913061110412436
6773.361871558557,0.0029617429378680765,0.0032099889465673605
6773.36287133048,0.002964642291400412,0.0032294121175446533
6773.363871102402,0.0029664923231850155,0.003249512957764803
6773.364870874325,0.0029670709485121365,0.0032701742378296703
6773.365870646248,0.002966162414261571,0.0032912271709777015
6773.366870418171,0.0029635610622528417,0.0033124564535967405
6773.3678701900935,0.0029590752359829595,0.0033336071373185386
6773.368869962016,0.002952531329576723,0.003354393053119213
6773.369869733939,0.0029437779667211774,0.0033745064360510622
6773.370869505861,0.0029326902680898784,0.003393628339062356
6773.371869277785,0.002919174125709332,0.003411439385191858
6773.372869049707,0.00290317036413405,0.0034276303873477395
6773.37386882163,0.0028846586383958076,0.0034419123523384085
6773.3748685935525,0.0028636609066178768,0.003454025384491916
6773.375868365476,0.0028402443284523877,0.003463746051178643
6773.376868137399,0.002814523467519819,0.0034708929102848186
6773.377867909321,0.002786661691499513,0.003475330114222808
6773.378867681244,0.002756871660013965,0.0034769692098457513
6773.379867453166,0.0027254147870721286,0.0034757693594630813
6773.380867225089,0.002692599576922063,0.003471736201540677
6773.381866997012,0.002658778751047566,0.0034649195116989587
6773.382866768935,0.0026243450966124053,0.0034554097883883715
6773.3838665408575,0.002589725981722824,0.0034433339048117145
6773.38486631278,0.002555376526748566,0.003428850022020419
6773.385866084703,0.002521771508046935,0.0034121420110558155
6773.386865856626,0.002489396183262691,0.003393413660488265
6773.387865628549,0.002458736328392392,0.0033728829457805917
6773.388865400471,0.002430267838468478,0.0033507766141479866
6773.389865172394,0.002404446262505734,0.0033273252973251392
6773.3908649443165,0.002381696629854404,0.0033027593074166483
6773.391864716239,0.002362403892809905,0.003277305209354729
6773.392864488163,0.002346904270809804,0.003251183219513038
6773.393864260085,0.0023354777386732023,0.0032246054613894247
6773.394864032008,0.0023283418543808675,0.003197775092548602
6773.39586380393,0.0023256470793647233,0.003170886278760245
6773.396863575853,0.002327473719961617,0.0031441249422834885
6773.397863347776,0.0023338306065563675,0.0031176701717394537
6773.398863119699,0.002344655598465642,0.0030916961417174114
6773.3998628916215,0.002359817939292516,0.0030663743328417188
6773.400862663544,0.002379122400811514,0.0030418757822954405
6773.401862435467,0.0024023150668495475,0.003018373069215921
6773.40286220739,0.002429090535531414,0.002996041764535996
6773.403861979313,0.0024591002643697844,0.0029750611278808185
6773.404861751235,0.0024919617553294023,0.0029556138904913423
6773.405861523158,0.0025272682797939368,0.0029378850297431523
6773.4068612950805,0.002564598866927328,0.0029220595361638896
6773.407861067004,0.0026035283056966767,0.002908319291876449
6773.408860838927,0.0026436369277080206,0.0028968392880968437
6773.409860610849,0.002684519943497542,0.002887783474601408
6773.410860382772,0.0027257961068569924,0.002881300543398844
6773.411860154694,0.0027671154871108062,0.002877519916938107
6773.412859926617,0.0028081661384565817,0.002876548159259532
6773.41385969854,0.0028486794703343208,0.002878465964116401
6773.414859470463,0.002888434152775714,0.0028833257991192156
6773.4158592423855,0.002927258443365007,0.0028911502113366534
6773.416859014308,0.0029650308902038768,0.002901930745765767
6773.417858786231,0.00300167942872778,0.0029156274039892722
6773.418858558154,0.0030371789362537596,0.002932168575562393
6773.419858330077,0.00307154734158658,0.0029514514035022302
6773.420858101999,0.003104840422586205,0.0029733425847299692
6773.421857873922,0.003137145467051427,0.002997679633033959
6773.4228576458445,0.0031685740101532896,0.003024272628242846
6773.423857417767,0.003199253884657789,0.003052906447315643
6773.424857189691,0.0032293208309250414,0.003083343442113378
6773.425856961613,0.003258909916373868,0.0031153265040041998
6773.426856733536,0.003288147008696935,0.003148582427289844
6773.427856505458,0.003317140541113639,0.003182825445888866
6773.428856277381,0.0033459738154430637,0.0032177607919320703
6773.429856049304,0.0033746981097813275,0.0032530881410650398
6773.430855821227,0.0034033268700380897,0.003288504865607327
6773.4318555931495,0.0034318312414816183,0.0033237090768000687
6773.432855365072,0.0034601371276608618,0.0033584024683093543
6773.433855136995,0.003488123863346026,0.003392292973331469
6773.434854908918,0.0035156244801049234,0.003425097241447582
6773.435854680841,0.0035424274463605296,0.0034565429531462086
6773.436854452763,0.003568279691693867,0.00348637101577722
6773.437854224686,0.0035928906974165634,0.0035143376957035622
6773.4388539966085,0.003615937468919969,0.003540216724402451
6773.439853768532,0.003637070288203596,0.003563801393668177
6773.440853540455,0.003655919234661176,0.003584906650499086
6773.441853312377,0.003672101513907825,0.0036033712054524014
6773.4428530843,0.003685229624394026,0.003619059648219212
6773.443852856222,0.003694920323694454,0.003631864507092225
6773.444852628145,0.0037008042639225165,0.003641708115342294
6773.445852400068,0.0037025360913172586,0.0036485440915661354
6773.446852171991,0.0036998047613692074,0.0036523582201785447
6773.4478519439135,0.003692343787172156,0.003653168535666915
6773.448851715836,0.0036799411042247408,0.0036510244808637847
6773.449851487759,0.003662448218164499,0.0036460051301731087
6773.450851259682,0.00363978831735321,0.003638216611290004
6773.451851031605,0.0036119630659976008,0.0036277889682117446
6773.452850803527,0.0035790578225194224,0.0036148727505233413
6773.45385057545,0.0035412450434946074,0.003599635593436679
6773.4548503473725,0.0034987856439980653,0.003582258995454462
6773.455850119296,0.003452028110416281,0.003562935432519271
6773.456849891219,0.0034014052238343774,0.0035418658862729786
6773.457849663141,0.0033474283592890937,0.003519257817413408
6773.458849435064,0.003290679461725352,0.003495323587003786
6773.459849206986,0.0032318009317989552,0.0034702793159019137
6773.46084897891,0.0031714837616353183,0.003444344159760129
6773.461848750832,0.0031104543381414254,0.0034177399472151287
6773.462848522755,0.003049460380436891,0.0033906910820478355
6773.4638482946775,0.0029892564964929345,0.003363424567029638
6773.4648480666,0.0029305898304667157,0.0033361699908794917
6773.465847838523,0.0028741862248147774,0.0033091593329548467
6773.466847610446,0.0028207372410789964,0.0032826264656184104
6773.467847382369,0.0027708882857897517,0.0032568062569093936
6773.468847154291,0.002725228000591848,0.0032319332013528734
6773.469846926214,0.002684279015288674,0.0032082395503280014
6773.4708466981365,0.002648490124746958,0.0031859529724526255
6773.47184647006,0.0026182299192372585,0.003165293817647606
6773.472846241983,0.002593781858873325,0.0031464720616884213
6773.473846013905,0.0025753407441537943,0.003129683984963927
6773.474845785828,0.002563010527392411,0.003115108620444614
6773.47584555775,0.0025568034489850972,0.0031029040041696317
6773.476845329673,0.002556640537792475,0.003093203272646697
6773.477845101596,0.00256235354253638,0.003086110672307418
6773.478844873519,0.0025736883466920065,0.0030816975752726876
6773.4798446454415,0.0025903098783347576,0.00307999862489876
6773.480844417364,0.0026118084788361185,0.003081008153159394
6773.481844189287,0.002637707647468218,0.0030846770202105785
6773.48284396121,0.0026674730279239965,0.0030909100366927024
6773.483843733133,0.0027005224437908204,0.0030995641467379998
6773.484843505055,0.0027362367316186645,0.0031104475588098496
6773.485843276978,0.0027739710814229514,0.0031233199934786915
6773.4868430489005,0.0028130665914356786,0.0031378941733510735
6773.487842820824,0.0028528617734597415,0.0031538386246078953
6773.488842592747,0.002892703783495926,0.0031707818014234308
6773.489842364669,0.002931959177136664,0.0031883174923365613
6773.490842136592,0.0029700240016856034,0.0032060114334362786
6773.491841908514,0.0030063330565535443,0.0032234090378698665
6773.492841680438,0.0030403681935223525,0.003240044130266128
6773.49384145236,0.0030716655785593457,0.0032554485189212135
6773.494841224283,0.0030998218689876774,0.00326916215518081
6773.4958409962055,0.0031244992576261944,0.003280743560113637
6773.496840768128,0.003145429317993004,0.003289780167923868
6773.497840540051,0.003162415588482728,0.0032958982259959644
6773.498840311974,0.003175334869767536,0.003298771880380359
6773.499840083897,0.0031841372513504405,0.0032981310801597757
6773.500839855819,0.00318884490066478,0.0032937679997613106
6773.501839627742,0.003189549648768695,0.0032855418141836228
6773.5028393996645,0.0031864094220624382,0.0032733818079169214
6773.503839171588,0.003179643606892562,0.003257288878675164
6773.504838943511,0.0031695274685751822,0.00323733549987338
6773.505838715433,0.003156385762786341,0.003213664186998226
6773.506838487356,0.0031405856862425792,0.0031864845310092425
6773.507838259278,0.0031225293246978313,0.0031560689196922804
6773.508838031201,0.0031026457610336244,0.00312274712152597
6773.509837803124,0.0030813829935249287,0.0030868999224062245
6773.510837575047,0.00305919978898433,0.0030489519923946142
6773.5118373469695,0.0030365575759014,0.0030093641466611577
6773.512837118892,0.0030139124825674176,0.0029686251689692504
6773.513836890815,0.0029917076425685788,0.002927243384136021
6773.514836662738,0.0029703659145183317,0.002885738182005808
6773.515836434661,0.0029502831821270345,0.0028446316951306816
6773.516836206583,0.002931822400152171,0.00280444081519886
6773.517835978506,0.002915308523201996,0.0027656697087009817
6773.5188357504285,0.0029010244045926544,0.0027288029660856054
6773.519835522352,0.0028892076941028225,0.0026942994926138974
6773.520835294275,0.0028800487065708084,0.0026625872254265807
6773.521835066197,0.00287368919024893,0.002634058734787987
6773.52283483812,0.002870221904811424,0.002609067724656735
6773.523834610042,0.002869690920806388,0.002587926386039824
6773.524834381966,0.0028720925634798233,0.002570903495573817
6773.525834153888,0.0028773769345709866,0.0025582231155978213
6773.526833925811,0.002885449954407676,0.0025500637481167656
6773.5278336977335,0.0028961758812461862,0.002546557815570014
6773.528833469656,0.002909380287392693,0.0025477913748272103
6773.529833241579,0.002924853485715404,0.0025538040079628606
6773.530833013502,0.0029423543895221176,0.002564588865933379
6773.531832785425,0.0029616147602306835,0.0025800928640412756
6773.532832557347,0.0029823437698158085,0.0026002170457252467
6773.53383232927,0.003004232788062854,0.002624817151751129
6773.5348321011925,0.003026960296471114,0.0026537044471855176
6773.535831873116,0.0030501968282023897,0.0026866468533847045
6773.536831645039,0.003073609835743525,0.002723370415820277
6773.537831416961,0.003096868394885397,0.0027635611405135464
6773.538831188884,0.0031196476665689976,0.002806867263005003
6773.539830960806,0.0031416330558059415,0.0028529020504738586
6773.54083073273,0.0031625240195356868,0.0029012472488477536
6773.541830504652,0.003182037475080032,0.0029514572626371935
6773.542830276575,0.0031999107583025937,0.0030030641039243897
6773.5438300484975,0.0032159040948751285,0.003055583079802751
6773.54482982042,0.0032298025811622324,0.00310851911469367
6773.545829592344,0.003241417703806671,0.003161373531022068
6773.546829364266,0.0032505884372917245,0.003213651042071554
6773.547829136189,0.003257181943902035,0.0032648666598121684
6773.548828908111,0.0032610938861588426,0.003314552212914263
6773.549828680034,0.0032622483786857127,0.003362262212471919
6773.5508284519565,0.0032605976510351547,0.003407578874762911
6773.55182822388,0.0032561215261702283,0.003450116189526756
6773.5528279958025,0.0032488268077246153,0.0034895230015992377
6773.553827767725,0.003238746614839328,0.003525485151304405
6773.554827539648,0.0032259396344270354,0.0035577267849991397
6773.55582731157,0.0032104892068680344,0.0035860109858836453
6773.556827083494,0.00319250213961398,0.003610139879665883
6773.557826855416,0.0031721071557654743,0.003629954352340558
6773.558826627339,0.003149452918487478,0.0036453334992017595
6773.5598263992615,0.0031247056089724118,0.003656193914713975
6773.560826171184,0.0030980460679067507,0.0036624889300839367
6773.561825943107,0.0030696665434055397,0.0036642079085203692
6773.56282571503,0.0030397671287244383,0.0036613757111165273
6773.563825486953,0.003008552018744512,0.0036540524267822515
6773.564825258875,0.0029762257512724343,0.0036423333993439145
6773.565825030798,0.0029429896103906313,0.003626349495648131
6773.5668248027205,0.002909038356987119,0.0036062674695905477
6773.567824574644,0.0028745574425478866,0.00358229020368265
6773.568824346567,0.002839720870888459,0.0035546565551593575
6773.569824118489,0.0028046898756445464,0.003523640517845589
6773.570823890412,0.0027696125459167036,0.0034895494647650687
6773.571823662334,0.002734624456287962,0.0034527213520622792
6773.572823434258,0.0026998502688177907,0.0034135208884528124
6773.57382320618,0.0026654061995319894,0.0033723347674221842
6773.574822978103,0.0026314031816898477,0.0033295661318849617
6773.5758227500255,0.0025979505020881774,0.003285628508815205
6773.576822521948,0.002565159640389697,0.0032409394980372234
6773.577822293872,0.002533148024811671,0.003195914501649093
6773.578822065794,0.002502042433450671,0.00315096074166076
6773.579821837717,0.0024719817988959228,0.003106471753320532
6773.580821609639,0.002443119203399458,0.0030628224759690226
6773.581821381562,0.0024156228965867893,0.00302036500416552
6773.5828211534845,0.002389676240267357,0.002979425021891842
6773.583820925408,0.0023654765699973844,0.002940298927379178
6773.5848206973305,0.0023432330288804615,0.00290325165805858
6773.585820469253,0.002323163463391367,0.0028685152312730605
6773.586820241176,0.0023054904926942,0.002836288017549724
6773.587820013098,0.0022904368934653675,0.0028067347510290354
6773.588819785022,0.00227822048053413,0.002779987247570655
6773.589819556944,0.0022690486937475686,0.002756145751421934
6773.590819328867,0.0022631131080710844,0.0027352807926067733
6773.5918191007895,0.0022605840613136355,0.002717435434482921
6773.592818872712,0.002261605555692988,0.002702627822753384
6773.593818644636,0.0022662905631727526,0.002690853983462364
6773.594818416558,0.002274716861798515,0.0026820908252313284
6773.595818188481,0.002286923533366558,0.0026762992726956218
6773.596817960403,0.002302908238979913,0.0026734274104765355
6773.597817732326,0.0023226253560722256,0.002673413472790793
6773.598817504249,0.0023459850221358896,0.0026761884990552016
6773.599817276172,0.002372853098494229,0.0026816785166175004
6773.600817048095,0.0024030520439179085,0.0026898062026048217
6773.601816820017,0.0024363626708603144,0.0027004920652865345
6773.60281659194,0.00247252674723456,0.002713655217242792
6773.603816363862,0.002511250405169016,0.0027292137839724003
6773.604816135786,0.0025522083236766396,0.0027470849397549088
6773.605815907708,0.0025950486582876665,0.0027671845270673357
6773.606815679631,0.002639398684516729,0.0027894262158214738
6773.6078154515535,0.0026848710930432685,0.0028137201873053067
6773.608815223476,0.0027310708271892845,0.002839971362235936
6773.6098149954,0.002777602301053948,0.0028680772202076504
6773.610814767322,0.002824076784879301,0.002897925288721633
6773.611814539245,0.002870119694451605,0.0029293904265787884
6773.612814311167,0.0029153774861399467,0.0029623320813044925
6773.61381408309,0.0029595238519752177,0.0029965917398653372
6773.6148138550125,0.0030022649295093,0.0030319908003856484
6773.615813626936,0.0030433432873063562,0.003068329071499133
6773.6168133988585,0.00308254052403887,0.0031053840610363007
6773.617813170781,0.00311967842322421,0.0031429111499078318
6773.618812942704,0.0031546187188607267,0.003180644671906704
6773.619812714626,0.0031872616317119083,0.0032182998582583906
6773.62081248655,0.003217543418059162,0.0032555755698930786
6773.621812258472,0.0032454332214810976,0.0032921577189420695
6773.622812030395,0.0032709295282219424,0.0033277232583665073
6773.6238118023175,0.00329405650043465,0.003361944602422412
6773.62481157424,0.0033148604113389553,0.0033944943427104473
6773.625811346164,0.0033334063470708167,0.0034250501285225292
6773.626811118086,0.003349775273614274,0.0034532995676422695
6773.627810890009,0.003364061489602216,0.0034789449948398102
6773.628810661931,0.0033763704088188356,0.003501707977731936
6773.629810433854,0.0033868165573310294,0.003521333471968225
6773.630810205777,0.003395521626070539,0.0035375935710442595
6773.6318099777,0.0034026123794060645,0.0035502908121481
6773.632809749623,0.0034082182003984988,0.0035592610042080703
6773.633809521545,0.003412468094322169,0.003564375543810027
6773.634809293468,0.0034154870894238963,0.0035655431871490233
6773.63580906539,0.0034173921298594986,0.003562711257074919
6773.636808837314,0.0034182876914744783,0.0035558662794199446
6773.637808609236,0.0034182614354488776,0.0035450340561860388
6773.638808381159,0.003417380245555862,0.0035302791913568187
6773.6398081530815,0.003415686973783201,0.003511704080725621
6773.640807925004,0.003413198150291337,0.0034894473582981794
6773.641807696928,0.003409902811258187,0.0034636817814037908
6773.64280746885,0.0034057624820750237,0.003434611565185961
6773.643807240773,0.0034007122453167736,0.003402469240713537
6773.644807012695,0.0033946627471216325,0.0033675121723899756
6773.645806784618,0.0033875029709587033,0.00333001890215013
6773.6468065565405,0.0033791036324943863,0.003290285487998477
6773.647806328464,0.003369321096431304,0.0032486219751356868
6773.6488061003865,0.0033580017499258707,0.0032053490792641973
6773.649805872309,0.003344986770131194,0.0031607950874283563
6773.650805644232,0.0033301172086187235,0.0031152929194578557
6773.651805416154,0.003313239302730385,0.0030691772631263655
6773.652805188078,0.003294209910424339,0.003022781704413336
6773.65380496,0.0032729019382616562,0.002976435817470307
6773.654804731923,0.0032492096036841186,0.002930462238742207
6773.6558045038455,0.0032230533743974957,0.0028851737945426456
6773.656804275768,0.0031943844698612916,0.00284087076394062
6773.657804047692,0.0031631888626442906,0.0027978383535266446
6773.658803819614,0.0031294907420988385,0.0027563444608490065
6773.659803591537,0.0030933553912298453,0.0027166378097799176
6773.660803363459,0.003054891399181331,0.002678946533410957
6773.661803135382,0.0030142521085394884,0.002643477245543846
6773.662802907305,0.002971636196216575,0.0026104145950540517
6773.663802679228,0.0029272873163834175,0.0025799212681754447
6773.664802451151,0.002881492773488507,0.002552138404306064
6773.665802223073,0.002834581207089164,0.0025271864006401598
6773.666801994996,0.0027869192529552814,0.0025051660689378676
6773.667801766918,0.0027389071342110226,0.002486160065257338
6773.668801538842,0.002690973169363851,0.002470234461035408
6773.669801310764,0.0026435672629118896,0.0024574402938373516
6773.670801082687,0.002597153541970635,0.0024478149493945777
6773.6718008546095,0.0025522023849198464,0.0024413832808778775
6773.672800626532,0.0025091821307281856,0.0024381584433068133
6773.673800398456,0.0024685507529112745,0.0024381424766026466
6773.674800170378,0.002430747739762396,0.0024413266847163845
6773.675799942301,0.0023961863659773376,0.0024476918321415103
6773.676799714223,0.0023652464946658457,0.0024572081374299327
6773.677799486146,0.0023382680208786782,0.0024698350126435304
6773.678799258069,0.002315545049706658,0.0024855204928172802
6773.679799029992,0.002297320886127361,0.0025042003202677835
6773.6807988019145,0.0022837838987553425,0.0025257966843889638
6773.681798573837,0.0022750643038447122,0.0025502166575050015
6773.68279834576,0.0022712319006660702,0.0025773504025304733
6773.683798117683,0.002272294783248488,0.0026070692485699455
6773.684797889606,0.0022781990584315095,0.0026392237311180446
6773.685797661528,0.002288829603103321,0.002673641684206844
6773.686797433451,0.0023040118844655615,0.002710126472968162
6773.6877972053735,0.002323514852444688,0.002748455475747202
6773.688796977296,0.0023470548988587573,0.0027883789505615745
6773.68979674922,0.0023743008546970616,0.002829619430028415
6773.690796521142,0.002404879953531406,0.0028718717755744235
6773.691796293065,0.0024383846319251663,0.0029148039913057086
6773.692796064987,0.0024743799921651067,0.0029580588554409698
6773.69379583691,0.0025124117407608654,0.0030012563776178228
6773.694795608833,0.0025520144326947026,0.0030439970424488826
6773.695795380756,0.002592719868068437,0.0030858657636882924
6773.696795152679,0.002634065480726107,0.003126436457071187
6773.697794924601,0.002675602529049435,0.0031652771462526742
6773.698794696524,0.0027169038712428297,0.0032019555365277105
6773.699794468446,0.0027575711037062176,0.003236045002961828
6773.70079424037,0.0027972408617145967,0.0032671309275541204
6773.701794012292,0.0028355901134420815,0.003294817291963414
6773.702793784215,0.0028723403205635086,0.0033187334042946797
6773.7037935561375,0.0029072603968199632,0.0033385406126228106
6773.70479332806,0.002940168453157371,0.003353938826902862
6773.705793099984,0.002970932345266374,0.003364672641957771
6773.706792871906,0.0029994690378328357,0.0033705368559882945
6773.707792643829,0.003025742803730716,0.0033713812246782848
6773.708792415751,0.0030497623100245825,0.003367114345700861
6773.709792187674,0.003071576695457375,0.003357706588393978
6773.710791959597,0.003091270788745135,0.0033431919766313003
6773.71179173152,0.0031089596377512625,0.0033236689436996073
6773.7127915034425,0.0031247825176485442,0.003299299921760568
6773.713791275365,0.0031388965661229376,0.0032703097786605734
6773.714791047288,0.0031514701634212604,0.003236983145570072
6773.715790819211,0.0031626761583246022,0.003199660692722068
6773.716790591134,0.003172685061097776,0.0031587344245322386
6773.717790363056,0.0031816583690285065,0.0031146420857956526
6773.718790134979,0.003189742223743505,0.003067860789001097
6773.7197899069015,0.0031970616096670835,0.003018899982194262
6773.720789678824,0.0032037153047796453,0.002968293879052392
6773.721789450748,0.003209771795294891,0.0029165934737654005
6773.72278922267,0.0032152663548773983,0.0028643582713814312
6773.723788994593,0.003220199457247271,0.002812147883084897
6773.724788766515,0.003224536636658836,0.0027605136543600297
6773.725788538438,0.0032282098378031442,0.0027099904975666743
6773.726788310361,0.0032311202150738477,0.00266108908845371
6773.727788082284,0.0032331422602695377,0.0026142885671330295
6773.728787854207,0.0032341290619988766,0.002570029862676663
6773.729787626129,0.0032339184344898097,0.002528709735545054
6773.730787398052,0.003232339607310261,0.0024906756011848197
6773.731787169974,0.003229220150370919,0.0024562211654576087
6773.732786941898,0.0032243928291151966,0.002425582883848469
6773.73378671382,0.003217702144419401,0.002398937267697072
6773.734786485743,0.003209010394391407,0.0023763990952501263
6773.7357862576655,0.0031982031719365593,0.0023580206113620814
6773.736786029589,0.003185194260666882,0.0023437917900462073
6773.737785801512,0.003169929909572461,0.002333641692243773
6773.738785573434,0.003152392462496892,0.002327440903371138
6773.739785345357,0.003132603301241499,0.002325005003867214
6773.740785117279,0.003110625041669499,0.00232609901370052
6773.741784889202,0.0030865629126413364,0.0023304427464763055
6773.742784661125,0.0030605652534137595,0.0023377169983709203
6773.743784433048,0.0030328230824124155,0.0023475704787164
6773.7447842049705,0.0030035687155273516,0.0023596273706408474
6773.745783976893,0.002973073446514214,0.002373495403686653
6773.746783748816,0.002941644340162167,0.0023887743245739096
6773.747783520739,0.0029096202146343215,0.0024050646470851972
6773.748783292662,0.002877366897805429,0.002421976528482212
6773.749783064584,0.0028452718503952324,0.002439138561794248
6773.750782836507,0.0028137382686556633,0.002456206216078216
6773.7517826084295,0.002783178797165555,0.002472869626992453
6773.752782380352,0.002754008976846197,0.0024888604455876712
6773.753782152276,0.002726640526869841,0.0025039574852191667
6773.754781924198,0.0027014745341957056,0.0025179909586703886
6773.755781696121,0.002678894615869523,0.0025308451669521846
6773.756781468043,0.0026592601232005406,0.002542459572776659
6773.757781239966,0.0026428994708763134,0.002552828248426315
6773.758781011889,0.0026301037071412296,0.0025619977331130324
6773.759780783812,0.002621120490237142,0.0025700633827604497
6773.760780555735,0.002616148671913049,0.0025771643461625663
6773.761780327657,0.00261533368313886,0.002583477346565676
6773.76278009958,0.002618763873027492,0.0025892094823668495
6773.763779871503,0.002626467895805116,0.00259459028537737
6773.764779643426,0.002638413193828224,0.002599863293511966
6773.765779415348,0.002654505586586769,0.0026052774139551727
6773.766779187271,0.0026745899394687222,0.002611078372230513
6773.7677789591935,0.0026984518610241068,0.0026175005451922343
6773.768778731117,0.00272582037694436,0.0026247594483160457
6773.76977850304,0.0027563715460656012,0.0026330451004609153
6773.770778274962,0.002789732998382435,0.002642516441129776
6773.771778046885,0.002825489373595307,0.002653296927273482
6773.772777818807,0.0028631886140938123,0.0026654713773984528
6773.77377759073,0.002902349017540781,0.0026790840570914427
6773.774777362653,0.002942466895936714,0.002694137926474198
6773.775777134576,0.002983024644624635,0.0027105949218820756
6773.7767769064985,0.003023499009652309,0.0027283771380217444
6773.777776678421,0.0030633693536290274,0.0027473688037423236
6773.778776450344,0.0031021257521868,0.0027674189778977313
6773.779776222267,0.0031392767949587545,0.00278834491159407
6773.78077599419,0.0031743570004161433,0.0028099360231613572
6773.781775766112,0.00320693376963751,0.002831958416504659
6773.782775538035,0.0032366138009923056,0.0028541598551318774
6773.7837753099575,0.00326304887931853,0.0028762750939862435
6773.78477508188,0.0032859409494203776,0.0028980314633426066
6773.785774853804,0.003305046383277277,0.0029191545798646175
6773.786774625726,0.0033201793509848383,0.0029393740338333144
6773.787774397649,0.0033312142084491016,0.0029584288940159315
6773.788774169571,0.003338086821856021,0.0029760728963924687
6773.789773941494,0.003340794767510982,0.0029920792158714547
6773.790773713417,0.0033393963883512133,0.003006244725723669
6773.79177348534,0.003334008754753509,0.003018393631173408
6773.792773257263,0.003324804643610392,0.003028380362958197
6773.793773029185,0.0033120086865531737,0.003036091657627532
6773.794772801108,0.0032958928380372008,0.0030414478115603333
6773.795772573031,0.003276771292623276,0.0030444031403947954
6773.796772344954,0.003254994952228693,0.0030449456928906787
6773.797772116876,0.003230945511633109,0.00304309626675354
6773.798771888799,0.0032050292012053695,0.00303890676877395
6773.7997716607215,0.003177670212820228,0.003032457965352004
6773.800771432645,0.00314930384087379,0.0030238566860866685
6773.801771204568,0.0031203693817562334,0.003013232566954188
6773.80277097649,0.0030913028450987924,0.003000734439688517
6773.803770748413,0.0030625295556189654,0.0029865264863568196
6773.804770520335,0.003034456778741044,0.0029707842890406267
6773.805770292258,0.003007466564177289,0.0029536909107634847
6773.806770064181,0.0029819090379607904,0.002935433130471066
6773.807769836104,0.0029580963833889706,0.002916197922781556
6773.8087696080265,0.0029362977474354066,0.002896169241707015
6773.809769379949,0.002916735286573901,0.0028755251486996887
6773.810769151872,0.002899581510964306,0.0028544353152521514
6773.811768923795,0.0028849580010223475,0.0028330589213774156
6773.812768695718,0.0028729354753604048,0.002811542965030284
6773.81376846764,0.0028635351026006775,0.002790021000535689
6773.814768239563,0.002856730879617174,0.0027686123323043964
6773.8157680114855,0.0028524528542033917,0.0027474216925523487
6773.816767783409,0.0028505909661486815,0.002726539428583378
6773.817767555332,0.002850999319591279,0.00270604221901402
6773.818767327254,0.002853500760937873,0.0026859943181995792
6773.819767099177,0.0028578916943900524,0.0026664492878199137
6773.820766871099,0.0028639470993109943,0.002647452131040136
6773.821766643023,0.0028714257029797377,0.002629041719554011
6773.822766414945,0.0028800752119286584,0.002611253401276459
6773.823766186868,0.0028896374491901612,0.002594121687191136
6773.824765958791,0.00289985322426565,0.0025776829301595834
6773.825765730713,0.0029104667932367237,0.002561977921435998
6773.826765502636,0.0029212298336493024,0.0025470543405317395
6773.827765274559,0.002931904931682325,0.0025329689971249
6773.828765046482,0.0029422686246671627,0.002519789792419533
6773.829764818404,0.0029521140394232455,0.0025075972993500737
6773.830764590327,0.0029612531232379147,0.002496485829174755
6773.8317643622495,0.002969518418081492,0.0024865638378110647
6773.832764134173,0.0029767643250526456,0.002477953539196774
6773.833763906096,0.0029828678596934815,0.002470789629468779
6773.834763678018,0.0029877289816651422,0.0024652170760595528
6773.835763449941,0.002991270648243372,0.0024613879857930307
6773.836763221863,0.002993438759807762,0.002459457634024329
6773.837762993786,0.0029942021394686507,0.0024595798059543358
6773.838762765709,0.0029935526425423093,0.002461901654429371
6773.839762537632,0.0029915054385352092,0.0024665583006461115
6773.8407623095545,0.0029880994395284355,0.002473667398550177
6773.841762081477,0.0029833977611963816,0.0024833238655662137
6773.8427618534,0.002977488021322481,0.0024955949588598278
6773.843761625323,0.002970482237745346,0.0025105158446006265
6773.844761397246,0.002962516091826531,0.0025280857704268168
6773.845761169168,0.0029537473618040096,0.0025482649251240127
6773.846760941091,0.002944353390655226,0.0025709720708969605
6773.8477607130135,0.002934527531921589,0.002596083058239757
6773.848760484937,0.002924474609228832,0.002623430354590268
6773.84976025686,0.0029144055216460355,0.0026528037078569233
6773.850760028782,0.0029045312224835313,0.0026839520175259033
6773.851759800705,0.0028950563860188103,0.0027165864138227404
6773.852759572627,0.002886173129814552,0.0027503844699784505
6773.853759344551,0.0028780551529399593,0.0027849954120336773
6773.854759116473,0.002870852588001278,0.0028200461576290605
6773.855758888396,0.00286468778211264,0.002855148010961586
6773.856758660319,0.0028596521454602084,0.0028899038563019635
6773.857758432241,0.002855804140134078,0.002923915717093201
6773.858758204164,0.0028531684293668143,0.0029567925682800495
6773.859757976087,0.0028517361807680708,0.0029881582882733283
6773.86075774801,0.002851466516525316,0.0030176596082180816
6773.861757519932,0.002852289100112992,0.003044973874105323
6773.862757291855,0.002854107810337506,0.003069816400847218
6773.8637570637775,0.0028568053799413458,0.0030919471781654913
6773.864756835701,0.002860248800892514,0.003111176687355548
6773.865756607624,0.002864295252768438,0.0031273705999559356
6773.866756379546,0.0028687982954019205,0.003140453152324057
6773.867756151469,0.0028736140655997206,0.0031504090318624917
6773.868755923391,0.0028786072236167766,0.003157283674400776
6773.869755695314,0.0028836564135768096,0.0031611819453430724
6773.870755467237,0.002888659036499368,0.0031622652458321117
6773.87175523916,0.002893535184307181,0.0031607471524988007
6773.8727550110825,0.0028982306438971933,0.0031568877717931473
6773.873754783005,0.002902718937541174,0.0031509870481865802
6773.874754554928,0.0029070024002569583,0.0031433772737979285
6773.875754326851,0.002911112299266501,0.003134415000715388
6773.876754098774,0.0029151079846518025,0.00312447250077163
6773.877753870696,0.0029190750441858712,0.00311392890035133
6773.878753642619,0.0029231224443978664,0.0031031611504713148
6773.8797534145415,0.0029273786884055266,0.003092535048164146
6773.880753186465,0.0029319870968319843,0.0030823965662982863
6773.881752958388,0.0029371003916766137,0.003073063751925895
6773.88275273031,0.002942874808526817,0.003064819425194983
6773.883752502233,0.0029494639717776465,0.003057904878257681
6773.884752274155,0.002957012750762626,0.003052514749193418
6773.885752046079,0.0029656512871950817,0.0030487932151357392
6773.886751818001,0.0029754893570627773,0.003046831591222298
6773.887751589924,0.002986611214136063,0.0030466673395720323
6773.888751361847,0.0029990710625849926,0.0030482844128439787
6773.889751133769,0.0030128893093231937,0.003051614808514933
6773.890750905692,0.003028049733422943,0.0030565411974490526
6773.891750677615,0.003044497677914486,0.0030629005021261184
6773.892750449538,0.003062139331184364,0.003070488329049314
6773.89375022146,0.0030808421308085076,0.0030790641959254853
6773.894749993383,0.003100436288715355,0.0030883575097911866
6773.8957497653055,0.0031207173967615983,0.003098074225953652
6773.896749537229,0.003141450034528632,0.003107904059049251
6773.897749309152,0.0031623722842483723,0.0031175280540461014
6773.898749081074,0.0031832010628047025,0.003126626283399644
6773.899748852997,0.003203638184595662,0.0031348854376972986
6773.900748624919,0.0032233770452807175,0.0031420061192675816
6773.901748396843,0.003242109759059726,0.003147709700945812
6773.902748168765,0.0032595345064581104,0.00315174464651895
6773.903747940688,0.003275362779119338,0.0031538922014829884
6773.9047477126105,0.003289326164561311,0.003153971363278776
6773.905747484533,0.0033011823114805407,0.0031518430387392255
6773.906747256457,0.003310719762194163,0.003147413299811337
6773.907747028379,0.0033177614360135953,0.003140635662827985
6773.908746800302,0.003322166682269047,0.00313151234346335
6773.909746572224,0.003323831956840677,0.003120094470259192
6773.910746344147,0.003322690278826491,0.0031064812609911886
6773.9117461160695,0.0033187096947056103,0.0030908181744251032
6773.912745887993,0.0033118910264087827,0.003073294052280236
6773.913745659916,0.0033022651966528494,0.0030541372704631733
6773.914745431838,0.0032898903942115048,0.0030336109302063386
6773.915745203761,0.0032748492725701087,0.0030120071461679195
6773.916744975683,0.003257246298507166,0.002989640539711366
6773.917744747607,0.0032372053095822057,0.0029668411211968677
6773.918744519529,0.003214867306647041,0.002943946821067593
6773.919744291452,0.003190388488821591,0.0029212959663932514
6773.920744063375,0.0031639385260283535,0.00289921997687768
6773.921743835297,0.0031356990565056665,0.0028780364951625915
6773.92274360722,0.003105862386619847,0.0028580431160316186
6773.923743379143,0.00307463034599032,0.0028395118609953964
6773.924743151066,0.003042213212294148,0.0028226845449719376
6773.925742922988,0.0030088285881168836,0.002807769174838679
6773.926742694911,0.0029747001167932403,0.002794937495273799
6773.9277424668335,0.0029400559731110583,0.002784323760950319
6773.928742238757,0.0029051271285133223,0.002776024770190558
6773.92974201068,0.002870145433417151,0.0027701011393920704
6773.930741782602,0.002835341575644498,0.0027665797261265082
6773.931741554525,0.0028009429796606923,0.0027654570303726083
6773.932741326447,0.0027671717196289794,0.002766703338126096
6773.933741098371,0.0027342425321320984,0.002770267336257017
6773.934740870293,0.002702361023063537,0.002776080922119478
6773.935740642216,0.002671722158993162,0.0027840639447835186
6773.9367404141385,0.0026425091180641703,0.002794128636898944
6773.937740186061,0.002614892550774108,0.0028061835237921987
6773.938739957985,0.002589030260142168,0.002820136631851582
6773.939739729907,0.0025650672588507775,0.002835897866301293
6773.94073950183,0.0025431361271415387,0.002853380490449361
6773.941739273752,0.002523357602998151,0.002872501707304343
6773.942739045675,0.002505841367038096,0.0028931824049934483
6773.9437388175975,0.002490686989645762,0.002915346168183535
6773.944738589521,0.0024779849589273875,0.0029389176822029487
6773.945738361444,0.0024678176306023912,0.0029638206722640346
6773.946738133366,0.0024602598942024094,0.0029899755229766847
6773.947737905289,0.002455379374010771,0.0030172967118050073
6773.948737677211,0.0024532360656546143,0.003045690182876051
6773.949737449135,0.0024538814044194903,0.003075050800817142
6773.950737221057,0.0024573568349799415,0.003105260041429049
6773.95173699298,0.0024636919975231275,0.0031361840635012613
6773.952736764903,0.002472902664979005,0.003167672256925223
6773.953736536825,0.0024849885616886934,0.0031995563084385573
6773.954736308749,0.0024999311712325966,0.0032316498098558014
6773.955736080671,0.0025176916103033377,0.0032637484677584135
6773.956735852594,0.0025382086148923472,0.0032956310271470743
6773.957735624516,0.0025613966653555624,0.003327061044475303
6773.958735396439,0.0025871442799279775,0.003357789611531147
6773.959735168362,0.0026153125297721223,0.003387559050288626
6773.960734940285,0.0026457338560278605,0.003416107495325315
6773.961734712208,0.0026782112869295966,0.0034431741780088817
6773.96273448413,0.0027125181551357815,0.003468505142161293
6773.963734256053,0.002748398402848686,0.003491859066060134
6773.964734027975,0.002785567546882195,0.0035130128494840476
6773.965733799899,0.0028237143689085133,0.0035317666489447738
6773.966733571821,0.0028625033920290405,0.003547948098970097
6773.967733343744,0.0029015781893591257,0.003561415528296772
6773.9687331156665,0.0029405655377038823,0.003572060059217611
6773.969732887589,0.0029790803850525257,0.0035798065588982667
6773.970732659513,0.0030167315546549135,0.003584613482246847
6773.971732431435,0.0030531280652178797,0.003586471702521876
6773.972732203358,0.0030878859025220474,0.003585402475390139
6773.97373197528,0.0031206350355592735,0.0035814547294732058
6773.974731747203,0.003151026447081903,0.003574701912609308
6773.9757315191255,0.0031787389541726527,0.003565238630709623
6773.976731291049,0.00320348561135822,0.003553177283183013
6773.977731062972,0.0032250194876475356,0.0035386448330971
6773.978730834894,0.003243138586306362,0.0035217797807019805
6773.979730606817,0.0032576896651160684,0.003502729361711135
6773.980730378739,0.0032685707558868828,0.00348164696833714
6773.981730150663,0.0032757322848653353,0.003458689784551545
6773.982729922585,0.0032791768241397434,0.0034340166405456
6773.983729694508,0.003278957604267686,0.003407786125501884
6773.984729466431,0.0032751759656875564,0.003380155038825937
6773.985729238353,0.0032679779350613058,0.003351277288408884
6773.986729010277,0.0032575501046750365,0.003321303343136696
6773.987728782199,0.0032441149799940132,0.003290380305646444
6773.988728554122,0.0032279259481292873,0.0032586525921781554
6773.989728326044,0.003209262011117705,0.0032262631008933085
6773.990728097967,0.003188422419917877,0.003193354637967422
6773.99172786989,0.003165721331885729,0.00316007128654179
6773.992727641813,0.0031414825908392743,0.003126559390297179
6773.993727413736,0.003116034690849868,0.003092967902385601
6773.994727185658,0.0030897059337854516,0.003059447995364189
6773.995726957581,0.0030628197412807382,0.0030261519732907704
6773.996726729503,0.0030356900618749533,0.0029932316106184797
6773.997726501427,0.0030086168415696694,0.0029608360487367712
6773.998726273349,0.002981881589688152,0.0029291093485142796
6773.999726045272,0.0029557431415950727,0.002898187776757971
6774.0007258171945,0.0029304337689349917,0.0028681969179879083
6774.001725589117,0.0029061558002203927,0.0028392487431821408
6774.002725361041,0.00288307888678211,0.002811438815035781
6774.003725132963,0.002861337997373571,0.002784843840597183
6774.004724904886,0.0028410321741581404,0.0027595197789538574
6774.005724676808,0.0028222240489113974,0.0027355006766859456
6774.006724448731,0.00280494010489814,0.002712798352134706
6774.0077242206535,0.002789171673120409,0.00269140299011212
6774.008723992577,0.0027748766578344682,0.0026712846433470665
6774.0097237645,0.0027619819821909078,0.0026523955674450724
6774.010723536422,0.002750386734094153,0.002634673247723606
6774.011723308345,0.002739965985799811,0.002618043921663121
6774.012723080267,0.0027305752525176915,0.0026024263763113425
6774.013722852191,0.002722055526838384,0.0025877358119020775
6774.014722624113,0.0027142387745125243,0.0025738875996679364
6774.015722396036,0.0027069537228779817,0.00256080080416094
6774.016722167959,0.0027000317334293076,0.0025484013758969486
6774.017721939881,0.0026933125236409806,0.0025366249456102194
6774.018721711805,0.0026866494882899013,0.0025254191690829513
6774.019721483727,0.002679914383046807,0.0025147455889637455
6774.02072125565,0.0026730011881628594,0.002504581004432251
6774.021721027572,0.002665829052882389,0.0024949183671041974
6774.022720799495,0.0026583442988131717,0.0024857672428945606
6774.023720571418,0.002650521516355019,0.0024771538953510543
6774.024720343341,0.0026423638253676774,0.002469121058847165
6774.025720115264,0.0026339023915231173,0.0024617274659819075
6774.026719887186,0.002625195292390249,0.002455047156884812
6774.027719659109,0.002616325818726816,0.002449168541868153
6774.028719431031,0.0026074002868157645,0.0024441931474042237
6774.029719202955,0.0025985454335423225,0.0024402339710534416
6774.030718974877,0.002589905472620339,0.002437413401021165
6774.0317187468,0.002581638912945646,0.0024358607022713077
6774.0327185187225,0.0025739152751176513,0.0024357091119630303
6774.033718290645,0.0025669118692027084,0.0024370926095361556
6774.034718062569,0.0025608107849207805,0.002440142433903277
6774.035717834491,0.0025557961792795065,0.002444983423464418
6774.036717606414,0.0025520518450615733,0.0024517302635394663
6774.037717378336,0.0025497589486368445,0.0024604837442119653
6774.038717150259,0.0025490937742278933,0.0024713271540931195
6774.039716922182,0.0025502253142179417,0.0024843229454045226
6774.040716694105,0.002553312586895183,0.002499509789254516
6774.041716466028,0.0025585016235616796,0.002516900104101206
6774.04271623795,0.002565922131201962,0.0025364781073082547
6774.043716009873,0.0025756838961670347,0.002558198424552538
6774.044715781796,0.0025878730452317585,0.002581985293219822
6774.045715553719,0.0026025483226777666,0.00260773240671155
6774.046715325641,0.002619737574406118,0.0026353034643844964
6774.047715097564,0.0026394346450352183,0.0026645335114299042
6774.048714869487,0.002661596877735565,0.00269523115822266
6774.049714641409,0.0026861433534316405,0.002727181743915688
6774.050714413333,0.0027129539300489035,0.002760151451854034
6774.051714185255,0.0027418690675509306,0.0027938923013200484
6774.052713957178,0.002772690372656369,0.002828147841323777
6774.0537137291,0.0028051817845100076,0.0028626592736960854
6774.054713501023,0.002839071344690243,0.00289717165719422
6774.055713272946,0.0028740535230549397,0.002931439817479977
6774.056713044869,0.0029097920826915554,0.002965233627427046
6774.057712816792,0.002945923467805883,0.002998342417529432
6774.058712588714,0.002982060703522455,0.00303057839086144
6774.059712360637,0.0030177978141868547,0.0030617790230533103
6774.060712132559,0.0030527147959550005,0.0030918085180364823
6774.061711904483,0.003086383207679723,0.0031205584603325874
6774.062711676405,0.003118372446973929,0.0031479478458483296
6774.063711448328,0.0031482567387819023,0.0031739226770207273
6774.0647112202505,0.0031756227886177843,0.00319845526675979
6774.065710992173,0.0032000779619211703,0.0032215433125785953
6774.066710764097,0.0032212587638738564,0.0032432087053618055
6774.067710536019,0.0032388393301570916,0.0032634959703083982
6774.068710307942,0.003252539612767412,0.0032824702360970638
6774.069710079864,0.003262132952963605,0.0033002146923608276
6774.070709851787,0.003267452766141766,0.003316827583341676
6774.07170962371,0.0032683981173823374,0.003332418844449456
6774.072709395633,0.0032649380286223087,0.003347106496936284
6774.073709167556,0.0032571144038269317,0.0033610128943693035
6774.074708939478,0.003245043479307742,0.0033742608985656715
6774.075708711401,0.0032289157181330757,0.0033869700655186946
6774.076708483324,0.003208994082519313,0.003399252924960794
6774.077708255247,0.003185610637711361,0.003411211423611648
6774.078708027169,0.0031591614711712103,0.003422933587581642
6774.079707799092,0.0031300999597742582,0.003434490471381337
6774.080707571015,0.0030989284818582494,0.003445933498237217
6774.081707342937,0.003066188740299965,0.003457292327648564
6774.082707114861,0.0030324509322422932,0.003468573383949614
6774.083706886783,0.0029983020680540424,0.0034797591436459803
6774.084706658706,0.0029643337968984235,0.003490808227576197
6774.085706430628,0.0029311301251040266,0.0035016562948436887
6774.086706202551,0.002899255411927044,0.0035122177016267916
6774.087705974474,0.0028692430031899197,0.0035223878718205486
6774.088705746397,0.0028415848213034192,0.0035320463143944762
6774.08970551832,0.0028167221624456375,0.003541060198633304
6774.090705290242,0.0027950378570749607,0.003549288367300897
6774.091705062165,0.002776849854423147,0.0035565856511606707
6774.092704834087,0.0027624062322954552,0.0035628073593062005
6774.093704606011,0.002751881622467832,0.003567813841388653
6774.094704377933,0.0027453750551524247,0.0035714750153180513
6774.095704149856,0.002742909231530905,0.0035736747119589495
6774.0967039217785,0.002744431222939301,0.0035743146309562246
6774.097703693702,0.0027498145785556307,0.0035733176777765496
6774.098703465625,0.002758862801584741,0.0035706304955987365
6774.099703237547,0.0027713141193910513,0.0035662251036483643
6774.10070300947,0.0027868474319357717,0.0035600996586992863
6774.101702781392,0.0028050892963939152,0.0035522784350715754
6774.102702553315,0.0028256218051518314,0.003542811166095508
6774.103702325238,0.0028479912274855038,0.0035317719079066925
6774.104702097161,0.002871717292370517,0.0035192575739654832
6774.105701869084,0.0028963029836606338,0.0035053862566026394
6774.106701641006,0.0029212447036564477,0.0034902954168156168
6774.107701412929,0.0029460426377091774,0.003474139989927706
6774.108701184852,0.002970211112754666,0.0034570904186949506
6774.109700956775,0.00299328868623411,0.0034393305951867766
6774.110700728697,0.003014847652854183,0.0034210556889188825
6774.11170050062,0.003034502645840131,0.0034024698669220432
6774.112700272543,0.0030519180415923305,0.003383783946221524
6774.113700044465,0.0030668139340498278,0.0033652130269929592
6774.114699816389,0.003078970514539322,0.0033469741288041865
6774.115699588311,0.0030882307713835937,0.0033292838176327533
6774.116699360234,0.003094501505287136,0.0033123557921014256
6774.117699132156,0.003097752730030197,0.003296398390718088
6774.118698904079,0.003098015582854643,0.003281611974061991
6774.119698676002,0.0030953789051656865,0.003268186131640396
6774.120698447925,0.0030899846848448757,0.003256296678493347
6774.121698219848,0.003082022588308104,0.0032461024430892526
6774.12269799177,0.0030717238492503377,0.0032377418935558926
6774.123697763693,0.0030593548051569114,0.003231329694835438
6774.124697535616,0.0030452103645097536,0.0032269533310458455
6774.125697307539,0.0030296076401447724,0.0032246699586425936
6774.126697079461,0.0030128799130383,0.003224503667397007
6774.127696851384,0.0029953710281259097,0.0032264433113568447
6774.1286966233065,0.0029774302883160022,0.0032304410327768174
6774.12969639523,0.0029594078921487293,0.0032364115482884036
6774.130696167153,0.0029416509291322035,0.003244232210930976
6774.131695939075,0.002924499894230723,0.0032537438193161777
6774.132695710998,0.002908285621414685,0.003264752133554552
6774.13369548292,0.0028933264872815206,0.0032770300828261286
6774.134695254843,0.0028799257123943724,0.0032903206951834427
6774.135695026766,0.002868368590344483,0.003304340816696805
6774.136694798689,0.0028589195040411948,0.003318785692373385
6774.137694570612,0.002851818653034917,0.0033333344544183283
6774.138694342534,0.0028472785122584422,0.003347656516782306
6774.139694114457,0.002845480147764732,0.003361418815122852
6774.14069388638,0.002846569595938449,0.0033742937593223433
6774.141693658303,0.0028506545458221754,0.0033859676898744446
6774.142693430225,0.002857801545816705,0.0033961495575800063
6774.143693202148,0.002868033901038334,0.0034045794777025737
6774.144692974071,0.002881330357514982,0.003411036757755118
6774.145692745993,0.0028976245974134387,0.0034153469958048415
6774.146692517917,0.002916805500879208,0.003417387908697973
6774.147692289839,0.0029387180778266296,0.0034170936467810345
6774.148692061762,0.002963164961127634,0.0034144574418395863
6774.149691833684,0.002989908389911958,0.003409532507556179
6774.150691605607,0.003018672670526121,0.003402431180541495
6774.15169137753,0.0030491471434150015,0.003393322360107891
6774.152691149453,0.00308098969492725,0.003382427361958224
6774.153690921376,0.0031138308467541557,0.0033700143301041716
6774.154690693298,0.00314727843822175,0.0033563913628158804
6774.155690465221,0.0031809228844484365,0.0033418985314793564
6774.156690237144,0.0032143429561459495,0.0033268990153024016
6774.157690009067,0.0032471120023867084,0.0033117696118522954
6774.158689780989,0.0032788045267397484,0.0032968908830398767
6774.159689552912,0.003309003018288521,0.0032826371648469466
6774.1606893248345,0.003337304927871679,0.0032693666398955295
6774.161689096758,0.0033633296617489477,0.0032574116672133375
6774.162688868681,0.003386725428812371,0.0032470695846990925
6774.163688640603,0.0034071757290694933,0.003238594241299461
6774.164688412526,0.003424405242281951,0.0032321885625595
6774.165688184448,0.0034381848957840606,0.0032279984706610814
6774.166687956371,0.003448335955550545,0.0032261084373058514
6774.167687728294,0.0034547330606758994,0.003226538849856293
6774.168687500217,0.0034573061781483514,0.0032292452535525084
6774.16968727214,0.0034560414853857056,0.003234119427904598
6774.170687044062,0.003450981194307799,0.0032409921751497595
6774.171686815985,0.003442222311219632,0.0032496376422456374
6774.172686587908,0.0034299142975229373,0.003259778966152837
6774.173686359831,0.0034142555998157615,0.003271095030024616
6774.174686131753,0.003395489081187045,0.003283228144369457
6774.175685903676,0.0033738964798931915,0.0032957925030590337
6774.176685675599,0.0033497920890122185,0.003308383277192798
6774.177685447522,0.0033235158667016115,0.003320586183679554
6774.178685219445,0.0032954261821974947,0.0033319873150853994
6774.179684991367,0.0032658924158707452,0.0033421829723209113
6774.18068476329,0.0032352876550817925,0.003350789222066807
6774.181684535212,0.0032039817242699095,0.0033574509080153293
6774.182684307136,0.003172334745129252,0.003361849864116381
6774.183684079058,0.003140691363724005,0.0033637120939660594
6774.184683850981,0.003109375731045645,0.003362813701223414
6774.185683622904,0.0030786872876755896,0.0033589854067662466
6774.186683394826,0.0030488973761702842,0.0033521155730843744
6774.187683166749,0.003020246680921049,0.0033421517449878173
6774.188682938672,0.002992943471080868,0.0033291007820227697
6774.189682710595,0.002967162596540735,0.003313027703869594
6774.190682482517,0.0029430451628026954,0.003294053402547725
6774.19168225444,0.0029206987927807393,0.0032723513911514447
6774.1926820263625,0.002900198374434485,0.003248143755345078
6774.193681798286,0.0028815871958713245,0.003221696456977329
6774.194681570209,0.0028648783921097847,0.003193314120191974
6774.195681342131,0.002850056670279242,0.0031633344150223397
6774.196681114054,0.002837080321805706,0.0031321221378388456
6774.197680885976,0.002825883542259727,0.0031000630728150852
6774.198680657899,0.0028163790520205753,0.003067557715226426
6774.199680429822,0.002808460964105111,0.003035014951290179
6774.200680201745,0.0028020078144686857,0.0030028458069069563
6774.201679973668,0.002796885672892187,0.0029714573768107825
6774.20267974559,0.002792951276559135,0.002941247018288754
6774.203679517513,0.002790055150283086,0.0029125968586736365
6774.204679289436,0.002788044685115304,0.0028858686498967542
6774.205679061359,0.0027867671385877774,0.0028613990074175815
6774.206678833281,0.0027860724979453877,0.0028394950703455064
6774.207678605204,0.002785816125334397,0.002820430598660708
6774.208678377127,0.002785861098764235,0.0028044424903998495
6774.20967814905,0.0027860801796232466,0.00279172767588116
6774.210677920973,0.002786357364948508,0.002782440349050848
6774.211677692895,0.0027865890082882662,0.0027766895437361123
6774.212677464818,0.002786684517851538,0.0027745371430703846
6774.21367723674,0.002786566671549549,0.002775996479457439
6774.214677008664,0.0027861716198829814,0.002781031700978163
6774.215676780586,0.0027854486641539907,0.0027895580496130512
6774.216676552509,0.0027843598946872233,0.0028014431488440276
6774.217676324432,0.0027828797580972033,0.002816509356808199
6774.218676096354,0.002780994594907156,0.002834537203484622
6774.219675868277,0.002778702146602681,0.0028552698858367864
6774.2206756402,0.002776010987265625,0.0028784187443947175
6774.221675412123,0.002772939815982517,0.00290366959122287
6774.222675184045,0.0027695165667250975,0.0029306896974630294
6774.223674955968,0.0027657773397204016,0.0029591351778662095
6774.2246747278905,0.002761765206764344,0.0029886584412372693
6774.225674499814,0.0027575289709263016,0.00301891532862495
6774.226674271737,0.0027531219585676453,0.0030495715583436374
6774.227674043659,0.0027486008931394985,0.003080308152212734
6774.228673815582,0.002744024855981486,0.0031108256187287633
6774.229673587504,0.0027394542849216524,0.0031408467862302216
6774.230673359427,0.002734949908993205,0.003170118290125373
6774.23167313135,0.0027305714922481648,0.0031984108183062626
6774.232672903273,0.0027263762777517933,0.003225518307471665
6774.233672675196,0.0027224170790774715,0.0032512563503456007
6774.234672447118,0.002718740052799678,0.0032754601062341066
6774.235672219041,0.0027153822949699184,0.0032979820024269507
6774.236671990964,0.0027123695084037467,0.0033186894818722883
6774.237671762887,0.002709714038365976,0.0033374630065834154
6774.238671534809,0.0027074135473159787,0.003354194474057895
6774.239671306732,0.00270545051161639,0.003368786145569233
6774.240671078655,0.002703792610876941,0.0033811501191982445
6774.241670850578,0.002702393975312918,0.0033912083135017447
6774.242670622501,0.0027011971769638206,0.0033988928736792393
6774.243670394423,0.00270013580639444,0.003404146881319931
6774.244670166346,0.002699137471014008,0.003406925238773779
6774.245669938268,0.0026981270732686293,0.0034071955988440625
6774.246669710192,0.0026970302472528983,0.003404939215168661
6774.247669482114,0.0026957768277751405,0.0034001516074902032
6774.248669254037,0.0026943042031104493,0.003392842982146608
6774.24966902596,0.0026925603811676895,0.0033830384153993873
6774.250668797882,0.0026905065866782265,0.003370777859345242
6774.251668569805,0.002688119207067181,0.003356116034642752
6774.252668341728,0.00268539093103873,0.003339122244776643
6774.253668113651,0.002682330994830533,0.003319880124997959
6774.254667885573,0.002678964558314302,0.003298487343597712
6774.255667657496,0.0026753313307862786,0.003275055284177947
6774.2566674294185,0.002671483610853493,0.0032497087266167082
6774.257667201342,0.0026674838966757363,0.003222585507012971
6774.258666973265,0.0026634021948746998,0.0031938360955399737
6774.259666745187,0.002659313141456773,0.003163623007860648
6774.26066651711,0.00265529306084992,0.0031321199671737843
6774.261666289032,0.0026514171166328875,0.003099510763282335
6774.262666060956,0.0026477567202540645,0.0030659878106658847
6774.263665832878,0.0026443773472583734,0.003031750467245301
6774.264665604801,0.0026413368732987504,0.0029970032095211706
6774.265665376724,0.0026386845003739823,0.0029619537591018892
6774.266665148646,0.0026364603083504808,0.0029268112328189795
6774.26766492057,0.0026346954372239244,0.002891784357679052
6774.268664692492,0.002633412866161132,0.002857079759615779
6774.269664464415,0.002632628695428216,0.0028229003076433138
6774.270664236337,0.002632353775737697,0.002789443482706772
6774.27166400826,0.0026325955003344862,0.0027568997491222214
6774.272663780183,0.0026333595869836627,0.0027254509299506793
6774.273663552106,0.002634651706051098,0.002695268612981642
6774.274663324029,0.002636478832089251,0.0026665126295259242
6774.275663095951,0.002638850205097651,0.002639329648929661
6774.276662867874,0.002641777798873083,0.0026138519244684614
6774.277662639796,0.0026452762334335835,0.0025901962227405937
6774.27866241172,0.002649362148698251,0.002568462967110249
6774.279662183642,0.0026540531532789073,0.002548735615537789
6774.280661955565,0.00265936653080458,0.002531080278287474
6774.281661727488,0.0026653178987076868,0.0025155455746799457
6774.28266149941,0.0026719199752461664,0.0025021627282528812
6774.283661271333,0.0026791815486376424,0.00249094589441782
6774.284661043256,0.002687106691202401,0.002481892701452471
6774.285660815179,0.0026956942352923006,0.0024749849693911107
6774.286660587101,0.00270493751434046,0.00247018955661679
6774.287660359024,0.002714824354721454,0.0024674592796198845
6774.2886601309465,0.002725337280332109,0.0024667338708041606
6774.28965990287,0.0027364538692491243,0.002467940984660874
6774.290659674793,0.0027481471854580303,0.0024709973127245433
6774.291659446715,0.002760386205128104,0.002475809888214844
6774.292659218638,0.0027731361769287484,0.002482277633347952
6774.29365899056,0.0027863588969437754,0.002490293140616126
6774.294658762484,0.002800012914763876,0.0024997446204002706
6774.295658534406,0.002814053692380781,0.0025105179200606
6774.296658306329,0.0028284337178730366,0.002522498527859227
6774.297658078252,0.002843102564049986,0.0025355735040075334
6774.298657850174,0.002858006896821771,0.0025496333148312482
6774.299657622098,0.002873090464361472,0.002564573577111286
6774.30065739402,0.002888294109623114,0.002580296746214944
6774.301657165943,0.002903555835201764,0.0025967137984139396
6774.302656937865,0.0029188109260328238,0.0026137459574100716
6774.303656709788,0.002933992127867453,0.0026313264996622224
6774.304656481711,0.0029490298932698046,0.0026494026526170085
6774.305656253634,0.002963852720193582,0.0026679375738391984
6774.306656025557,0.0029783876072764907,0.002686912352472801
6774.307655797479,0.002992560651663364,0.0027063279015020346
6774.308655569402,0.0030062978355689047,0.0027262065316035204
6774.309655341324,0.003019526067499766,0.00274659295076636
6774.310655113248,0.003032174527003277,0.0027675544377431045
6774.31165488517,0.0030441763013866613,0.0027891799865497127
6774.312654657093,0.003055470232588053,0.0028115783026245018
6774.313654429016,0.0030660028513623035,0.002834874639768484
6774.314654200938,0.0030757302741186766,0.002859206579957051
6774.315653972862,0.0030846199575221924,0.0028847189437027666
6774.316653744784,0.003092652227991924,0.0029115580564697294
6774.317653516707,0.0030998215235887175,0.0029398655918716076
6774.318653288629,0.0031061373114431106,0.0029697721859065
6774.319653060552,0.0031116246747052516,0.0030013909864949487
6774.320652832475,0.0031163245824918943,0.003034811276983994
6774.321652604398,0.0031202938471957156,0.0030700922940002755
6774.322652376321,0.0031236047410431434,0.0031072573546339684
6774.323652148243,0.0031263442160850276,0.003146288424492838
6774.324651920166,0.0031286126755845555,0.0031871213004680894
6774.325651692088,0.00313052228129444,0.0032296416328358056
6774.326651464012,0.0031321948259076917,0.0032736820318645687
6774.327651235934,0.0031337592273669593,0.0033190204688506495
6774.328651007857,0.00313534871071333,0.0033653801095553356
6774.32965077978,0.0031370977553068897,0.003412430649709304
6774.330650551702,0.003139138917668137,0.0034597911709771116
6774.331650323626,0.003141599687670055,0.0035070344822854984
6774.332650095548,0.0031445995748511785,0.00355369284026875
6774.333649867471,0.003148247622940869,0.0035992648687704263
6774.334649639393,0.003152640497684697,0.003643223454452073
6774.335649411316,0.0031578611994551534,0.0036850244030730327
6774.336649183239,0.0031639783557740964,0.0037241156850753195
6774.337648955162,0.0031710459829542843,0.0037599471417601965
6774.338648727085,0.0031791035819370515,0.0037919805334540838
6774.339648499007,0.003188176448955695,0.003819699792781452
6774.34064827093,0.0031982761262131175,0.003842621324846115
6774.341648042852,0.003209400961292854,0.0038603041707416085
6774.342647814776,0.0032215367494311396,0.0038723597917211493
6774.343647586698,0.0032346573958636237,0.0038784611390110793
6774.344647358621,0.0032487254898379233,0.0038783506044507026
6774.345647130544,0.0032636926608341286,0.0038718464598573306
6774.346646902466,0.0032794996100726313,0.003858847498351127
6774.34764667439,0.0032960757913335255,0.0038393357512559955
6774.348646446312,0.0033133388420262012,0.003813377319706975
6774.349646218235,0.0033311939769344236,0.0037811214927431992
6774.350645990157,0.003349533589372468,0.0037427983966439584
6774.35164576208,0.003368237249497815,0.003698715417424848
6774.352645534003,0.003387172184354635,0.0036492525754199907
6774.353645305926,0.0034061942158815283,0.0035948569600323986
6774.3546450778485,0.0034251490668035594,0.003536036299878311
6774.355644849771,0.00344387394213489,0.003473351753465297
6774.356644621694,0.0034621993310856103,0.0034074100399496977
6774.357644393616,0.003479951004642874,0.0033388550687936903
6774.35864416554,0.0034969521887667112,0.0032683592474467035
6774.359643937462,0.0035130258832789525,0.003196614631961943
6774.360643709385,0.003527997286211151,0.0031243240539548006
6774.361643481308,0.0035416962777572725,0.003052192342249192
6774.36264325323,0.0035539599192679675,0.0029809177650402374
6774.363643025154,0.0035646349328237194,0.0029111838242273248
6774.364642797076,0.0035735801433065552,0.002843651522032301
6774.365642568999,0.0035806688762577373,0.0027789521950066097
6774.366642340921,0.0035857912947755886,0.0027176809735477356
6774.367642112844,0.003588856623137319,0.0026603908785330084
6774.368641884767,0.003589795164242242,0.002607587533898623
6774.36964165669,0.0035885600011900244,0.0025597244791296064
6774.3706414286125,0.0035851282888598006,0.002517199097402619
6774.371641200535,0.003579502074165498,0.002480349198266066
6774.372640972458,0.0035717086185558717,0.0024494502897516434
6774.37364074438,0.003561800230019979,0.0024247135490591677
6774.374640516304,0.00354985363755159,0.00240628446316714
6774.375640288226,0.003535968943130595,0.0023942420742691056
6774.376640060149,0.0035202681634615173,0.0023885987533259216
6774.377639832072,0.0035028933490234286,0.002389300451723447
6774.378639603994,0.0034840042656988633,0.002396227427165491
6774.379639375918,0.0034637756501103715,0.0024091954729283595
6774.38063914784,0.003442394096351323,0.002427957691413875
6774.381638919763,0.003420054686657339,0.002452206860281564
6774.382638691685,0.0033969575227584406,0.0024815784492280236
6774.383638463608,0.00337330432625806,0.002515654345316938
6774.384638235531,0.003349295246398278,0.0025539673264544168
6774.385638007454,0.0033251259573420728,0.0025960062894994067
6774.3866377793765,0.0033009850750449145,0.002641222196702498
6774.387637551299,0.003277051900189804,0.0026890346653117335
6774.388637323222,0.003253494503413624,0.0027388391153934074
6774.389637095144,0.003230468195651009,0.002790014418285441
6774.390636867068,0.003208114440682133,0.002841931021931282
6774.39163663899,0.003186560247071189,0.002893959525888399
6774.392636410913,0.003165918023511729,0.002945479626717666
6774.393636182836,0.003146285817259416,0.0029958892846074035
6774.394635954758,0.0031277478087188043,0.0030446139113499784
6774.395635726682,0.003110374923064026,0.0030911153545091666
6774.396635498604,0.003094225439718234,0.0031349004360723557
6774.397635270527,0.003079345517629579,0.0031755287913980746
6774.398635042449,0.0030657695869615656,0.003212619764756312
6774.399634814372,0.0030535205721586895,0.0032458581696383593
6774.400634586295,0.0030426099165128642,0.003274998805711495
6774.401634358218,0.0030330373935469517,0.003299869700628779
6774.4026341301405,0.003024790720656804,0.003320374075714402
6774.403633902063,0.0030178450236516695,0.0033364910217051026
6774.404633673986,0.003012162220308806,0.0033482748566003332
6774.405633445909,0.0030076903878055376,0.0033558531564826743
6774.406633217832,0.003004363161054907,0.0033594234896869297
6774.407632989754,0.0030020991983941247,0.003359248908684086
6774.408632761677,0.00300080176698313,0.0033556522518468305
6774.4096325336,0.0030003585401107776,0.0033490093054684813
6774.410632305522,0.0030006417327009174,0.0033397409023764187
6774.411632077446,0.0030015086963769587,0.0033283040834285725
6774.412631849368,0.003002803045873297,0.0033151825037481667
6774.413631621291,0.003004356318753586,0.003300876321515125
6774.414631393213,0.0030059901108504842,0.0032858918590582377
6774.415631165136,0.003007518595168539,0.0032707313544739183
6774.416630937059,0.003008751318985697,0.003255883111461574
6774.417630708982,0.0030094961788019975,0.0032418123063212892
6774.4186304809045,0.003009562500857023,0.0032289526299571414
6774.419630252827,0.0030087642047614037,0.0032176988421012756
6774.42063002475,0.003006923076375203,0.003208400226508992
6774.421629796672,0.0030038721924699726,0.0032013548950431754
6774.422629568596,0.0029994595121725608,0.0031968049040060073
6774.423629340518,0.0029935515935701528,0.0031949321948878634
6774.424629112441,0.00298603733202473,0.003195855422285113
6774.425628884364,0.002976831567540184,0.0031996277651197367
6774.426628656286,0.0029658783877768097,0.003206235831671156
6774.42762842821,0.0029531539743634714,0.0032155997692366114
6774.428628200132,0.002938668895180852,0.0032275746740833065
6774.429627972055,0.0029224698020190306,0.0032419533587113936
6774.430627743977,0.0029046405223656126,0.00325847046785096
6774.4316275159,0.002885302529948109,0.0032768078505725235
6774.432627287823,0.002864614750730482,0.003296601010623199
6774.433627059746,0.002842772626680195,0.0033174463902767956
6774.4346268316685,0.002820006342728746,0.003338909214139435
6774.435626603591,0.002796578142323108,0.003360531641349349
6774.436626375514,0.0027727787123719852,0.0033818410358374663
6774.437626147437,0.0027489226872231152,0.0034023582230199257
6774.43862591936,0.0027253433790259568,0.0034216056217732504
6774.439625691282,0.002702386878401656,0.003439115134692477
6774.440625463205,0.0026804056895847533,0.003454435684355111
6774.441625235128,0.0026597520759818697,0.003467140305223891
6774.44262500705,0.002640771298333186,0.003476832721648458
6774.443624778974,0.0026237949267347376,0.003483153359560772
6774.444624550896,0.0026091343947820616,0.003485784755919707
6774.445624322819,0.002597074932107894,0.0034844563316355527
6774.446624094741,0.0025878699620777348,0.0034789484767614727
6774.447623866664,0.002581736006615609,0.0034690958870808608
6774.448623638587,0.0025788481306183047,0.003454790108519686
6774.44962341051,0.0025793359902727274,0.0034359812752091847
6774.4506231824325,0.002583280594245758,0.003412679043314964
6774.451622954355,0.0025907119082465035,0.0033849527215075092
6774.452622726278,0.002601607419384393,0.0033529305914962145
6774.4536224982,0.0026158917408999685,0.00331679840753961
6774.454622270124,0.0026334372993311694,0.003276797072184502
6774.455622042046,0.002654066109616226,0.0032332195199447763
6774.456621813969,0.0026775526014330493,0.0031864068949864197
6774.457621585892,0.0027036274109805696,0.0031367441514941197
6774.458621357815,0.0027319820076698665,0.003084655218539209
6774.459621129738,0.002762273992477444,0.003030597872217075
6774.46062090166,0.002794132878431759,0.0029750584638790927
6774.461620673583,0.0028271661427074373,0.002918546654807001
6774.462620445505,0.002860965343756041,0.002861590289650875
6774.463620217428,0.002895112144153621,0.002804730507195404
6774.464619989351,0.0029291841520826664,0.0027485171505447978
6774.465619761274,0.0029627605492345147,0.0026935045010809456
6774.4666195331965,0.0029954274939134012,0.0026402473103062036
6774.467619305119,0.003026783294215676,0.002589297033008344
6774.468619077042,0.0030564433519186546,0.002541198084762324
6774.469618848965,0.0030840448740355685,0.0024964838900836724
6774.470618620888,0.0031092513239652925,0.0024556724920007543
6774.47161839281,0.0031317565441317517,0.0024192615643208923
6774.472618164733,0.00315128845248338,0.002387722768102699
6774.473617936656,0.0031676122194065843,0.0023614954834308972
6774.474617708578,0.0031805328630191278,0.0023409800162058716
6774.475617480502,0.0031898972296415117,0.00232653044184467
6774.476617252424,0.003195595335203269,0.0023184473140261965
6774.477617024347,0.003197561041463768,0.002316970522040276
6774.478616796269,0.0031957720434804865,0.0023222725969770912
6774.479616568192,0.0031902491579700997,0.0023344527397095205
6774.480616340115,0.0031810549281015184,0.002353531800142377
6774.481616112038,0.0031682915978901993,0.002379448406162541
6774.4826158839605,0.0031520985499342217,0.0024120564204348064
6774.483615655883,0.0031326493327966647,0.00245112386892734
6774.484615427806,0.003110148420724901,0.0024963334198566715
6774.485615199729,0.003084827841076705,0.0025472844052653633
6774.486614971652,0.0030569437757008554,0.0026034963009729352
6774.487614743574,0.0030267732106821145,0.0026644135452079183
6774.488614515497,0.0029946106927737923,0.002729411587730359
6774.48961428742,0.0029607652469724045,0.002797804097919655
6774.490614059343,0.002925557500265733,0.002868851297103117
6774.491613831266,0.0028893170329322127,0.002941769404278771
6774.492613603188,0.0028523799457763105,0.0030157411837108427
6774.493613375111,0.0028150865929174244,0.0030899275416889052
6774.494613147033,0.00277777938389063,0.0031634800333976277
6774.495612918956,0.0027408005161904127,0.0032355540303725286
6774.496612690879,0.002704489486930583,0.0033053222039900712
6774.497612462802,0.0026691802676744856,0.003371987935798173
6774.4986122347245,0.0026351980960086473,0.0034347982795250665
6774.499612006647,0.0026028559116401187,0.0034930561474491788
6774.50061177857,0.002572450523500887,0.0035461314362637466
6774.501611550493,0.0025442586279938416,0.003593470827841197
6774.502611322416,0.0025185328050275,0.003634606021131143
6774.503611094338,0.0024954976090657294,0.00366916020776388
6774.504610866261,0.002475345867637317,0.0036968527020514778
6774.505610638184,0.0024582353122020017,0.0037175017423790465
6774.506610410106,0.002444285687012804,0.00373102554757635
6774.50761018203,0.0024335764853911147,0.0037374417148422928
6774.508609953952,0.0024261454324858885,0.003736865002987965
6774.509609725875,0.002421987779222515,0.0037295035017289946
6774.510609497797,0.0024210564199887044,0.003715653188840293
6774.51160926972,0.0024232628110019607,0.003695690939947739
6774.512609041643,0.0024284786388351896,0.0036700661592455395
6774.513608813566,0.002436538153972237,0.0036392912925083867
6774.5146085854885,0.0024472410448466504,0.003603931523352091
6774.515608357411,0.0024603557085164773,0.003564593940447323
6774.516608129334,0.0024756227960825235,0.003521916427968204
6774.517607901257,0.002492758965170829,0.003476556494319065
6774.51860767318,0.002511460828523665,0.0034291802201494564
6774.519607445102,0.0025314091219803487,0.0033804514839250966
6774.520607217025,0.002552273116154742,0.0033310216187384563
