Time,Filtered_ECG
6970.222961779707,0.004254977392275977
6970.223961551629,0.004347900534589957
6970.224961323553,0.004440120368004736
6970.225961095475,0.004531611956724457
6970.226960867398,0.004622350445194528
6970.22796063932,0.004712311067933897
6970.228960411243,0.004801469159404177
6970.2299601831655,0.004889800163910184
6970.230959955089,0.0049772796455263375
6970.231959727012,0.005063883298043346
6970.232959498934,0.005149586954929497
6970.233959270857,0.0052343665993009126
6970.23495904278,0.00531819837389511
6970.235958814703,0.005401058591042224
6970.236958586625,0.005482923742628281
6970.237958358548,0.005563770510044918
6970.238958130471,0.005643575774119973
6970.239957902393,0.005722316625023316
6970.240957674317,0.005799970372142333
6970.241957446239,0.005876514553921407
6970.242957218162,0.005951926947659754
6970.243956990084,0.006026185579261965
6970.244956762007,0.006099268732935651
6970.24595653393,0.0061711549608305626
6970.246956305853,0.00624182309261355
6970.247956077776,0.006311252244973779
6970.248955849698,0.006379421831052608
6970.249955621621,0.006446311569792592
6970.250955393543,0.006511901495200032
6970.251955165467,0.006576171965515606
6970.252954937389,0.0066391036722875975
6970.253954709312,0.00670067764934229
6970.254954481235,0.006760875281646148
6970.255954253157,0.006819678314054404
6970.256954025081,0.00687706885994073
6970.257953797003,0.006933029409702736
6970.258953568926,0.006987542839138137
6970.259953340848,0.0070405924176865356
6970.260953112771,0.007092161816531958
6970.2619528846935,0.007142235116561485
6970.262952656617,0.007190796816175504
6970.26395242854,0.007237831838945345
6970.264952200462,0.00728332554111424
6970.265951972385,0.007327263718937746
6970.266951744308,0.007369632615859901
6970.267951516231,0.00741041892952153
6970.268951288153,0.007449609818597203
6970.269951060076,0.007487192909457398
6970.270950831999,0.0075231563026524565
6970.271950603921,0.007557488579214936
6970.272950375845,0.007590178806776971
6970.273950147767,0.0076212165454992604
6970.27494991969,0.00765059185380837
6970.275949691612,0.007678295293939085
6970.276949463535,0.007704317937278609
6970.277949235458,0.007728651369509528
6970.278949007381,0.0077512876955484885
6970.279948779304,0.007772219544277734
6970.280948551226,0.007791440073066654
6970.281948323149,0.007808942972080674
6970.282948095071,0.00782472246837489
6970.283947866995,0.007838773329769948
6970.284947638917,0.007851090868507795
6970.28594741084,0.00786167094468495
6970.286947182763,0.007870509969461006
6970.287946954686,0.007877604908040105
6970.288946726609,0.007882953282423099
6970.289946498531,0.007886553173928128
6970.290946270454,0.007888403225477326
6970.291946042376,0.007888502643647342
6970.292945814299,0.007886851200481363
6970.293945586222,0.007883449235060342
6970.294945358145,0.007878297654831175
6970.295945130068,0.007871397936689587
6970.29694490199,0.007862752127815568
6970.297944673913,0.007852362846259238
6970.298944445836,0.007840233281275134
6970.299944217759,0.007826367193402925
6970.300943989681,0.007810768914292707
6970.301943761604,0.007793443346273081
6970.302943533527,0.0077743959616603684
6970.303943305449,0.007753632801807405
6970.304943077373,0.007731160475890555
6970.305942849295,0.007706986159433728
6970.306942621218,0.007681117592568427
6970.30794239314,0.007653563078029087
6970.308942165063,0.0076243314788832445
6970.309941936986,0.007593432215996316
6970.310941708909,0.007560875265231069
6970.311941480832,0.00752667115438207
6970.312941252754,0.007490830959845669
6970.313941024677,0.0074533663030263006
6970.314940796599,0.007414289346480156
6970.315940568523,0.007373612789797555
6970.316940340445,0.007331349865225604
6970.317940112368,0.007287514333032966
6970.318939884291,0.007242120476618844
6970.319939656214,0.007195183097368507
6970.320939428137,0.007146717509257984
6970.321939200059,0.007096739533210791
6970.322938971982,0.007045265491209862
6970.323938743904,0.006992312200168158
6970.324938515827,0.006937896965561708
6970.32593828775,0.006882037574829108
6970.326938059673,0.006824752290541758
6970.327937831596,0.006766059843349339
6970.328937603518,0.006705979424705177
6970.329937375441,0.0066445306793763
6970.330937147364,0.006581733697743074
6970.331936919287,0.006517609007893382
6970.332936691209,0.006452177567516389
6970.333936463132,0.006385460755601015
6970.334936235055,0.006317480363944376
6970.335936006977,0.006248258588475576
6970.336935778901,0.006177818020400362
6970.337935550823,0.006106181637172299
6970.338935322746,0.006033372793296222
6970.339935094668,0.005959415210969814
6970.340934866592,0.005884332970569287
6970.341934638514,0.0058081505009852175
6970.342934410437,0.0057308925698147375
6970.34393418236,0.0056525842734164045
6970.344933954282,0.005573251026834226
6970.345933726205,0.005492918553597448
6970.346933498128,0.00541161287540281
6970.347933270051,0.005329360301686128
6970.348933041973,0.0052461874190900554
6970.349932813896,0.005162121080834935
6970.350932585819,0.005077188395999658
6970.351932357742,0.004991416718719392
6970.352932129665,0.0049048336373070075
6970.353931901587,0.004817466963304999
6970.35493167351,0.00472934472047465
6970.355931445432,0.004640495133729135
6970.356931217355,0.004550946618017231
6970.357930989278,0.00446072776716421
6970.358930761201,0.004369867342676387
6970.359930533124,0.004278394262515693
6970.360930305046,0.004186337589850499
6970.361930076969,0.00409372652178877
6970.362929848892,0.0040005903780995075
6970.363929620815,0.003906958589928308
6970.364929392737,0.00381286068851276
6970.36592916466,0.003718326293903291
6970.366928936583,0.0036233851036950025
6970.367928708505,0.003528066881775957
6970.368928480429,0.0034324014470972987
6970.369928252351,0.0033364186624705093
6970.370928024274,0.00324014842339704
6970.371927796196,0.0031436206469354594
6970.37292756812,0.0030468652606111674
6970.373927340042,0.0029499121913736342
6970.374927111965,0.0028527913546060107
6970.375926883888,0.00275553264319182
6970.37692665581,0.0026581659166433178
6970.377926427733,0.0025607209902959566
6970.378926199656,0.00246322762457324
6970.379925971579,0.002365715514326106
6970.380925743501,0.0022682142782508496
6970.381925515424,0.0021707534483894715
6970.382925287347,0.0020733624597162282
6970.38392505927,0.001976070639814056
6970.384924831193,0.0018789071986444205
6970.385924603115,0.0017819012184140455
6970.386924375038,0.0016850816435418426
6970.38792414696,0.0015884772707292643
6970.388923918883,0.0014921167391371696
6970.389923690806,0.0013960285206721628
6970.390923462729,0.0013002409103852316
6970.391923234652,0.0012047820169853707
6970.392923006574,0.0011096797534707668
6970.393922778497,0.001014961827880022
6970.39492255042,0.0009206557341658436
6970.395922322343,0.0008267887431936285
6970.396922094265,0.0007333878938674084
6970.397921866188,0.0006404799843857143
6970.398921638111,0.000548091563630013
6970.399921410033,0.0004562489226884966
6970.400921181957,0.00036497808651812336
6970.401920953879,0.0002743048057479122
6970.402920725802,0.00018425454862656187
6970.403920497724,9.485249311746809e-05
6970.404920269648,6.123519144138408e-06
6970.40592004157,-8.19077990111447e-05
6970.406919813493,-0.00016921720015276043
6970.407919585416,-0.0002557807434588583
6970.408919357338,-0.0003415748156079424
6970.409919129261,-0.0004265761377429598
6970.410918901184,-0.0005107617722711315
6970.411918673107,-0.0005941091294979412
6970.412918445029,-0.0006765959740938444
6970.413918216952,-0.0007582004313923675
6970.414917988875,-0.0008389009935183496
6970.415917760798,-0.0009186765253451258
6970.416917532721,-0.0009975062702794596
6970.417917304643,-0.0010753698558730138
6970.418917076566,-0.001152247299259115
6970.419916848488,-0.0012281190124135328
6970.420916620411,-0.0013029658072379897
6970.421916392334,-0.001376768900465146
6970.422916164257,-0.001449509918383881
6970.42391593618,-0.0015211709013838056
6970.424915708102,-0.00159173430831809
6970.425915480026,-0.0016611830206838456
6970.426915251948,-0.001729500346619459
6970.427915023871,-0.001796670024718422
6970.428914795793,-0.0018626762276593336
6970.429914567716,-0.001927503565651862
6970.430914339639,-0.0019911370896985455
6970.431914111562,-0.0020535622946723908
6970.432913883485,-0.0021147651222102955
6970.433913655407,-0.0021747319634224
6970.43491342733,-0.0022334496614175537
6970.435913199252,-0.002290905513645186
6970.436912971176,-0.002347087274054012
6970.437912743098,-0.002401983155068156
6970.438912515021,-0.002455581829381453
6970.439912286944,-0.0025078724315708745
6970.440912058866,-0.0025588445595301733
6970.441911830789,-0.0026084882757249775
6970.442911602712,-0.0026567941082706664
6970.443911374635,-0.0027037530518344336
6970.444911146557,-0.002749356568362996
6970.44591091848,-0.0027935965876374484
6970.446910690403,-0.002836465507656777
6970.447910462326,-0.00287795619485157
6970.448910234249,-0.002918061984129433
6970.449910006171,-0.002956776678753643
6970.450909778094,-0.0029940945500565273
6970.451909550016,-0.0030300103369890834
6970.452909321939,-0.003064519245508363
6970.453909093862,-0.0030976169478041686
6970.454908865785,-0.003129299581366676
6970.455908637708,-0.0031595637478966684
6970.45690840963,-0.0031884065120601317
6970.457908181554,-0.003215825400089073
6970.458907953476,-0.0032418183982304777
6970.459907725399,-0.0032663839510454163
6970.460907497321,-0.003289520959560362
6970.461907269244,-0.003311228779272827
6970.462907041167,-0.0033315072180134294
6970.46390681309,-0.0033503565336664896
6970.464906585013,-0.0033677774317512213
6970.465906356935,-0.0033837710628654982
6970.466906128858,-0.003398339019994117
6970.46790590078,-0.003411483335683387
6970.468905672704,-0.0034232064790838315
6970.469905444626,-0.0034335113528627123
6970.470905216549,-0.003442401289988109
6970.471904988472,-0.0034498800503862653
6970.472904760394,-0.0034559518174739597
6970.473904532317,-0.003460621194567669
6970.47490430424,-0.0034638932011713183
6970.475904076163,-0.003465773269144434
6970.476903848085,-0.0034662672387525233
6970.477903620008,-0.0034653813546015374
6970.4789033919305,-0.003463122261458301
6970.479903163854,-0.003459496999958857
6970.480902935777,-0.0034545130022066994
6970.481902707699,-0.0034481780872629396
6970.482902479622,-0.003440500456530515
6970.483902251544,-0.0034314886890346127
6970.484902023468,-0.003421151736601532
6970.48590179539,-0.003409498918938278
6970.486901567313,-0.003396539918615219
6970.487901339236,-0.0033822847759541696
6970.488901111158,-0.0033667438838242965
6970.489900883082,-0.0033499279823482747
6970.490900655004,-0.003331848153521119
6970.491900426927,-0.0033125158157441587
6970.492900198849,-0.0032919427182766642
6970.493899970772,-0.0032701409356076603
6970.494899742695,-0.0032471228617505206
6970.495899514618,-0.003222901204462979
6970.496899286541,-0.0031974889793952395
6970.497899058463,-0.0031708995041689267
6970.498898830386,-0.003143146392389648
6970.499898602308,-0.003114243547596001
6970.500898374232,-0.0030842051571478477
6970.501898146154,-0.0030530456860566797
6970.502897918077,-0.003020779870760854
6970.50389769,-0.0029874227128484257
6970.504897461922,-0.0029529894727302326
6970.505897233845,-0.002917495663265802
6970.506897005768,-0.0028809570433445887
6970.507896777691,-0.002843389611424973
6970.508896549613,-0.0028048095990333903
6970.509896321536,-0.0027652334642259487
6970.510896093459,-0.0027246778850148895
6970.511895865382,-0.002683159752762237
6970.512895637305,-0.002640696165543021
6970.513895409227,-0.0025973044214804906
6970.51489518115,-0.002553002012055811
6970.515894953072,-0.002507806615394788
6970.516894724996,-0.0024617360895342493
6970.517894496918,-0.0024148084656707585
6970.518894268841,-0.0023670419413943677
6970.519894040764,-0.002318454873910115
6970.520893812686,-0.0022690657732499574
6970.52189358461,-0.0022188932954778236
6970.522893356532,-0.002167956235890447
6970.523893128455,-0.002116273522216614
6970.524892900377,-0.0020638642078174103
6970.5258926723,-0.002010747464889995
6970.526892444223,-0.001956942577677362
6970.527892216146,-0.0019024689356864789
6970.528891988069,-0.0018473460269171093
6970.529891759991,-0.001791593431103586
6970.530891531914,-0.001735230812971739
6970.531891303836,-0.0016782779155131342
6970.53289107576,-0.0016207545532786773
6970.533890847682,-0.0015626806056935193
6970.534890619605,-0.0015040760103950527
6970.535890391528,-0.001444960756595605
6970.53689016345,-0.0013853548784712724
6970.537889935373,-0.0013252784485781512
6970.538889707296,-0.0012647515712970884
6970.539889479219,-0.0012037943763079635
6970.540889251141,-0.0011424270120944753
6970.541889023064,-0.0010806696394804257
6970.542888794987,-0.0010185424251985798
6970.54388856691,-0.0009560655354932723
6970.544888338833,-0.0008932591297580288
6970.545888110755,-0.0008301433542095278
6970.546887882678,-0.0007667383355992725
6970.5478876546,-0.0007030641749643671
6970.548887426524,-0.0006391409414188354
6970.549887198446,-0.0005749886659870025
6970.550886970369,-0.000510627335480572
6970.551886742292,-0.00044607688642119166
6970.552886514214,-0.00038135719901047626
6970.553886286138,-0.00031648809114962655
6970.55488605806,-0.00025148931251096397
6970.555885829983,-0.000186380538663861
6970.556885601905,-0.00012118136525770158
6970.557885373828,-5.5911302264650044e-05
6970.558885145751,9.410231714856661e-06
6970.559884917674,7.476391508085505e-05
6970.560884689597,0.00014013052879369514
6970.561884461519,0.00020549096186174838
6970.562884233442,0.0002708262167537041
6970.563884005365,0.00033611741473215355
6970.564883777288,0.0004013458011051728
6970.56588354921,0.00046649275039266396
6970.566883321133,0.0005315397714042962
6970.567883093056,0.0005964685122260168
6970.568882864978,0.000661260765112269
6970.569882636902,0.0007258984712812698
6970.570882408824,0.0007903637256109456
6970.571882180747,0.0008546387812333685
6970.572881952669,0.0009187060540257445
6970.573881724592,0.0009825481269961547
6970.574881496515,0.0010461477545623352
6970.575881268438,0.0011094878667218333
6970.576881040361,0.0011725515731119166
6970.577880812283,0.0012353221669576823
6970.578880584206,0.001297783128906914
6970.579880356128,0.0013599181307503748
6970.580880128052,0.001421711039026393
6970.581879899974,0.0014831459185087874
6970.582879671897,0.001544207035577361
6970.58387944382,0.0016048788614703832
6970.584879215742,0.001665146075418649
6970.585878987666,0.0017249935676608601
6970.586878759588,0.0017844064423402151
6970.587878531511,0.0018433700202821993
6970.588878303433,0.0019018698416536908
6970.589878075356,0.0019598916685035946
6970.590877847279,0.002017421487185331
6970.591877619202,0.0020744455106616374
6970.592877391125,0.00213095018069228
6970.593877163047,0.002186922169905427
6970.59487693497,0.0022423483837536065
6970.595876706893,0.002297215962355345
6970.596876478816,0.002351512282223756
6970.597876250738,0.002405224957883508
6970.598876022661,0.00245834184337772
6970.599875794584,0.0025108510336664036
6970.600875566506,0.0025627408659180738
6970.60187533843,0.0026139999206961128
6970.602875110352,0.002664617023041389
6970.603874882275,0.0027145812434525448
6970.604874654197,0.002763881898765281
6970.60587442612,0.002812508552931886
6970.606874198043,0.002860451017702205
6970.607873969966,0.002907699353207208
6970.608873741889,0.002954243868446285
6970.609873513811,0.003000075121679389
6970.610873285734,0.0030451839207251232
6970.611873057656,0.0030895613231659126
6970.61287282958,0.003133198636461425
6970.613872601502,0.0031760874179714996
6970.614872373425,0.0032182194748899516
6970.615872145348,0.0032595868640907326
6970.61687191727,0.0033001818918880414
6970.617871689194,0.0033399971137120553
6970.618871461116,0.003379025333702013
6970.619871233039,0.003417259604218376
6970.620871004961,0.003454693225275796
6970.621870776884,0.0034913197438985817
6970.622870548807,0.003527132953400334
6970.62387032073,0.0035621268925893545
6970.624870092653,0.003596295844901391
6970.625869864575,0.0036296343374612483
6970.626869636498,0.0036621371400747593
6970.627869408421,0.0036937992641525893
6970.628869180344,0.0037246159615673506
6970.629868952266,0.003754582723445484
6970.630868724189,0.003783695278895349
6970.631868496112,0.0038119495936729153
6970.632868268034,0.0038393418687863896
6970.633868039958,0.003865868539041073
6970.63486781188,0.0038915262715256507
6970.635867583803,0.003916311964041104
6970.636867355725,0.003940222743473357
6970.637867127648,0.00396325596411075
6970.638866899571,0.00398540920590741
6970.639866671494,0.004006680272693545
6970.640866443417,0.004027067190333718
6970.641866215339,0.004046568204834092
6970.642865987262,0.004065181780399683
6970.643865759184,0.004082906597442659
6970.644865531108,0.004099741550542764
6970.64586530303,0.004115685746361027
6970.646865074953,0.004130738501507933
6970.647864846876,0.004144899340367354
6970.648864618799,0.004158167992877526
6970.649864390722,0.004170544392270463
6970.650864162644,0.004182028672771134
6970.651863934567,0.004192621167257756
6970.652863706489,0.004202322404884521
6970.653863478412,0.004211133108668011
6970.654863250335,0.00421905419303849
6970.655863022258,0.004226086761357239
6970.656862794181,0.004232232103401032
6970.657862566103,0.004237491692814839
6970.658862338026,0.004241867184533871
6970.659862109949,0.004245360412176147
6970.660861881872,0.004247973385406824
6970.661861653794,0.0042497082872756786
6970.662861425717,0.004250567471529202
6970.66386119764,0.004250553459898906
6970.664860969562,0.004249668939367472
6970.665860741486,0.004247916759414474
6970.666860513408,0.004245299929243428
6970.667860285331,0.004241821614991939
6970.668860057253,0.00423748513692672
6970.669859829176,0.004232293966625195
6970.670859601099,0.004226251724145365
6970.671859373022,0.0042193621751855336
6970.672859144945,0.004211629228235434
6970.673858916867,0.004203056931720196
6970.67485868879,0.004193649471138558
6970.675858460712,0.004183411166196605
6970.676858232636,0.004172346467938317
6970.677858004558,0.0041604599558741785
6970.678857776481,0.004147756335109145
6970.679857548404,0.0041342404334713
6970.680857320327,0.00411991719864258
6970.68185709225,0.0041047916952929794
6970.682856864172,0.004088869102219635
6970.683856636095,0.004072154709492138
6970.684856408017,0.004054653915605437
6970.68585617994,0.0040363722246416125
6970.686855951863,0.00401731524344187
6970.687855723786,0.003997488678790074
6970.688855495709,0.003976898334609218
6970.689855267631,0.00395555010917235
6970.690855039554,0.003933449992329582
6970.691854811477,0.003910604062753011
6970.6928545834,0.003887018485201588
6970.693854355322,0.00386269950780812
6970.694854127245,0.003837653459390829
6970.695853899168,0.003811886746791964
6970.69685367109,0.003785405852246046
6970.697853443014,0.0037582173307803123
6970.698853214936,0.0037303278076498314
6970.699852986859,0.0037017439758095815
6970.700852758781,0.0036724725934256077
6970.701852530705,0.0036425204814271297
6970.702852302627,0.0036118945211012455
6970.70385207455,0.003580601651731666
6970.704851846473,0.003548648868282733
6970.705851618395,0.0035160432191298227
6970.706851390318,0.0034827918038371187
6970.707851162241,0.0034489017709836713
6970.708850934164,0.0034143803160385866
6970.709850706086,0.003379234679286187
6970.710850478009,0.0033434721438019605
6970.711850249932,0.003307100033480133
6970.712850021855,0.003270125711113715
6970.713849793778,0.0032325565765278863
6970.7148495657,0.0031944000647675676
6970.715849337623,0.0031556636443400097
6970.716849109545,0.0031163548155131644
6970.717848881468,0.0030764811086705125
6970.718848653391,0.0030360500827228817
6970.719848425314,0.0029950693235776234
6970.720848197237,0.002953546442665303
6970.721847969159,0.002911489075523838
6970.722847741082,0.0028689048804397695
6970.723847513005,0.002825801537146122
6970.724847284928,0.0027821867455760786
6970.72584705685,0.00273806822467149
6970.726846828773,0.002693453711245051
6970.727846600696,0.0026483509588948206
6970.728846372618,0.0026027677369696565
6970.729846144542,0.002556711829584075
6970.730845916464,0.002510191034681041
6970.731845688387,0.002463213163141225
6970.732845460309,0.002415786037937329
6970.733845232233,0.0023679174933321553
6970.734845004155,0.0023196153741191702
6970.735844776078,0.0022708875349044125
6970.736844548001,0.0022217418394286366
6970.737844319923,0.0021721861599286654
6970.738844091846,0.0021222283765369556
6970.739843863769,0.0020718763767184458
6970.740843635692,0.002021138054743794
6970.741843407614,0.00197002131119818
6970.742843179537,0.0019185340525249045
6970.74384295146,0.0018666841906030767
6970.744842723383,0.001814479642358728
6970.745842495306,0.0017619283294087408
6970.746842267228,0.0017090381777370041
6970.747842039151,0.0016558171174022394
6970.748841811073,0.0016022730822769463
6970.749841582996,0.0015484140098169245
6970.750841354919,0.001494247840860803
6970.751841126842,0.0014397825194589927
6970.752840898765,0.0013850259927314379
6970.753840670687,0.0013299862107535188
6970.75484044261,0.0012746711264694228
6970.755840214533,0.0012190886956322665
6970.756839986456,0.0011632468767701957
6970.757839758378,0.0011071536311776271
6970.758839530301,0.0010508169229307067
6970.759839302224,0.000994244718925943
6970.760839074146,0.0009374449889408377
6970.76183884607,0.0008804257057151612
6970.762838617992,0.0008231948450513163
6970.763838389915,0.0007657603859320336
6970.764838161837,0.0007081303106534331
6970.765837933761,0.0006503126049713234
6970.766837705683,0.0005923152582584651
6970.767837477606,0.0005341462636704124
6970.768837249529,0.00047581361831746153
6970.769837021451,0.0004173253234401736
6970.770836793374,0.0003586893845858945
6970.771836565297,0.000299913811783674
6970.77283633722,0.0002410066197149841
6970.773836109142,0.00018197582787764845
6970.774835881065,0.00012282946074040666
6970.775835652988,6.357554788555364e-05
6970.776835424911,4.222124137108565e-06
6970.777835196834,-5.5222770328013096e-05
6970.778834968756,-0.00011475108988832587
6970.779834740679,-0.00017435478340806427
6970.780834512601,-0.00023402579419184717
6970.781834284524,-0.0002937560599660479
6970.782834056447,-0.0003535375128890911
6970.78383382837,-0.00041336207959276057
6970.784833600293,-0.00047322168125645686
6970.785833372215,-0.0005331082337162034
6970.786833144139,-0.000593013647610093
6970.787832916061,-0.0006529298285617829
6970.788832687984,-0.0007128486774035848
6970.789832459906,-0.000772762090440628
6970.790832231829,-0.000832661959757481
6970.791832003752,-0.0008925401735684853
6970.792831775675,-0.0009523886166128789
6970.793831547598,-0.001012199170595561
6970.79483131952,-0.0010719637146740847
6970.795831091443,-0.0011316741259921777
6970.796830863365,-0.0011913222802597903
6970.797830635289,-0.0012509000523794017
6970.798830407211,-0.0013103993171181116
6970.799830179134,-0.0013698119498249187
6970.800829951057,-0.0014291298271925533
6970.801829722979,-0.0014883448280632783
6970.802829494902,-0.0015474488342781753
6970.803829266825,-0.0016064337315695777
6970.804829038748,-0.0016652914104964525
6970.80582881067,-0.0017240137674226883
6970.806828582593,-0.0017825927055383681
6970.807828354516,-0.0018410201359242084
6970.808828126439,-0.0018992879786594347
6970.809827898362,-0.001957388163973442
6970.810827670284,-0.002015312633441636
6970.811827442207,-0.0020730533412258805
6970.812827214129,-0.002130602255359973
6970.813826986052,-0.0021879513590804993
6970.814826757975,-0.0022450926522033336
6970.815826529898,-0.0023020181525459167
6970.816826301821,-0.0023587198973953226
6970.817826073743,-0.002415189945021991
6970.818825845667,-0.0024714203762389118
6970.819825617589,-0.0025274032960059365
6970.820825389512,-0.0025831308350788332
6970.821825161434,-0.0026385951517026284
6970.822824933357,-0.0026937884333487236
6970.82382470528,-0.002748702898495226
6970.824824477203,-0.0028033307984498762
6970.825824249126,-0.0028576644192148735
6970.826824021048,-0.0029116960833928474
6970.827823792971,-0.002965418152133107
6970.828823564893,-0.0030188230271172155
6970.829823336817,-0.0030719031525828317
6970.830823108739,-0.0031246510173846454
6970.831822880662,-0.0031770591570911425
6970.832822652585,-0.0032291201561158184
6970.833822424507,-0.00328082664988137
6970.83482219643,-0.0033321713270152856
6970.835821968353,-0.0033831469315751457
6970.836821740276,-0.0034337462653018253
6970.837821512198,-0.0034839621898986373
6970.838821284121,-0.0035337876293343
6970.839821056044,-0.0035832155721674474
6970.840820827967,-0.00363223907389026
6970.84182059989,-0.003680851259288669
6970.842820371812,-0.0037290453248165103
6970.843820143735,-0.003776814540980957
6970.844819915657,-0.0038241522547365235
6970.845819687581,-0.0038710518918849877
6970.846819459503,-0.003917506959478621
6970.847819231426,-0.003963511048224234
6970.848819003349,-0.004009057834885662
6970.849818775271,-0.0040541410846824475
6970.850818547195,-0.0040987546536825166
6970.851818319117,-0.00414289249118672
6970.85281809104,-0.004186548642103052
6970.853817862962,-0.004229717249308328
6970.854817634885,-0.004272392555995013
6970.855817406808,-0.004314568908000748
6970.856817178731,-0.004356240756118012
6970.857816950654,-0.0043974026583811976
6970.858816722576,-0.004438049282328257
6970.859816494499,-0.00447817540723397
6970.860816266421,-0.004517775926311766
6970.861816038345,-0.004556845848880939
6970.862815810267,-0.004595380302496009
6970.86381558219,-0.004633374535034901
6970.864815354113,-0.004670823916742487
6970.865815126035,-0.00470772394222593
6970.866814897958,-0.004744070232398146
6970.867814669881,-0.0047798585363655515
6970.868814441804,-0.004815084733256117
6970.869814213726,-0.004849744833983694
6970.870813985649,-0.004883834982944471
6970.871813757572,-0.004917351459641395
6970.872813529495,-0.004950290680232427
6970.873813301418,-0.004982649198998456
6970.87481307334,-0.005014423709726725
6970.875812845263,-0.005045611047005584
6970.876812617185,-0.0050762081874263665
6970.877812389109,-0.005106212250688167
6970.878812161031,-0.005135620500601262
6970.879811932954,-0.0051644303459849545
6970.880811704877,-0.005192639341455584
6970.881811476799,-0.005220245188100493
6970.882811248723,-0.005247245734033706
6970.883811020645,-0.005273638974829111
6970.884810792568,-0.005299423053826852
6970.88581056449,-0.00532459626230865
6970.886810336413,-0.005349157039537646
6970.887810108336,-0.005373103972658353
6970.888809880259,-0.005396435796452223
6970.889809652182,-0.005419151392944389
6970.890809424104,-0.005441249790857157
6970.891809196027,-0.005462730164905995
6970.892808967949,-0.005483591834933947
6970.893808739873,-0.0055038342648807284
6970.894808511795,-0.00552345706158311
6970.895808283718,-0.005542459973403657
6970.896808055641,-0.005560842888685347
6970.897807827563,-0.00557860583403014
6970.898807599486,-0.005595748972400063
6970.899807371409,-0.005612272601040004
6970.900807143332,-0.0056281771492219
6970.901806915254,-0.005643463175810604
6970.902806687177,-0.005658131366652249
6970.9038064591,-0.0056721825317863905
6970.904806231023,-0.005685617602483731
6970.905806002946,-0.005698437628111632
6970.906805774868,-0.0057106437728300825
6970.907805546791,-0.0057222373121212
6970.908805318713,-0.0057332196291557894
6970.909805090637,-0.005743592211000883
6970.910804862559,-0.005753356644672677
6970.911804634482,-0.005762514613039701
6970.912804406405,-0.005771067890581612
6970.913804178327,-0.005779018339009492
6970.914803950251,-0.005786367902754219
6970.915803722173,-0.005793118604330117
6970.916803494096,-0.005799272539581792
6970.917803266018,-0.005804831872822846
6970.918803037941,-0.005809798831875852
6970.919802809864,-0.005814175703023743
6970.920802581787,-0.00581796482588343
6970.92180235371,-0.005821168588213084
6970.922802125632,-0.0058237894206651444
6970.923801897555,-0.005825829791497745
6970.924801669478,-0.0058272922012578
6970.925801441401,-0.005828179177449573
6970.926801213323,-0.005828493269203115
6970.927800985246,-0.005828237041957353
6970.928800757169,-0.005827413072172968
6970.929800529091,-0.00582602394209038
6970.930800301015,-0.00582407223454826
6970.931800072937,-0.005821560527877936
6970.93279984486,-0.005818491390888948
6970.933799616782,-0.005814867377960766
6970.934799388705,-0.005810691024255414
6970.935799160628,-0.005805964841065434
6970.936798932551,-0.005800691311311125
6970.937798704474,-0.00579487288520058
6970.938798476396,-0.005788511976065499
6970.939798248319,-0.005781610956385202
6970.940798020241,-0.005774172154010626
6970.941797792165,-0.005766197848599332
6970.942797564087,-0.005757690268271816
6970.94379733601,-0.005748651586498494
6970.944797107933,-0.005739083919225874
6970.945796879855,-0.005728989322249416
6970.946796651779,-0.005718369788839596
6970.947796423701,-0.00570722724762662
6970.948796195624,-0.0056955635607481275
6970.949795967546,-0.0056833805222631295
6970.950795739469,-0.005670679856834244
6970.951795511392,-0.0056574632186791865
6970.952795283315,-0.005643732190791328
6970.953795055238,-0.0056294882844280195
6970.95479482716,-0.005614732938864346
6970.955794599083,-0.005599467521409007
6970.956794371006,-0.005583693327678114
6970.957794142929,-0.00556741158212194
6970.958793914851,-0.005550623438798905
6970.959793686774,-0.005533329982390523
6970.960793458697,-0.005515532229450459
6970.961793230619,-0.005497231129880429
6970.962793002543,-0.005478427568625273
6970.963792774465,-0.005459122367579234
6970.964792546388,-0.005439316287695266
6970.96579231831,-0.005419010031288998
6970.966792090233,-0.005398204244528877
6970.967791862156,-0.005376899520104011
6970.968791634079,-0.005355096400061189
6970.969791406002,-0.005332795378802677
6970.970791177924,-0.005309996906236448
6970.971790949847,-0.005286701391070758
6970.972790721769,-0.005262909204245098
6970.973790493693,-0.005238620682489782
6970.974790265615,-0.005213836132006612
6970.975790037538,-0.005188555832263243
6970.976789809461,-0.005162780039894042
6970.977789581383,-0.005136508992700405
6970.978789353307,-0.0051097429137436645
6970.979789125229,-0.0050824820155238705
6970.980788897152,-0.005054726504237885
6970.981788669074,-0.00502647658411035
6970.982788440997,-0.0049977324617912775
6970.98378821292,-0.004968494350814103
6970.984787984843,-0.004938762476108223
6970.985787756766,-0.004908537078560168
6970.986787528688,-0.004877818419617678
6970.987787300611,-0.004846606785931073
6970.988787072534,-0.004814902494026396
6970.989786844457,-0.004782705895004922
6970.990786616379,-0.004750017379263651
6970.991786388302,-0.00471683738123158
6970.992786160225,-0.004683166384116561
6970.993785932147,-0.004649004924657748
6970.994785704071,-0.004614353597878701
6970.995785475993,-0.004579213061836422
6970.996785247916,-0.0045435840423617
6970.997785019838,-0.00450746733778631
6970.998784791761,-0.004470863823652698
6970.999784563684,-0.004433774457401913
6971.000784335607,-0.004396200283035569
6971.00178410753,-0.004358142435747717
6971.002783879452,-0.004319602146522462
6971.003783651375,-0.004280580746693224
6971.004783423297,-0.004241079672459463
6971.005783195221,-0.004201100469356708
6971.006782967143,-0.004160644796675641
6971.007782739066,-0.004119714431826006
6971.008782510989,-0.004078311274641008
6971.009782282912,-0.004036437351617881
6971.010782054835,-0.003994094820090307
6971.011781826757,-0.003951285972328434
6971.01278159868,-0.00390801323956235
6971.013781370602,-0.003864279195925016
6971.014781142525,-0.0038200865623107877
6971.015780914448,-0.0037754382101458112
6971.016780686371,-0.0037303371650666928
6971.017780458294,-0.003684786610503964
6971.018780230216,-0.0036387898911669657
6971.019780002139,-0.0035923505164268824
6971.020779774062,-0.003545472163594757
6971.021779545985,-0.0034981586810913833
6971.022779317907,-0.0034504140915060256
6971.02377908983,-0.0034022425945409327
6971.024778861753,-0.003353648569838611
6971.025778633675,-0.0033046365796888084
6971.026778405599,-0.0032552113716121664
6971.027778177521,-0.0032053778808175124
6971.028777949444,-0.0031551412325298207
6971.029777721366,-0.003104506744185967
6971.030777493289,-0.00305347992749555
6971.031777265212,-0.003002066490364243
6971.032777037135,-0.0029502723386774
6971.033776809058,-0.00289810357794191
6971.03477658098,-0.002845566514784597
6971.035776352903,-0.0027926676583057363
6971.036776124825,-0.0027394137212865015
6971.037775896749,-0.002685811621249274
6971.038775668671,-0.0026318684813698544
6971.039775440594,-0.0025775916312405778
6971.040775212517,-0.0025229886074833057
6971.04177498444,-0.002468067154211182
6971.042774756363,-0.0024128352233379695
6971.043774528285,-0.002357300974733714
6971.044774300208,-0.002301472776225431
6971.04577407213,-0.0022453592034415016
6971.046773844053,-0.0021889690394984703
6971.047773615976,-0.0021323112745289794
6971.048773387899,-0.002075395105049655
6971.049773159822,-0.0020182299331678324
6971.050772931744,-0.001960825365626128
6971.051772703667,-0.0019031912126840009
6971.05277247559,-0.0018453374868356402
6971.053772247513,-0.0017872744013637993
6971.054772019435,-0.0017290123687295179
6971.055771791358,-0.0016705619987980851
6971.056771563281,-0.001611934096902018
6971.057771335203,-0.0015531396617422303
6971.058771107127,-0.0014941898831289237
6971.059770879049,-0.0014350961395640238
6971.060770650972,-0.001375869995667194
6971.061770422894,-0.0013165231994476205
6971.062770194818,-0.001257067679423903
6971.06376996674,-0.0011975155415944931
6971.064769738663,-0.001137879066261259
6971.065769510586,-0.0010781707047088768
6971.066769282508,-0.0010184030757429097
6971.067769054431,-0.000958588962089593
6971.068768826354,-0.0008987413066605547
6971.069768598277,-0.0008388732086859201
6971.070768370199,-0.00077899791971948
6971.071768142122,-0.0007191288395198098
6971.072767914045,-0.0006592795118113587
6971.073767685968,-0.0005994636199295628
6971.074767457891,-0.0005396949823539578
6971.075767229813,-0.00047998754813310284
6971.076767001736,-0.0004203553922049039
6971.077766773658,-0.0003608127106156643
6971.078766545581,-0.0003013738156409153
6971.079766317504,-0.00024205313081078413
6971.080766089427,-0.00018286518584235666
6971.08176586135,-0.00012382461148117792
6971.082765633272,-6.494613425372778e-05
6971.083765405195,-6.244571132414333e-06
6971.084765177118,5.2265175885644965e-05
6971.085764949041,0.00011056812528503421
6971.086764720963,0.00016864922162283574
6971.087764492886,0.00022649334120317533
6971.088764264809,0.00028408529783498275
6971.089764036731,0.00034140984867246887
6971.090763808655,0.00039845170013779157
6971.091763580577,0.00045519551392532085
6971.0927633525,0.0005116259130868467
6971.093763124422,0.0005677274881970208
6971.094762896346,0.0006234848035982935
6971.095762668268,0.0006788824037245978
6971.096762440191,0.0007339048195030268
6971.097762212114,0.00078853657483275
6971.098761984036,0.0008427621931403864
6971.099761755959,0.0008965662040109986
6971.100761527882,0.0009499331498937759
6971.101761299805,0.0010028475928813116
6971.102761071727,0.0010552941215611425
6971.10376084365,0.0011072573579378774
6971.104760615573,0.001158721964423803
6971.105760387496,0.0012096726508953044
6971.106760159419,0.0012600941818118182
6971.107759931341,0.0013099713833933776
6971.108759703264,0.0013592891508521715
6971.109759475186,0.0014080324556729337
6971.110759247109,0.0014561863529364443
6971.111759019032,0.0015037359886799276
6971.112758790955,0.0015506666072876742
6971.113758562878,0.00159696355890481
6971.1147583348,0.0016426123068668055
6971.115758106723,0.0016875984351370564
6971.116757878646,0.0017319076557447447
6971.117757650569,0.0017755258162151396
6971.118757422491,0.0018184389069845752
6971.119757194414,0.0018606330687925162
6971.120756966337,0.0019020946000433572
6971.121756738259,0.0019428099641309174
6971.122756510183,0.0019827657967189283
6971.123756282105,0.0020219489129711856
6971.124756054028,0.0020603463147253987
6971.12575582595,0.002097945197605124
6971.126755597874,0.002134732958064504
6971.127755369796,0.0021706972003608252
6971.128755141719,0.0022058257434501892
6971.129754913642,0.0022401066278018517
6971.130754685564,0.002273528122127029
6971.131754457487,0.0023060787300182156
6971.13275422941,0.002337747196495303
6971.133754001333,0.0023685225144549926
6971.134753773255,0.0023983939310202322
6971.135753545178,0.0024273509537865844
6971.136753317101,0.002455383356962639
6971.137753089024,0.0024824811874017416
6971.138752860947,0.002508634770522473
6971.139752632869,0.002533834716115436
6971.140752404792,0.002558071924034003
6971.141752176714,0.002581337589766757
6971.142751948637,0.0026036232098893886
6971.14375172056,0.002624920587393831
6971.144751492483,0.002645221836892391
6971.145751264406,0.0026645193896945515
6971.146751036328,0.0026828059987539913
6971.147750808252,0.002700074743483225
6971.148750580174,0.002716319034433118
6971.149750352097,0.002731532617834386
6971.150750124019,0.0027457095799980936
6971.151749895942,0.0027588443515721025
6971.152749667865,0.002770931711650379
6971.153749439788,0.002781966791732056
6971.154749211711,0.00279194507952716
6971.155748983633,0.0028008624226059436
6971.156748755556,0.002808715031888825
6971.157748527478,0.002815499484974005
6971.158748299402,0.0028212127292999143
6971.159748071324,0.002825852085139771
6971.160747843247,0.002829415248425605
6971.16174761517,0.0028319002933992667
6971.162747387092,0.002833305675088011
6971.163747159015,0.0028336302316023638
6971.164746930938,0.002832873186254066
6971.165746702861,0.0028310341494919692
6971.166746474783,0.0028281131206538347
6971.167746246706,0.002824110489532059
6971.168746018629,0.0028190270377514413
6971.169745790552,0.002812863939957195
6971.170745562475,0.002805622764811487
6971.171745334397,0.0027973054757969153
6971.17274510632,0.002787914431825437
6971.173744878242,0.002777452387651367
6971.174744650165,0.0027659224940871814
6971.175744422088,0.002753328298020951
6971.176744194011,0.0027396737422343185
6971.177743965934,0.0027249631650199907
6971.178743737856,0.002709201299597778
6971.17974350978,0.002692393273328265
6971.180743281702,0.0026745446067232446
6971.181743053625,0.002655661212252113
6971.182742825547,0.0026357493929434882
6971.18374259747,0.002614815840781409
6971.184742369393,0.0025928676348955927
6971.185742141316,0.002569912239545369
6971.186741913239,0.002545957501897084
6971.187741685161,0.0025210116495949938
6971.188741457084,0.002495083288125879
6971.189741229006,0.0024681813979778814
6971.19074100093,0.002440315331594272
6971.191740772852,0.002411494810123098
6971.192740544775,0.0023817299199638746
6971.193740316698,0.002351031109112727
6971.19474008862,0.0023194091833076648
6971.195739860543,0.0022868753019759627
6971.196739632466,0.0022534409739859663
6971.197739404389,0.0022191180532059934
6971.198739176311,0.0021839187338733705
6971.199738948234,0.0021478555457769832
6971.200738720157,0.002110941349257029
6971.20173849208,0.002073189330025903
6971.202738264003,0.002034612993814292
6971.203738035925,0.001995226160846655
6971.204737807848,0.0019550429601503227
6971.20573757977,0.0019140778237024965
6971.206737351694,0.001872345480419489
6971.207737123616,0.0018298609499926212
6971.208736895539,0.0017866395365752836
6971.209736667462,0.001742696822325757
6971.210736439384,0.0016980486608105182
6971.211736211308,0.0016527111702728723
6971.21273598323,0.0016067007267718705
6971.213735755153,0.0015600339571965975
6971.214735527075,0.0015127277321610058
6971.215735298998,0.001464799158784577
6971.216735070921,0.0014162655733641935
6971.217734842844,0.001367144533942716
6971.218734614767,0.0013174538127798737
6971.219734386689,0.001267211388731196
6971.220734158612,0.0012164354395408194
6971.221733930534,0.0011651443340540797
6971.222733702458,0.0011133566243558249
6971.22373347438,0.0010610910378403698
6971.224733246303,0.0010083664692189496
6971.225733018226,0.000955201972470454
6971.226732790148,0.00090161675274115
6971.227732562071,0.0008476301581990328
6971.228732333994,0.0007932616718483952
6971.229732105917,0.0007385309033101558
6971.230731877839,0.0006834575805734543
6971.231731649762,0.0006280615417239836
6971.2327314216855,0.0005723627266544776
6971.233731193608,0.0005163811687627339
6971.234730965531,0.00046013698664249425
6971.235730737453,0.00040365037577244753
6971.236730509376,0.00034694160020855367
6971.237730281298,0.0002900309842848148
6971.238730053222,0.00023293890432754118
6971.239729825144,0.000175685780388073
6971.240729597067,0.00011829206799882751
6971.24172936899,6.0778249957446966e-05
6971.242729140912,3.1648281437327084e-06
6971.243728912836,-5.4527684626041624e-05
6971.244728684758,-0.00011227877270293617
6971.245728456681,-0.0001700679256628651
6971.246728228603,-0.00022787464631352856
6971.247728000526,-0.00028567845864656104
6971.248727772449,-0.00034345891573081636
6971.249727544372,-0.0004011956075428244
6971.250727316295,-0.00045886816873057283
6971.251727088217,-0.0005164562863068816
6971.25272686014,-0.0005739397072687497
6971.253726632062,-0.0006312982461391603
6971.254726403986,-0.0006885117924279378
6971.255726175908,-0.0007455603180083525
6971.256725947831,-0.0008024238844062751
6971.257725719754,-0.0008590826499987805
6971.258725491676,-0.0009155168771192063
6971.259725263599,-0.0009717069390657713
6971.260725035522,-0.0010276333270109578
6971.261724807445,-0.001083276656808938
6971.262724579367,-0.0011386176756983991
6971.26372435129,-0.001193637268898176
6971.264724123213,-0.0012483164660931606
6971.265723895136,-0.0013026364478080383
6971.266723667059,-0.001356578551666527
6971.267723438981,-0.0014101242785339815
6971.268723210904,-0.001463255298541494
6971.269722982826,-0.001515953456989912
6971.27072275475,-0.0015682007801325005
6971.271722526672,-0.0016199794808352368
6971.272722298595,-0.0016712719641139495
6971.273722070518,-0.0017220608325476422
6971.27472184244,-0.0017723288915674456
6971.275721614364,-0.0018220591546206858
6971.276721386286,-0.0018712348482095695
6971.277721158209,-0.0019198394168039917
6971.278720930131,-0.0019678565276279856
6971.279720702054,-0.002015270075319346
6971.2807204739765,-0.0020620641864620066
6971.2817202459,-0.002108223223990799
6971.282720017823,-0.0021537317914682693
6971.283719789745,-0.0021985747372332705
6971.284719561668,-0.002242737158421082
6971.285719333591,-0.0022862044048547825
6971.286719105514,-0.002328962082807611
6971.287718877436,-0.0023709960586360277
6971.288718649359,-0.002412292462283187
6971.289718421282,-0.002452837690652555
6971.290718193204,-0.002492618410851446
6971.291717965128,-0.0025316215633043046
6971.29271773705,-0.0025698343647356163
6971.293717508973,-0.002607244311022399
6971.294717280895,-0.0026438391799162814
6971.295717052818,-0.0026796070336352457
6971.296716824741,-0.002714536221325218
6971.297716596664,-0.002748615381391766
6971.298716368587,-0.002781833443702284
6971.299716140509,-0.002814179631659149
6971.300715912432,-0.0028456434641444214
6971.301715684354,-0.0028762147573367603
6971.302715456278,-0.002905883626401297
6971.3037152282,-0.0029346404870532975
6971.304715000123,-0.002962476056996504
6971.305714772046,-0.0029893813572371346
6971.306714543968,-0.0030153477132745777
6971.307714315892,-0.0030403667561698937
6971.308714087814,-0.0030644304234933055
6971.309713859737,-0.0030875309601518888
6971.310713631659,-0.003109660919098723
6971.311713403582,-0.003130813161924777
6971.3127131755045,-0.0031509808593348084
6971.313712947428,-0.0031701574915085863
6971.314712719351,-0.003188336848348707
6971.315712491273,-0.0032055130296163178
6971.316712263196,-0.00322168044495602
6971.317712035119,-0.003236833813811248
6971.318711807042,-0.0032509681652313875
6971.319711578964,-0.0032640788375719034
6971.320711350887,-0.0032761614780887254
6971.32171112281,-0.003287212042428109
6971.322710894732,-0.00329722679401318
6971.323710666656,-0.0033062023033283254
6971.324710438578,-0.0033141354471025717
6971.325710210501,-0.0033210234073930613
6971.326709982423,-0.0033268636705697163
6971.327709754346,-0.0033316540262022195
6971.328709526269,-0.003335392565850454
6971.329709298192,-0.0033380776817596076
6971.330709070115,-0.003339708065461181
6971.331708842037,-0.003340282706281209
6971.33270861396,-0.0033398008897570315
6971.333708385882,-0.0033382621959640204
6971.334708157806,-0.003335666497753692
6971.335707929728,-0.0033320139589046805
6971.336707701651,-0.00332730503218807
6971.337707473574,-0.0033215404573486026
6971.338707245496,-0.003314721259003276
6971.33970701742,-0.003306848744458843
6971.340706789342,-0.0032979245014497283
6971.341706561265,-0.0032879503957978897
6971.342706333187,-0.003276928568996162
6971.34370610511,-0.0032648614357166424
6971.3447058770325,-0.0032517516812456976
6971.345705648956,-0.003237602258847184
6971.346705420879,-0.0032224163870555045
6971.347705192801,-0.0032061975469001454
6971.348704964724,-0.0031889494790633783
6971.349704736647,-0.0031706761809728325
6971.35070450857,-0.003151381903830699
6971.351704280492,-0.0031310711495813634
6971.352704052415,-0.003109748667819314
6971.353703824338,-0.003087419452639207
6971.35470359626,-0.0030640887394300016
6971.355703368184,-0.003039762001615089
6971.356703140106,-0.003014444947340345
6971.357702912029,-0.002988143516112023
6971.358702683951,-0.002960863875386409
6971.359702455874,-0.0029326124171131524
6971.360702227797,-0.002903395754234174
6971.36170199972,-0.0028732207171400493
6971.362701771643,-0.0028420943500857467
6971.363701543565,-0.002810023907567573
6971.364701315488,-0.0027770168506632
6971.36570108741,-0.002743080843336619
6971.366700859334,-0.0027082237487098676
6971.367700631256,-0.002672453625303363
6971.368700403179,-0.002635778723246674
6971.369700175102,-0.0025982074804615203
6971.370699947025,-0.0025597485188187884
6971.371699718948,-0.002520410640271339
6971.37269949087,-0.002480202822964374
6971.373699262793,-0.0024391342173251383
6971.374699034715,-0.0023972141421337244
6971.375698806638,-0.002354452080576775
6971.376698578561,-0.0023108576762858697
6971.377698350484,-0.0022664407293624014
6971.378698122407,-0.002221211192390728
6971.379697894329,-0.002175179166441392
6971.380697666252,-0.0021283548970661673
6971.381697438175,-0.002080748770286669
6971.382697210098,-0.002032371308578227
6971.38369698202,-0.001983233166850695
6971.384696753943,-0.0019333451284278436
6971.385696525866,-0.001882718101026962
6971.386696297788,-0.0018313631127402851
6971.387696069712,-0.001779291308019836
6971.388695841634,-0.0017265139436672833
6971.389695613557,-0.0016730423848303965
6971.390695385479,-0.001618888101007688
6971.391695157402,-0.001564062662062797
6971.392694929325,-0.0015085777342501517
6971.393694701248,-0.0014524450762533878
6971.394694473171,-0.0013956765352379423
6971.395694245093,-0.001338284042919199
6971.396694017016,-0.0012802796116475185
6971.397693788938,-0.0012216753305114574
6971.398693560862,-0.0011624833614604533
6971.399693332784,-0.0011027159354482288
6971.400693104707,-0.0010423853485981177
6971.40169287663,-0.000981503958391466
6971.402692648553,-0.0009200841798802091
6971.403692420476,-0.0008581384819246666
6971.404692192398,-0.0007956793834575552
6971.405691964321,-0.0007327194497751899
6971.406691736243,-0.000669271288856813
6971.407691508166,-0.0006053475477129742
6971.408691280089,-0.0005409609087638847
6971.409691052012,-0.0004761240862486799
6971.410690823935,-0.00041084982266654846
6971.411690595857,-0.000345150885250725
6971.41269036778,-0.0002790400624763797
6971.413690139703,-0.0002125301606034777
6971.414689911626,-0.00014563400025571104
6971.415689683548,-7.836441303662982e-05
6971.416689455471,-1.0734238184109438e-05
6971.417689227394,5.7243680735714306e-05
6971.418688999316,0.00012555649909392675
6971.41968877124,0.0001941913744226469
6971.420688543162,0.00026313546959612393
6971.421688315085,0.00033237595596811423
6971.422688087007,0.0004019000164645818
6971.423687858931,0.0004716948486308146
6971.424687630853,0.0005417476676321094
6971.425687402776,0.0006120457092072584
6971.426687174699,0.0006825762325741749
6971.427686946621,0.0007533265232871307
6971.428686718544,0.0008242838960452505
6971.429686490467,0.0008954356974521043
6971.43068626239,0.0009667693087264368
6971.431686034312,0.0010382721483642623
6971.432685806235,0.0011099316747527068
6971.433685578158,0.001181735388736097
6971.434685350081,0.0012536708361348702
6971.435685122004,0.0013257256102179008
6971.436684893926,0.001397887354128821
6971.437684665849,0.001470143763266845
6971.438684437771,0.0015424825876225036
6971.439684209694,0.0016148916340685987
6971.440683981617,0.001687358768606564
6971.44168375354,0.0017598719185683103
6971.442683525463,0.0018324190747735377
6971.443683297385,0.0019049882936424088
6971.444683069308,0.0019775676992633997
6971.445682841231,0.0020501454854160977
6971.446682613154,0.002122709917548698
6971.447682385076,0.0021952493347099453
6971.448682156999,0.002267752151435286
6971.449681928922,0.0023402068595870236
6971.450681700844,0.002412602030148314
6971.451681472768,0.0024849263149708707
6971.45268124469,0.0025571684484762833
6971.453681016613,0.002629317249310889
6971.454680788535,0.0027013616219541438
6971.455680560459,0.0027732905582804846
6971.456680332381,0.002845093139074682
6971.457680104304,0.0029167585355006757
6971.458679876227,0.0029882760105239027
6971.459679648149,0.003059634920287102
6971.460679420072,0.0031308247154395873
6971.461679191995,0.0032018349424199626
6971.462678963918,0.00327265524469226
6971.46367873584,0.0033432753639354765
6971.464678507763,0.0034136851411864805
6971.465678279686,0.0034838745179362756
6971.466678051609,0.0035538335371796074
6971.467677823532,0.0036235523444179494
6971.468677595454,0.003693021188615914
6971.469677367377,0.0037622304231111642
6971.470677139299,0.003831170506477918
6971.471676911222,0.003899832003344161
6971.472676683145,0.003968205585162691
6971.473676455068,0.004036282030936143
6971.474676226991,0.004104052227896168
6971.475675998913,0.004171507172136937
6971.476675770836,0.0042386379692031925
6971.477675542759,0.004305435834633049
6971.478675314682,0.004371892094455791
6971.479675086604,0.004437998185644904
6971.480674858527,0.004503745656526611
6971.48167463045,0.004569126167144143
6971.482674402372,0.004634131489578027
6971.483674174296,0.004698753508222627
6971.484673946218,0.0047629842200192195
6971.485673718141,0.004826815734645881
6971.486673490063,0.0048902402746645035
6971.487673261987,0.004953250175625271
6971.488673033909,0.005015837886128984
6971.489672805832,0.0050779959678476415
6971.490672577755,0.005139717095503757
6971.491672349677,0.005200994056808949
6971.4926721216,0.005261819752362399
6971.493671893523,0.005322187195509837
6971.494671665446,0.005382089512163748
6971.495671437368,0.005441519940585553
6971.496671209291,0.005500471831130553
6971.497670981214,0.005558938645956475
6971.498670753137,0.005616913958696495
6971.49967052506,0.005674391454097658
6971.500670296982,0.005731364927625686
6971.501670068905,0.005787828285037186
6971.502669840827,0.005843775541920329
6971.50366961275,0.005899200823205124
6971.504669384673,0.005954098362644431
6971.505669156596,0.006008462502266897
6971.506668928519,0.006062287691803059
6971.507668700441,0.00611556848808583
6971.508668472365,0.006168299554426704
6971.509668244287,0.006220475659968952
6971.51066801621,0.0062720916790192155
6971.511667788132,0.006323142590358847
6971.512667560055,0.0063736234765364285
6971.513667331978,0.006423529523142824
6971.514667103901,0.006472856018070185
6971.515666875824,0.006521598350756229
6971.516666647746,0.006569752011415093
6971.517666419669,0.006617312590256002
6971.518666191591,0.006664275776690878
6971.519665963515,0.006710637358531936
6971.520665735437,0.006756393221180209
6971.52166550736,0.006801539346805861
6971.522665279283,0.00684607181352106
6971.523665051205,0.006889986794546136
6971.524664823128,0.006933280557369665
6971.525664595051,0.006975949462903161
6971.526664366974,0.007017989964631024
6971.527664138896,0.007059398607756399
6971.528663910819,0.00710017202834363
6971.529663682742,0.007140306952457998
6971.530663454665,0.007179800195303398
6971.531663226588,0.007218648660358608
6971.53266299851,0.0072568493385127214
6971.533662770433,0.0072943993072002375
6971.534662542355,0.007331295729536255
6971.535662314278,0.007367535853452167
6971.536662086201,0.007403117010832216
6971.537661858124,0.0074380366166512685
6971.538661630047,0.007472292168114179
6971.539661401969,0.007505881243797053
6971.540661173893,0.007538801502790763
6971.541660945815,0.007571050683847041
6971.542660717738,0.007602626604527414
6971.54366048966,0.007633527160355295
6971.544660261583,0.007663750323971459
6971.545660033506,0.007693294144293139
6971.546659805429,0.0077221567456770114
6971.547659577352,0.007750336327086302
6971.548659349274,0.007777831161262327
6971.549659121197,0.007804639593900792
6971.550658893119,0.007830760042833246
6971.551658665043,0.007856190997214131
6971.552658436965,0.00788093101671385
6971.553658208888,0.00790497873071836
6971.554657980811,0.007928332837535737
6971.555657752733,0.007950992103610135
6971.556657524656,0.00797295536274361
6971.557657296579,0.007994221515326116
6971.558657068502,0.008014789527574034
6971.559656840424,0.008034658430777518
6971.560656612347,0.008053827320556936
6971.56165638427,0.008072295356128602
6971.562656156193,0.008090061759579967
6971.563655928116,0.008107125815154432
6971.564655700038,0.008123486868545828
6971.565655471961,0.008139144326202682
6971.566655243883,0.008154097654642256
6971.567655015807,0.008168346379774406
6971.568654787729,0.00818189008623523
6971.569654559652,0.008194728416730468
6971.570654331575,0.008206861071388589
6971.571654103497,0.008218287807123458
6971.572653875421,0.008229008437006498
6971.573653647343,0.0082390228296482
6971.574653419266,0.008248330908588859
6971.575653191188,0.008256932651698409
6971.576652963111,0.00826482809058519
6971.577652735034,0.008272017310013507
6971.578652506957,0.008278500447329754
6971.57965227888,0.008284277691896845
6971.580652050802,0.008289349284536647
6971.581651822725,0.008293715516980067
6971.582651594647,0.008297376731324456
6971.583651366571,0.008300333319497992
6971.584651138493,0.008302585722730675
6971.585650910416,0.008304134431031687
6971.586650682339,0.008304979982672817
6971.587650454261,0.008305122963677743
6971.588650226184,0.008304564007317024
6971.589649998107,0.008303303793608606
6971.59064977003,0.008301343048823746
6971.591649541952,0.008298682544998265
6971.592649313875,0.008295323099449093
6971.593649085799,0.008291265574296151
6971.594648857721,0.00828651087598964
6971.595648629644,0.00828105995484287
6971.596648401566,0.008274913804570821
6971.597648173489,0.00826807346183469
6971.598647945411,0.008260540005792667
6971.599647717335,0.008252314557657318
6971.600647489257,0.008243398280259898
6971.60164726118,0.008233792377622012
6971.602647033103,0.008223498094535044
6971.603646805025,0.008212516716147812
6971.604646576949,0.008200849567562927
6971.605646348871,0.008188498013442335
6971.606646120794,0.008175463457622633
6971.607645892716,0.00816174734274065
6971.608645664639,0.008147351149869893
6971.609645436562,0.008132276398168468
6971.610645208485,0.008116524644539094
6971.611644980408,0.008100097483301844
6971.61264475233,0.008082996545880312
6971.613644524253,0.00806522350050191
6971.614644296175,0.008046780051913055
6971.615644068099,0.008027667941110027
6971.616643840021,0.008007888945086314
6971.617643611944,0.007987444876597275
6971.618643383867,0.007966337583942993
6971.619643155789,0.007944568950770205
6971.620642927712,0.00792214089589428
6971.621642699635,0.007899055373142184
6971.622642471558,0.007875314371217383
6971.62364224348,0.007850919913587601
6971.624642015403,0.007825874058396328
6971.625641787327,0.007800178898398893
6971.626641559249,0.007773836560923898
6971.627641331172,0.007746849207860743
6971.628641103094,0.007719219035673942
6971.629640875017,0.007690948275444864
6971.630640646939,0.007662039192941478
6971.631640418863,0.007632494088716669
6971.632640190785,0.0076023152982355995
6971.633639962708,0.007571505192032554
6971.634639734631,0.0075400661758977
6971.635639506553,0.007508000691094165
6971.636639278477,0.0074753112146058115
6971.637639050399,0.007442000259416052
6971.638638822322,0.007408070374818102
6971.639638594244,0.007373524146757025
6971.640638366167,0.007338364198203959
6971.64163813809,0.007302593189562875
6971.642637910013,0.007266213819110243
6971.643637681936,0.007229228823467906
6971.644637453858,0.007191640978109442
6971.645637225781,0.007153453097900247
6971.646636997704,0.007114668037671503
6971.647636769627,0.007075288692828191
6971.648636541549,0.007035317999991232
6971.649636313472,0.006994758937673862
6971.650636085395,0.006953614526992281
6971.651635857317,0.006911887832410607
6971.652635629241,0.0068695819625201075
6971.653635401163,0.006826700070852618
6971.654635173086,0.006783245356727979
6971.655634945008,0.006739221066135217
6971.656634716931,0.006694630492647035
6971.657634488855,0.006649476978367072
6971.658634260777,0.006603763914909226
6971.6596340327,0.006557494744408169
6971.660633804622,0.006510672960560113
6971.661633576545,0.0064633021096926575
6971.662633348467,0.006415385791862483
6971.663633120391,0.00636692766197947
6971.664632892313,0.006317931430955696
6971.665632664236,0.006268400866877618
6971.666632436159,0.006218339796199643
6971.667632208081,0.00616775210495715
6971.668631980005,0.006116641739996901
6971.669631751927,0.006065012710222732
6971.67063152385,0.006012869087854276
6971.671631295772,0.005960215009696413
6971.672631067695,0.005907054678417036
6971.6736308396175,0.005853392363830575
6971.674630611541,0.005799232404184671
6971.675630383464,0.005744579207447217
6971.676630155386,0.005689437252590887
6971.677629927309,0.005633811090872177
6971.678629699232,0.005577705347101876
6971.679629471155,0.005521124720903847
6971.680629243077,0.005464073987958909
6971.681629015,0.0054065580012307105
6971.682628786923,0.005348581692170443
6971.683628558845,0.0052901500718973895
6971.684628330769,0.005231268232352358
6971.685628102691,0.005171941347421126
6971.686627874614,0.005112174674025125
6971.687627646536,0.005051973553176641
6971.688627418459,0.004991343410995889
6971.689627190382,0.004930289759687355
6971.690626962305,0.0048688181984728705
6971.691626734228,0.004806934414478917
6971.69262650615,0.004744644183575727
6971.693626278073,0.004681953371165793
6971.694626049995,0.004618867932919469
6971.695625821919,0.004555393915455363
6971.696625593841,0.0044915374569633034
6971.697625365764,0.004427304787767669
6971.698625137687,0.004362702230828968
6971.699624909609,0.004297736202181622
6971.700624681533,0.004232413211305964
6971.701624453455,0.004166739861432589
6971.702624225378,0.004100722849777263
6971.7036239973,0.004034368967704658
6971.704623769223,0.003967685100819234
6971.7056235411455,0.0039006782289815875
6971.706623313069,0.0038333554262486203
6971.707623084992,0.003765723860735906
6971.708622856914,0.0036977907944006237
6971.709622628837,0.00362956358274348
6971.71062240076,0.0035610496744280656
6971.711622172683,0.0034922566108161373
6971.712621944605,0.0034231920254173347
6971.713621716528,0.0033538636432519186
6971.714621488451,0.0032842792801251416
6971.715621260373,0.0032144468418119137
6971.716621032297,0.003144374323150512
6971.717620804219,0.0030740698070441446
6971.718620576142,0.0030035414633692976
6971.719620348064,0.0029327975477899254
6971.720620119987,0.0028618464004766886
6971.72161989191,0.002790696444730639
6971.722619663833,0.002719356185510946
6971.723619435756,0.002647834207866459
6971.724619207678,0.0025761391752711126
6971.725618979601,0.0025042798278633884
6971.726618751523,0.0024322649805902335
6971.727618523447,0.0023601035212560332
6971.728618295369,0.0022878044084774
6971.729618067292,0.0022153766695447146
6971.730617839215,0.002142829398191483
6971.731617611138,0.002070171752272722
6971.732617383061,0.001997412951353678
6971.733617154983,0.0019245622742102937
6971.734616926906,0.001851629056242895
6971.735616698828,0.0017786226868046415
6971.736616470751,0.0017055526064463106
6971.737616242674,0.0016324283040789977
6971.738616014597,0.0015592593140563134
6971.73961578652,0.001486055213177636
6971.740615558442,0.0014128256176139525
6971.741615330365,0.0013395801797578062
6971.742615102288,0.0012663285849988544
6971.743614874211,0.0011930805484265305
6971.744614646133,0.0011198458114612957
6971.745614418056,0.0010466341384159552
6971.746614189979,0.0009734553129885067
6971.747613961901,0.000900319134687988
6971.748613733825,0.0008272354151948093
6971.749613505747,0.0007542139746571049
6971.75061327767,0.0006812646379247274
6971.751613049592,0.0006083972307226236
6971.752612821515,0.0005356215757654756
6971.753612593438,0.0004629474888156306
6971.754612365361,0.00039038477468649293
6971.755612137284,0.00031794322319369633
6971.756611909206,0.0002456326050565303
6971.757611681129,0.00017346266775224674
6971.758611453051,0.00010144313132603065
6971.759611224975,2.9583684159564194e-05
6971.760610996897,-4.210602129876079e-05
6971.76161076882,-0.00011361637283881545
6971.762610540743,-0.00018493780282562345
6971.763610312666,-0.00025606079256478833
6971.764610084589,-0.0003269758766929505
6971.765609856511,-0.00039767364758961976
6971.766609628434,-0.00046814475980657734
6971.767609400356,-0.0005383799345109023
6971.768609172279,-0.000608369963937564
6971.769608944202,-0.0006781057158474458
6971.770608716125,-0.0007475781379866229
6971.771608488048,-0.0008167782625427019
6971.77260825997,-0.000885697210594022
6971.773608031893,-0.0009543261965475164
6971.774607803816,-0.0010226565325610025
6971.775607575739,-0.001090679632945645
6971.776607347661,-0.001158387018544287
6971.777607119584,-0.0012257703210812874
6971.778606891507,-0.001292821287479413
6971.779606663429,-0.0013595317841392396
6971.780606435353,-0.001425893801176375
6971.781606207275,-0.0014918994566117138
6971.782605979198,-0.0015575410005097988
6971.78360575112,-0.0016228108190602451
6971.784605523044,-0.001687701438597069
6971.785605294966,-0.0017522055295506255
6971.786605066889,-0.0018163159103267374
6971.787604838812,-0.0018800255511074713
6971.788604610734,-0.0019433275775678958
6971.789604382657,-0.002006215274503055
6971.79060415458,-0.002068682089359305
6971.791603926503,-0.002130721635664092
6971.792603698425,-0.002192327696348205
6971.793603470348,-0.002253494226954521
6971.794603242271,-0.0023142153587272156
6971.795603014194,-0.002374485401575364
6971.796602786117,-0.0024342988469048354
6971.797602558039,-0.0024936503703123056
6971.798602329962,-0.0025525348341351546
6971.799602101884,-0.0026109472898509724
6971.800601873807,-0.0026688829803203354
6971.80160164573,-0.002726337341866514
6971.802601417653,-0.0027833060061857894
6971.803601189576,-0.0028397848020821114
6971.804600961498,-0.0028957697570199423
6971.805600733421,-0.002951257098489301
6971.806600505344,-0.003006243255177223
6971.807600277267,-0.003060724857940117
6971.808600049189,-0.0031146987405718
6971.809599821112,-0.003168161940362321
6971.810599593035,-0.003221111698443025
6971.811599364957,-0.003273545459913693
6971.812599136881,-0.0033254608737479673
6971.813598908803,-0.003376855792473618
6971.814598680726,-0.0034277282716245893
6971.815598452648,-0.0034780765689620668
6971.816598224572,-0.0035278991434621806
6971.817597996494,-0.003577194654068293
6971.818597768417,-0.003625961958206238
6971.81959754034,-0.0036742001100612937
6971.820597312262,-0.0037219083586161514
6971.821597084185,-0.0037690861454496285
6971.822596856108,-0.003815733102296456
6971.823596628031,-0.0038618490483690593
6971.824596399953,-0.003907433987442892
6971.825596171876,-0.0039524881047075305
6971.826595943799,-0.003997011763386411
6971.827595715722,-0.004041005501128789
6971.828595487645,-0.004084470026178186
6971.829595259567,-0.004127406213322399
6971.83059503149,-0.004169815099630883
6971.831594803412,-0.004211697879986192
6971.832594575335,-0.004253055902416951
6971.833594347258,-0.004293890663240676
6971.834594119181,-0.004334203802025619
6971.835593891104,-0.0043739970963816155
6971.836593663026,-0.00441327245659081
6971.837593434949,-0.004452031920090007
6971.838593206872,-0.004490277645817288
6971.839592978795,-0.004528011908436397
6971.840592750717,-0.004565237092453266
6971.84159252264,-0.004601955686239791
6971.842592294563,-0.004638170275980602
6971.843592066485,-0.004673883539559072
6971.844591838409,-0.0047090982403991495
6971.845591610331,-0.004743817221279828
6971.846591382254,-0.0047780433981392135
6971.847591154176,-0.004811779753885224
6971.8485909261,-0.004845029332229962
6971.849590698022,-0.00487779523156479
6971.850590469945,-0.004910080598892976
6971.851590241868,-0.004941888623836608
6971.85259001379,-0.004973222532734111
6971.853589785713,-0.005004085582844271
6971.854589557636,-0.005034481056672138
6971.855589329559,-0.005064412256431499
6971.856589101481,-0.005093882498657853
6971.857588873404,-0.005122895108984918
6971.858588645327,-0.005151453417096817
6971.85958841725,-0.005179560751867049
6971.860588189173,-0.00520722043669434
6971.861587961095,-0.005234435785044365
6971.862587733018,-0.005261210096205256
6971.86358750494,-0.005287546651263631
6971.864587276863,-0.005313448709306789
6971.865587048786,-0.005338919503855528
6971.866586820709,-0.005363962239530914
6971.867586592632,-0.0053885800889571685
6971.868586364554,-0.005412776189901731
6971.869586136478,-0.005436553642652457
6971.8705859084,-0.005459915507630891
6971.871585680323,-0.0054828648032396185
6971.872585452245,-0.005505404503940795
6971.873585224168,-0.0055275375385622
6971.874584996091,-0.0055492667888264
6971.875584768014,-0.005570595088097971
6971.876584539937,-0.005591525220343188
6971.877584311859,-0.005612059919296031
6971.878584083782,-0.00563220186782395
6971.879583855704,-0.005651953697486466
6971.880583627628,-0.005671317988279373
6971.88158339955,-0.005690297268557108
6971.882583171473,-0.005708894015125701
6971.883582943396,-0.00572711065349864
6971.884582715318,-0.005744949558308007
6971.885582487241,-0.005762413053863238
6971.886582259164,-0.00577950341485002
6971.887582031087,-0.0057962228671619275
6971.888581803009,-0.005812573588857557
6971.889581574932,-0.005828557711236088
6971.890581346855,-0.005844177320024392
6971.891581118778,-0.005859434456668974
6971.892580890701,-0.005874331119726259
6971.893580662623,-0.0058888692663449215
6971.894580434546,-0.005903050813834133
6971.895580206468,-0.005916877641311801
6971.896579978391,-0.005930351591426959
6971.897579750314,-0.00594347447215068
6971.898579522237,-0.005956248058630017
6971.89957929416,-0.0059686740950996835
6971.900579066082,-0.005980754296846367
6971.901578838006,-0.00599249035222077
6971.902578609928,-0.006003883924692663
6971.903578381851,-0.006014936654944417
6971.904578153773,-0.006025650162998637
6971.905577925696,-0.006036026050375694
6971.906577697619,-0.0060460659022770705
6971.907577469542,-0.006055771289790594
6971.908577241465,-0.006065143772113762
6971.909577013387,-0.006074184898791502
6971.91057678531,-0.006082896211964788
6971.911576557232,-0.006091279248626657
6971.912576329156,-0.006099335542882228
6971.913576101078,-0.006107066628209395
6971.914575873001,-0.006114474039716978
6971.915575644924,-0.006121559316397189
6971.916575416846,-0.006128324003369375
6971.917575188769,-0.006134769654112165
6971.918574960692,-0.006140897832681271
6971.919574732615,-0.006146710115910323
6971.920574504537,-0.006152208095592216
6971.92157427646,-0.006157393380638679
6971.922574048383,-0.006162267599215813
6971.923573820306,-0.0061668324008535514
6971.924573592229,-0.006171089458527135
6971.925573364151,-0.006175040470708814
6971.926573136074,-0.006178687163388093
6971.927572907996,-0.006182031292058967
6971.92857267992,-0.006185074643672703
6971.929572451842,-0.00618781903855485
6971.930572223765,-0.006190266332285167
6971.931571995688,-0.00619241841753931
6971.93257176761,-0.0061942772258911285
6971.933571539534,-0.006195844729574474
6971.934571311456,-0.006197122943203502
6971.935571083379,-0.006198113925450442
6971.936570855301,-0.006198819780679866
6971.937570627224,-0.006199242660538498
6971.938570399147,-0.006199384765499688
6971.93957017107,-0.006199248346361659
6971.940569942993,-0.006198835705698784
6971.941569714915,-0.006198149199265167
6971.942569486838,-0.006197191237349879
6971.94356925876,-0.0061959642860832135
6971.944569030684,-0.006194470868693358
6971.945568802606,-0.006192713566712868
6971.946568574529,-0.006190695021134337
6971.947568346452,-0.00618841793351464
6971.948568118374,-0.006185885067027162
6971.949567890297,-0.0061830992474614255
6971.95056766222,-0.0061800633641695205
6971.951567434143,-0.006176780370958791
6971.952567206065,-0.006173253286930128
6971.953566977988,-0.006169485197261257
6971.954566749912,-0.006165479253934293
6971.955566521834,-0.006161238676406787
6971.956566293757,-0.006156766752225449
6971.957566065679,-0.006152066837581665
6971.958565837602,-0.006147142357807948
6971.959565609524,-0.006141996807814482
6971.960565381448,-0.0061366337524650025
6971.96156515337,-0.006131056826891311
6971.962564925293,-0.006125269736745851
6971.963564697216,-0.006119276258391856
6971.964564469138,-0.006113080239030702
6971.965564241062,-0.006106685596766144
6971.966564012984,-0.0061000963206051945
6971.967563784907,-0.006093316470395376
6971.968563556829,-0.006086350176698108
6971.969563328752,-0.006079201640597977
6971.970563100675,-0.006071875133447658
6971.971562872598,-0.00606437499654831
6971.972562644521,-0.006056705640765279
6971.973562416443,-0.006048871546079063
6971.974562188366,-0.00604087726107151
6971.975561960288,-0.006032727402347372
6971.976561732212,-0.006024426653891369
6971.977561504134,-0.006015979766361072
6971.978561276057,-0.00600739155631598
6971.97956104798,-0.005998666905383231
6971.980560819902,-0.005989810759360455
6971.981560591825,-0.005980828127256249
6971.982560363748,-0.0059717240802687425
6971.983560135671,-0.005962503750702646
6971.984559907593,-0.005953172330825143
6971.985559679516,-0.0059437350716609
6971.98655945144,-0.005934197281726474
6971.987559223362,-0.005924564325704402
6971.988558995285,-0.005914841623057333
6971.989558767207,-0.005905034646582617
6971.99055853913,-0.005895148920907885
6971.991558311052,-0.005885190020928265
6971.992558082976,-0.005875163570186016
6971.993557854898,-0.005865075239193467
6971.994557626821,-0.005854930743700255
6971.995557398744,-0.005844735842905862
6971.996557170666,-0.005834496337618492
6971.99755694259,-0.0058242180683613
6971.998556714512,-0.005813906913426894
6971.999556486435,-0.005803568786881023
6972.000556258357,-0.005793209636516281
6972.00155603028,-0.0057828354417565585
6972.002555802203,-0.005772452211512911
6972.003555574126,-0.00576206598199145
6972.004555346049,-0.005751682814453808
6972.005555117971,-0.005741308792930748
6972.006554889894,-0.005730950021889488
6972.007554661817,-0.005720612623855351
6972.00855443374,-0.005710302736988385
6972.009554205662,-0.005700026512615679
6972.010553977585,-0.005689790112720132
6972.011553749508,-0.005679599707386543
6972.01255352143,-0.00566946147220597
6972.013553293354,-0.005659381585639403
6972.014553065276,-0.0056493662263418665
6972.015552837199,-0.00563942157044811
6972.016552609121,-0.005629553788821078
6972.017552381044,-0.005619769044264295
6972.018552152968,-0.005610073488699233
6972.01955192489,-0.005600473260308601
6972.020551696813,-0.005590974480646405
6972.021551468735,-0.00558158325171546
6972.022551240658,-0.005572305653012918
6972.02355101258,-0.0055631477385442996
6972.024550784504,-0.005554115533806426
6972.025550556426,-0.005545215032739571
6972.026550328349,-0.005536452194649194
6972.027550100272,-0.005527832941097618
6972.028549872194,-0.0055193631527660466
6972.029549644118,-0.00551104866628747
6972.03054941604,-0.00550289527105108
6972.031549187963,-0.005494908705978998
6972.032548959885,-0.0054870946562762795
6972.033548731808,-0.005479458750155335
6972.034548503731,-0.0054720065555361
6972.035548275654,-0.0054647435767234
6972.036548047577,-0.005457675251063135
6972.037547819499,-0.005450806945579045
6972.038547591422,-0.005444143953591917
6972.039547363345,-0.005437691491323234
6972.040547135268,-0.0054314546944853595
6972.04154690719,-0.005425438614860413
6972.042546679113,-0.005419648216870081
6972.043546451036,-0.005414088374138614
6972.044546222958,-0.005408763866051345
6972.045545994882,-0.005403679374311011
6972.046545766804,-0.005398839479494198
6972.047545538727,-0.005394248657610145
6972.048545310649,-0.005389911276664117
6972.049545082572,-0.005385831593227404
6972.050544854496,-0.005382013749015918
6972.051544626418,-0.005378461767479173
6972.052544398341,-0.005375179550401316
6972.053544170263,-0.005372170874515743
6972.054543942186,-0.005369439388134765
6972.055543714108,-0.0053669886077957136
6972.056543486032,-0.005364821914924865
6972.057543257954,-0.005362942552520592
6972.058543029877,-0.005361353621857111
6972.0595428018,-0.00536005807921021
6972.060542573722,-0.00535905873260633
6972.061542345646,-0.005358358238596403
6972.062542117568,-0.0053579590990558675
6972.063541889491,-0.005357863658012409
6972.064541661413,-0.005358074098503044
6972.065541433336,-0.005358592439462322
6972.0665412052585,-0.005359420532643522
6972.067540977182,-0.005360560059574843
6972.068540749105,-0.005362012528552745
6972.069540521027,-0.0053637792716747035
6972.07054029295,-0.005365861441913759
6972.071540064873,-0.005368260010237422
6972.072539836796,-0.005370975762773568
6972.073539608718,-0.005374009298026087
6972.074539380641,-0.005377361024143098
6972.075539152564,-0.0053810311562405705
6972.076538924486,-0.005385019713784176
6972.07753869641,-0.005389326518032155
6972.078538468332,-0.005393951189541996
6972.079538240255,-0.0053988931457436455
6972.080538012177,-0.0054041515985820245
6972.0815377841,-0.005409725552231623
6972.082537556023,-0.005415613800886004
6972.083537327946,-0.005421814926625088
6972.084537099869,-0.0054283272973632245
6972.085536871791,-0.005435149064881101
6972.086536643714,-0.005442278162944668
6972.087536415636,-0.005449712305514381
6972.08853618756,-0.0054574489850481595
6972.089535959482,-0.00546548547090162
6972.090535731405,-0.00547381880782926
6972.091535503328,-0.0054824458145904765
6972.092535275251,-0.005491363082664503
6972.093535047174,-0.005500566975078555
6972.094534819096,-0.0055100536253535875
6972.095534591019,-0.0055198189365721064
6972.096534362941,-0.005529858580572385
6972.097534134864,-0.005540167997273136
6972.098533906787,-0.005550742394132372
6972.09953367871,-0.005561576745743754
6972.100533450633,-0.005572665793573309
6972.101533222555,-0.00558400404583896
6972.102532994478,-0.005595585777534937
6972.103532766401,-0.005607405030602667
6972.104532538324,-0.0056194556142493855
6972.105532310246,-0.005631731105415165
6972.106532082169,-0.005644224849388675
6972.107531854092,-0.005656929960571515
6972.108531626014,-0.005669839323390714
6972.109531397938,-0.0056829455933586955
6972.11053116986,-0.005696241198279983
6972.111530941783,-0.0057097183396038476
6972.112530713705,-0.00572336899392224
6972.113530485628,-0.005737184914612415
6972.114530257551,-0.005751157633623725
6972.115530029474,-0.005765278463408107
6972.116529801397,-0.005779538498993644
6972.117529573319,-0.005793928620200466
6972.118529345242,-0.005808439493997956
6972.119529117164,-0.005823061577002023
6972.120528889088,-0.005837785118110837
6972.12152866101,-0.005852600161277196
6972.122528432933,-0.005867496548415441
6972.123528204856,-0.005882463922440666
6972.124527976779,-0.005897491730437809
6972.125527748702,-0.005912569226958174
6972.126527520624,-0.005927685477440847
6972.127527292547,-0.005942829361756542
6972.128527064469,-0.005957989577871422
6972.129526836392,-0.005973154645628532
6972.130526608315,-0.005988312910644572
6972.131526380238,-0.006003452548319746
6972.132526152161,-0.006018561567958445
6972.133525924083,-0.006033627816998464
6972.134525696006,-0.006048638985346363
6972.135525467929,-0.006063582609816525
6972.136525239852,-0.006078446078671337
6972.137525011774,-0.00609321663625979
6972.138524783697,-0.006107881387751693
6972.13952455562,-0.006122427303964593
6972.140524327542,-0.006136841226280376
6972.141524099466,-0.006151109871648535
6972.142523871388,-0.006165219837673093
6972.143523643311,-0.006179157607780264
6972.144523415233,-0.00619290955646404
6972.145523187157,-0.0062064619546069975
6972.146522959079,-0.006219800974873659
6972.147522731002,-0.006232912697173762
6972.148522502925,-0.00624578311419276
6972.149522274847,-0.006258398136986874
6972.15052204677,-0.006270743600639922
6972.151521818693,-0.0062828052699791855
6972.152521590616,-0.006294568845347508
6972.153521362538,-0.0063060199684288444
6972.154521134461,-0.006317144228124543
6972.155520906384,-0.006327927166477666
6972.156520678307,-0.006338354284642794
6972.15752045023,-0.006348411048898758
6972.158520222152,-0.00635808289670184
6972.159519994075,-0.006367355242776928
6972.160519765997,-0.006376213485244145
6972.16151953792,-0.00638464301177837
6972.162519309843,-0.006392629205799104
6972.163519081766,-0.006400157452688037
6972.164518853689,-0.0064072131460317025
6972.165518625611,-0.00641378169388654
6972.166518397534,-0.006419848525063682
6972.167518169457,-0.0064253990954307744
6972.16851794138,-0.006430418894228071
6972.169517713302,-0.00643489345039607
6972.170517485225,-0.006438808338911871
6972.171517257148,-0.006442149187131437
6972.17251702907,-0.006444901681134923
6972.173516800994,-0.006447051572072208
6972.174516572916,-0.006448584682505783
6972.175516344839,-0.006449486912748062
6972.176516116761,-0.0064497442471901515
6972.177515888685,-0.006449342760618986
6972.178515660607,-0.006448268624519582
6972.17951543253,-0.006446508113359014
6972.180515204453,-0.006444047610848554
6972.181514976375,-0.006440873616180265
6972.182514748298,-0.006436972750234263
6972.183514520221,-0.006432331761752774
6972.184514292144,-0.006426937533477198
6972.185514064066,-0.006420777088244344
6972.186513835989,-0.00641383759503806
6972.187513607912,-0.006406106374992428
6972.188513379835,-0.006397570907342684
6972.189513151758,-0.0063882188353199245
6972.19051292368,-0.006378037971985631
6972.191512695603,-0.006367016306002016
6972.192512467525,-0.006355142007334214
6972.193512239448,-0.006342403432880468
6972.194512011371,-0.006328789132026592
6972.195511783294,-0.006314287852121246
6972.196511555217,-0.006298888543868869
6972.197511327139,-0.006282580366637389
6972.198511099062,-0.006265352693678124
6972.199510870985,-0.00624719511725559
6972.200510642908,-0.006228097453685149
6972.20151041483,-0.0062080497482765945
6972.202510186753,-0.00618704228018191
6972.203509958676,-0.006165065567145384
6972.204509730598,-0.006142110370154332
6972.205509502522,-0.006118167697988623
6972.206509274444,-0.00609322881166727
6972.207509046367,-0.006067285228790348
6972.208508818289,-0.006040328727774665
6972.209508590213,-0.006012351351981705
6972.210508362135,-0.00598334541373649
6972.211508134058,-0.005953303498236104
6972.212507905981,-0.005922218467346651
6972.213507677903,-0.005890083463287427
6972.214507449826,-0.0058568919122011275
6972.215507221749,-0.0058226375276088935
6972.216506993672,-0.005787314313749089
6972.217506765594,-0.005750916568798797
6972.218506537517,-0.00571343888797713
6972.21950630944,-0.005674876166529551
6972.220506081363,-0.005635223602592517
6972.221505853286,-0.005594476699937776
6972.222505625208,-0.005552631270595723
6972.223505397131,-0.005509683437357142
6972.224505169053,-0.00546562963615267
6972.225504940976,-0.005420466618309188
6972.226504712899,-0.005374191452682344
6972.227504484822,-0.005326801527664245
6972.228504256745,-0.005278294553065367
6972.229504028667,-0.005228668561869723
6972.230503800591,-0.005177921911862313
6972.231503572513,-0.005126053287128055
6972.232503344436,-0.005073061699421536
6972.233503116358,-0.005018946489407182
6972.234502888281,-0.004963707327769724
6972.235502660204,-0.004907344216195124
6972.236502432127,-0.004849857488222438
6972.23750220405,-0.004791247809967282
6972.238501975972,-0.004731516180717754
6972.239501747895,-0.004670663933403684
6972.240501519817,-0.0046086927349400396
6972.241501291741,-0.004545604586445237
6972.242501063663,-0.004481401823334987
6972.243500835586,-0.004416087115292231
6972.244500607509,-0.004349663466113646
6972.245500379431,-0.0042821342134331695
6972.246500151354,-0.004213503028322876
6972.247499923277,-0.004143773914771486
6972.2484996952,-0.004072951209040699
6972.249499467122,-0.004001039578899452
6972.250499239045,-0.0039280440227362125
6972.251499010968,-0.003853969868549421
6972.252498782891,-0.003778822772816328
6972.253498554814,-0.003702608719240626
6972.254498326736,-0.003625334017379481
6972.255498098659,-0.003547005301150802
6972.256497870581,-0.003467629527221716
6972.257497642504,-0.003387213973279362
6972.258497414427,-0.0033057662361851256
6972.25949718635,-0.003223294230013419
6972.260496958273,-0.003139806183976066
6972.261496730195,-0.003055310640233266
6972.262496502119,-0.0029698164515921223
6972.263496274041,-0.002883332779093701
6972.264496045964,-0.0027958690894896924
6972.265495817886,-0.0027074351526098044
6972.266495589809,-0.0026180410386211564
6972.267495361732,-0.0025276971151810576
6972.268495133655,-0.0024364140444846603
6972.269494905578,-0.0023442027802090693
6972.2704946775,-0.0022510745643554955
6972.271494449423,-0.0021570409239910337
6972.272494221345,-0.0020621136678916426
6972.273493993269,-0.0019663048830879143
6972.274493765191,-0.0018696269313152318
6972.275493537114,-0.0017720924453699604
6972.276493309037,-0.0016737143253734033
6972.277493080959,-0.0015745057349453896
6972.278492852882,-0.0014744800972895458
6972.279492624805,-0.0013736510911925204
6972.280492396728,-0.0012720326469396596
6972.28149216865,-0.0011696389421498548
6972.282491940573,-0.0010664843975324804
6972.2834917124965,-0.0009625836725694648
6972.284491484419,-0.0008579516611255975
6972.285491256342,-0.0007526034869901371
6972.286491028264,-0.0006465544993526572
6972.287490800187,-0.0005398202682158533
6972.288490572109,-0.0004324165797477642
6972.289490344033,-0.0003243594315755551
6972.290490115955,-0.00021566502802271436
6972.291489887878,-0.00010634977529123421
6972.292489659801,3.5697234099161856e-06
6972.293489431723,0.00011407667278895454
6972.294489203647,0.00022515409044719992
6972.295488975569,0.0003367848119059601
6972.296488747492,0.0004489514956836274
6972.297488519414,0.0005616366284221324
6972.298488291337,0.0006748225300617411
6972.29948806326,0.0007884913590629453
6972.300487835183,0.0009026251176739303
6972.301487607106,0.0010172056572418267
6972.302487379028,0.001132214683565714
6972.303487150951,0.0012476337622891519
6972.304486922873,0.0013634443243298602
6972.305486694797,0.0014796276713440028
6972.306486466719,0.0015961649812223338
6972.307486238642,0.001713037313615215
6972.308486010565,0.00183022561548328
6972.309485782487,0.001947710726670305
6972.31048555441,0.002065473385494707
6972.311485326333,0.002183494234356017
6972.312485098256,0.002301753825352698
6972.313484870178,0.0024202326259077597
6972.314484642101,0.002538911024398778
6972.3154844140245,0.0026577693357891364
6972.316484185947,0.002776787807257555
6972.31748395787,0.0028959466238233037
6972.318483729792,0.003015225913964834
6972.319483501715,0.0031346057552298903
6972.320483273637,0.003254066179835427
6972.321483045561,0.003373587180255809
6972.322482817483,0.003493148714797852
6972.323482589406,0.0036127307131612616
6972.324482361329,0.003732313081983013
6972.325482133251,0.003851875710364212
6972.326481905175,0.003971398475377926
6972.327481677097,0.004090861247556408
6972.32848144902,0.004210243896356002
6972.329481220942,0.0043295262955978416
6972.330480992865,0.004448688328882218
6972.331480764788,0.004567709894974345
6972.332480536711,0.00468657091315911
6972.333480308634,0.004805251328562337
6972.334480080556,0.004923731117436155
6972.335479852479,0.005041990292406117
6972.336479624401,0.0051600089076778415
6972.337479396325,0.005277767064201072
6972.338479168247,0.005395244914789195
6972.33947894017,0.005512422669192444
6972.340478712093,0.005629280599123147
6972.341478484015,0.005745799043231536
6972.342478255938,0.0058619584120305724
6972.343478027861,0.005977739192768243
6972.344477799784,0.006093121954245603
6972.345477571706,0.006208087351578766
6972.346477343629,0.006322616130903012
6972.3474771155525,0.006436689134017172
6972.348476887475,0.00655028730296656
6972.349476659398,0.006663391684562838
6972.35047643132,0.0067759834348393244
6972.351476203243,0.006888043823440356
6972.352475975165,0.006999554237943479
6972.353475747089,0.007110496188113387
6972.354475519011,0.007220851310086724
6972.355475290934,0.007330601370487033
6972.356475062857,0.0074397282704692395
6972.357474834779,0.007548214049693121
6972.358474606703,0.007656040890225163
6972.359474378625,0.007763191120368058
6972.360474150548,0.007869647218417016
6972.36147392247,0.007975391816341831
6972.362473694393,0.008080407703393579
6972.363473466316,0.008184677829634661
6972.364473238239,0.008288185309390924
6972.365473010162,0.008390913424624577
6972.366472782084,0.008492845628226608
6972.367472554007,0.008593965547227468
6972.36847232593,0.008694256985924801
6972.369472097853,0.008793703928927128
6972.370471869775,0.00889229054411243
6972.371471641698,0.008990001185500715
6972.372471413621,0.0090868203960398
6972.373471185543,0.009182732910303597
6972.374470957467,0.009277723657102308
6972.375470729389,0.009371777762004126
6972.376470501312,0.009464880549768236
6972.377470273234,0.0095570175466892
6972.378470045157,0.009648174482853147
6972.3794698170805,0.00973833729430645
6972.380469589003,0.00982749212513776
6972.381469360926,0.009915625329474471
6972.382469132848,0.010002723473394811
6972.383468904771,0.010088773336756774
6972.384468676693,0.010173761914945213
6972.385468448617,0.01025767642053839
6972.386468220539,0.01034050428489528
6972.387467992462,0.010422233159664852
6972.388467764385,0.01050285091821847
6972.389467536307,0.010582345657006342
6972.390467308231,0.010660705696838859
6972.391467080153,0.010737919584093472
6972.392466852076,0.01081397609184762
6972.393466623998,0.01088886422093812
6972.394466395921,0.010962573200947342
6972.395466167844,0.011035092491116363
6972.396465939767,0.011106411781185356
6972.39746571169,0.011176520992161383
6972.398465483612,0.011245410277013815
6972.399465255535,0.011313070021297639
6972.400465027458,0.011379490843704944
6972.401464799381,0.01144466359654495
6972.402464571303,0.011508579366152948
6972.403464343226,0.011571229473228653
6972.404464115149,0.01163260547310459
6972.405463887071,0.011692699155945254
6972.406463658995,0.011751502546878095
6972.407463430917,0.011809007906057569
6972.40846320284,0.011865207728663668
6972.409462974762,0.01192009474483651
6972.410462746685,0.011973661919548616
6972.4114625186085,0.012025902452416495
6972.412462290531,0.01207680977745308
6972.413462062454,0.012126377562762641
6972.414461834376,0.012174599710179673
6972.415461606299,0.01222147035485349
6972.416461378221,0.012266983864780319
6972.417461150145,0.01231113484028489
6972.418460922067,0.01235391811345361
6972.41946069399,0.012395328747521504
6972.420460465913,0.012435362036214983
6972.421460237835,0.012474013503052385
6972.422460009759,0.012511278900603927
6972.423459781681,0.012547154209712348
6972.424459553604,0.012581635638675127
6972.425459325526,0.01261471962238879
6972.426459097449,0.012646402821455375
6972.427458869372,0.012676682121250983
6972.428458641295,0.012705554630956215
6972.429458413218,0.012733017682548368
6972.43045818514,0.012759068829755369
6972.431457957063,0.012783705846971614
6972.432457728986,0.012806926728136119
6972.433457500909,0.01282872968557348
6972.434457272831,0.012849113148798405
6972.435457044754,0.012868075763284576
6972.436456816677,0.012885616389198832
6972.437456588599,0.012901734100101642
6972.438456360523,0.012916428181614871
6972.439456132445,0.012929698130057744
6972.440455904368,0.012941543651051829
6972.44145567629,0.01295196465809567
6972.442455448213,0.012960961271109512
6972.4434552201365,0.012968533814950388
6972.444454992059,0.012974682817897779
6972.445454763982,0.01297940901011011
6972.446454535904,0.012982713322052532
6972.447454307827,0.01298459688289675
6972.448454079749,0.012985061018894057
6972.449453851673,0.012984107251723033
6972.450453623595,0.01298173729681372
6972.451453395518,0.012977953061650352
6972.452453167441,0.012972756644054742
6972.453452939364,0.012966150330452475
6972.454452711287,0.012958136594124106
6972.455452483209,0.012948718093443326
6972.456452255132,0.012937897670104092
6972.457452027054,0.012925678347338687
6972.458451798977,0.01291206332812882
6972.4594515709005,0.012897055993412095
6972.460451342823,0.012880659900286393
6972.461451114746,0.01286287878021499
6972.462450886668,0.01284371653723518
6972.463450658591,0.01282317724617327
6972.464450430514,0.012801265150868685
6972.465450202437,0.012777984662409807
6972.466449974359,0.0127533403573841
6972.467449746282,0.012727336976144895
6972.468449518205,0.012699979421097027
6972.469449290127,0.012671272755003309
6972.470449062051,0.012641222199313481
6972.471448833973,0.012609833132517052
6972.472448605896,0.012577111088521116
6972.473448377818,0.012543061755054095
6972.474448149741,0.012507690972096272
6972.475447921664,0.012471004730337906
6972.476447693587,0.012433009169665873
6972.47744746551,0.012393710577679865
6972.478447237432,0.012353115388239314
6972.479447009355,0.01231123018004233
6972.480446781277,0.012268061675238088
6972.481446553201,0.01222361673807417
6972.482446325123,0.012177902373580482
6972.483446097046,0.012130925726291446
6972.484445868969,0.012082694079008173
6972.485445640892,0.012033214851602273
6972.486445412815,0.011982495599862864
6972.487445184737,0.01193054401438812
6972.48844495666,0.011877367919522524
6972.489444728582,0.011822975272340783
6972.490444500505,0.011767374161679212
6972.491444272428,0.011710572807215165
6972.492444044351,0.011652579558595146
6972.493443816274,0.011593402894612189
6972.494443588196,0.011533051422433044
6972.495443360119,0.011471533876875587
6972.496443132042,0.011408859119736709
6972.497442903965,0.011345036139170593
6972.498442675887,0.011280074049116942
6972.49944244781,0.011213982088778305
6972.500442219733,0.011146769622145255
6972.501441991655,0.011078446137567793
6972.502441763579,0.01100902124737097
6972.503441535501,0.010938504687512314
6972.504441307424,0.010866906317278355
6972.505441079346,0.010794236119017213
6972.50644085127,0.01072050419790409
6972.507440623192,0.01064572078173635
6972.508440395115,0.010569896220755019
6972.509440167038,0.010493040987489727
6972.51043993896,0.01041516567662449
6972.511439710883,0.010336281004882203
6972.512439482806,0.010256397810926307
6972.513439254729,0.010175527055278535
6972.514439026651,0.010093679820252157
6972.515438798574,0.010010867309900372
6972.516438570497,0.009927100849979711
6972.51743834242,0.00984239188792842
6972.518438114343,0.009756751992859773
6972.519437886265,0.009670192855570213
6972.520437658188,0.009582726288562151
6972.52143743011,0.009494364226081088
6972.522437202033,0.009405118724166652
6972.523436973956,0.009315001960717094
6972.524436745879,0.00922402623556675
6972.525436517802,0.009132203970575962
6972.526436289724,0.009039547709732861
6972.527436061647,0.008946070119266271
6972.52843583357,0.008851783987768756
6972.529435605493,0.008756702226328553
6972.530435377415,0.008660837868668794
6972.531435149338,0.008564204071292126
6972.532434921261,0.008466814113628545
6972.533434693183,0.008368681398184016
6972.534434465107,0.00826981945068723
6972.535434237029,0.008170241920231813
6972.536434008952,0.008069962579411349
6972.537433780874,0.007968995324444814
6972.538433552798,0.007867354175290275
6972.53943332472,0.007765053275745098
6972.540433096643,0.007662106893531189
6972.541432868566,0.007558529420364017
6972.542432640488,0.007454335372004232
6972.543432412411,0.007349539388290752
6972.544432184334,0.007244156233154135
6972.545431956257,0.007138200794609058
6972.546431728179,0.007031688084724766
6972.547431500102,0.006924633239572395
6972.548431272025,0.0068170515191481994
6972.549431043948,0.006708958307271715
6972.550430815871,0.006600369111457997
6972.551430587793,0.0064912995627630435
6972.552430359716,0.006381765415601554
6972.553430131638,0.006271782547536234
6972.554429903561,0.006161366959037932
6972.555429675484,0.0060505347732160136
6972.556429447407,0.005939302235518449
6972.55742921933,0.005827685713401165
6972.558428991252,0.005715701695966199
6972.559428763175,0.0056033667935679755
6972.560428535098,0.005490697737386713
6972.561428307021,0.005377711378967434
6972.562428078943,0.0052644246897225275
6972.563427850866,0.005150854760395188
6972.564427622789,0.005037018800480553
6972.565427394711,0.004922934137600823
6972.566427166635,0.004808618216830223
6972.567426938557,0.004694088599965369
6972.56842671048,0.004579362964736185
6972.569426482402,0.004464459103952302
6972.570426254326,0.004349394924579639
6972.571426026248,0.004234188446741806
6972.572425798171,0.004118857802640953
6972.573425570094,0.004003421235392836
6972.574425342016,0.0038878970977710417
6972.575425113939,0.0037723038508556592
6972.576424885862,0.0036566600625821196
6972.577424657785,0.0035409844061864153
6972.578424429707,0.003425295658543531
6972.57942420163,0.0033096126983964643
6972.580423973553,0.003193954504473726
6972.581423745476,0.0030783401534936203
6972.582423517399,0.0029627888180539766
6972.583423289321,0.0028473197644063304
6972.584423061244,0.002731952350113883
6972.585422833166,0.002616706021592928
6972.586422605089,0.002501600311537784
6972.587422377012,0.0023866548362296435
6972.588422148935,0.002271889292730112
6972.589421920858,0.0021573234559604942
6972.59042169278,0.002042977175668041
6972.591421464704,0.001928870373280312
6972.592421236626,0.0018150230386485367
6972.593421008549,0.0017014552266803756
6972.594420780471,0.0015881870538619002
6972.595420552394,0.0014752386946679443
6972.596420324317,0.001362630377859326
6972.59742009624,0.0012503823826648403
6972.598419868163,0.001138515034845394
6972.599419640085,0.001027048702637231
6972.600419412008,0.000916003792570891
6972.60141918393,0.0008054007451623209
6972.602418955854,0.0006952600304724659
6972.603418727776,0.0005856021435316658
6972.604418499699,0.0004764475996252879
6972.605418271622,0.00036781692943715563
6972.606418043544,0.00025973067404747507
6972.607417815467,0.0001522093797820868
6972.60841758739,4.527359291002798e-05
6972.609417359313,-6.105614581335565e-05
6972.610417131235,-0.00016675930676010906
6972.611416903158,-0.00027181537720198553
6972.612416675081,-0.00037620386724251785
6972.613416447004,-0.00047990431590925667
6972.614416218927,-0.0005828962974058666
6972.615415990849,-0.0006851594275230606
6972.616415762772,-0.000786673370206651
6972.617415534694,-0.000887417844280311
6972.618415306617,-0.000987372630320022
6972.61941507854,-0.0010865175776766766
6972.620414850463,-0.0011848326116428978
6972.621414622386,-0.0012822977407597874
6972.622414394308,-0.001378893064259004
6972.623414166232,-0.0014745987796353091
6972.624413938154,-0.0015693951903445508
6972.625413710077,-0.0016632627136219805
6972.626413481999,-0.0017561818884158456
6972.627413253922,-0.0018481333834313124
6972.628413025845,-0.0019390980052799872
6972.629412797768,-0.00202905670673057
6972.630412569691,-0.0021179905950565346
6972.631412341613,-0.0022058809404771093
6972.632412113536,-0.0022927091846881515
6972.633411885458,-0.002378456949479712
6972.634411657382,-0.002463106045437102
6972.635411429304,-0.002546638480722157
6972.636411201227,-0.0026290364699311825
6972.63741097315,-0.002710282443025821
6972.638410745072,-0.0027903590543328365
6972.639410516995,-0.002869249191608586
6972.640410288918,-0.0029469359851637235
6972.641410060841,-0.0030234028170435124
6972.642409832763,-0.0030986333302589607
6972.643409604686,-0.0031726114380638227
6972.6444093766095,-0.0032453213332722976
6972.645409148532,-0.0033167474976120485
6972.646408920455,-0.0033868747111069084
6972.647408692377,-0.0034556880614835007
6972.6484084643,-0.0035231729535958847
6972.649408236222,-0.00358931511886228
6972.650408008146,-0.0036541006247078397
6972.651407780068,-0.003717515884007332
6972.652407551991,-0.0037795476645214278
6972.653407323914,-0.0038401830983201494
6972.654407095836,-0.0038994096911868646
6972.65540686776,-0.00395721533199603
6972.656406639682,-0.004013588302057636
6972.657406411605,-0.004068517284421069
6972.658406183527,-0.004121991373130801
6972.65940595545,-0.0041740000824260805
6972.660405727373,-0.0042245333558765955
6972.661405499296,-0.004273581575445958
6972.662405271219,-0.004321135570474835
6972.663405043141,-0.004367186626575505
6972.664404815064,-0.004411726494429562
6972.665404586986,-0.004454747398480436
6972.66640435891,-0.004496242045512211
6972.667404130832,-0.004536203633106014
6972.668403902755,-0.004574625857964962
6972.669403674678,-0.0046115029240982415
6972.6704034466,-0.0046468295508544505
6972.671403218523,-0.0046806009807939235
6972.672402990446,-0.004712812987389367
6972.673402762369,-0.0047434618825439616
6972.674402534291,-0.004772544523916015
6972.675402306214,-0.004800058322039267
6972.6764020781375,-0.004826001247228066
6972.67740185006,-0.0048503718362567115
6972.678401621983,-0.004873169198802426
6972.679401393905,-0.004894393023641501
6972.680401165828,-0.0049140435845882085
6972.68140093775,-0.004932121746166043
6972.682400709674,-0.0049486289690007755
6972.683400481596,-0.004963567314924708
6972.684400253519,-0.00497693945178143
6972.685400025442,-0.004988748657920319
6972.686399797364,-0.004998998826370073
6972.687399569288,-0.005007694468680549
6972.68839934121,-0.0050148407184223386
6972.689399113133,-0.005020443334333618
6972.690398885055,-0.005024508703104122
6972.691398656978,-0.005027043841786406
6972.692398428901,-0.005028056399825029
6972.693398200824,-0.00502755466069458
6972.694397972747,-0.005025547543137668
6972.695397744669,-0.00502204460199396
6972.696397516592,-0.005017056028611185
6972.697397288514,-0.0050105926508287974
6972.698397060438,-0.00500266593252474
6972.69939683236,-0.004993287972715602
6972.700396604283,-0.004982471504200259
6972.701396376206,-0.004970229891736888
6972.702396148128,-0.004956577129743139
6972.703395920051,-0.004941527839509088
6972.704395691974,-0.004925097265912581
6972.705395463897,-0.004907301273626696
6972.706395235819,-0.004888156342809283
6972.707395007742,-0.004867679564264939
6972.7083947796655,-0.0048458886340704095
6972.709394551588,-0.004822801847655222
6972.710394323511,-0.004798438093330436
6972.711394095433,-0.00477281684525955
6972.712393867356,-0.004745958155866802
6972.713393639278,-0.004717882647679307
6972.714393411202,-0.00468861150460068
6972.715393183124,-0.0046581664626150565
6972.716392955047,-0.004626569799921803
6972.71739272697,-0.004593844326502661
6972.718392498892,-0.004560013373124694
6972.719392270816,-0.004525100779784022
6972.720392042738,-0.004489130883597079
6972.721391814661,-0.004452128506147773
6972.722391586583,-0.004414118940300614
6972.723391358506,-0.0043751279364915635
6972.724391130429,-0.004335181688509963
6972.725390902352,-0.004294306818786565
6972.726390674275,-0.004252530363204224
6972.727390446197,-0.004209879755449415
6972.72839021812,-0.0041663828109244
6972.729389990043,-0.0041220677102415506
6972.730389761966,-0.004076962982323167
6972.731389533888,-0.004031097487131909
6972.732389305811,-0.003984500398058777
6972.733389077734,-0.003937201183997331
6972.734388849656,-0.003889229591134385
6972.73538862158,-0.0038406156244888173
6972.736388393502,-0.003791389529231091
6972.737388165425,-0.003741581771816745
6972.738387937347,-0.0036912230209673585
6972.73938770927,-0.003640344128532517
6972.7403874811935,-0.003588976110266175
6972.741387253116,-0.003537150126550493
6972.742387025039,-0.003484897463099789
6972.743386796961,-0.003432249511676589
6972.744386568884,-0.0033792377508509593
6972.745386340806,-0.003325893726833281
6972.74638611273,-0.00327224903440945
6972.747385884652,-0.003218335298006035
6972.748385656575,-0.0031641841529113537
6972.749385428498,-0.0031098272266766864
6972.75038520042,-0.0030552961207200233
6972.751384972344,-0.0030006223921529586
6972.752384744266,-0.002945837535849503
6972.753384516189,-0.002890972966773802
6972.754384288111,-0.0028360600025820536
6972.755384060034,-0.002781129846512278
6972.756383831957,-0.0027262135705740775
6972.75738360388,-0.0026713420990490833
6972.758383375803,-0.0026165461923114276
6972.759383147725,-0.0025618564309763123
6972.760382919648,-0.002507303200383646
6972.761382691571,-0.002452916675422726
6972.762382463494,-0.002398726805703106
6972.763382235416,-0.002344763301076006
6972.764382007339,-0.002291055617509821
6972.765381779262,-0.002237632943322461
6972.766381551184,-0.002184524185772346
6972.767381323108,-0.002131757958008965
6972.76838109503,-0.0020793625663830116
6972.769380866953,-0.0020273659981152603
6972.770380638875,-0.0019757959093226365
6972.771380410798,-0.0019246796133993694
6972.7723801827215,-0.0018740440697507126
6972.773379954644,-0.0018239158728764672
6972.774379726567,-0.0017743212418013452
6972.775379498489,-0.001725286009848992
6972.776379270412,-0.0016768356147561889
6972.777379042334,-0.0016289950891233897
6972.778378814258,-0.001581789051197356
6972.77937858618,-0.0015352416959813358
6972.780378358103,-0.001489376786668041
6972.781378130026,-0.0014442176463906307
6972.782377901948,-0.0013997871502870528
6972.783377673872,-0.0013561077178734044
6972.784377445794,-0.001313201305722417
6972.785377217717,-0.0012710894004436687
6972.786376989639,-0.00122979301196264
6972.787376761562,-0.0011893326670961988
6972.788376533485,-0.0011497284034225489
6972.789376305408,-0.0011109997634440487
6972.790376077331,-0.0010731657890416047
6972.791375849253,-0.0010362450162194863
6972.792375621176,-0.0010002554701394142
6972.793375393099,-0.0009652146604426402
6972.794375165022,-0.0009311395768585448
6972.795374936944,-0.0008980466850980561
6972.796374708867,-0.0008659519230300126
6972.79737448079,-0.0008348706971384534
6972.798374252712,-0.000804817879258801
6972.799374024636,-0.0007758078035909952
6972.800373796558,-0.0007478542639878519
6972.801373568481,-0.0007209705115171478
6972.802373340403,-0.0006951692522961148
6972.803373112326,-0.0006704626455970802
6972.8043728842495,-0.0006468623022228863
6972.805372656172,-0.0006243792831504692
6972.806372428095,-0.0006030240984405763
6972.807372200017,-0.0005828067064111096
6972.80837197194,-0.0005637365130710452
6972.809371743862,-0.0005458223718113341
6972.810371515786,-0.0005290725833487063
6972.811371287708,-0.0005134948959179151
6972.812371059631,-0.000499096505707688
6972.813370831554,-0.00048588405753547043
6972.814370603477,-0.00047386364575589346
6972.8153703754,-0.00046304081539772147
6972.816370147322,-0.000453420563523837
6972.817369919245,-0.0004450073408086241
6972.818369691167,-0.0004378050533269219
6972.81936946309,-0.0004318170645485374
6972.8203692350135,-0.0004270461975321477
6972.821369006936,-0.00042349473731233164
6972.822368778859,-0.00042116443347350814
6972.823368550781,-0.0004200565029047631
6972.824368322704,-0.0004201716327298883
6972.825368094627,-0.0004215099834073775
6972.82636786655,-0.00042407119199554667
6972.827367638472,-0.00042785437557831544
6972.828367410395,-0.000432858134847493
6972.829367182318,-0.0004390805578376528
6972.83036695424,-0.0004465192238098573
6972.831366726164,-0.00045517120728061404
6972.832366498086,-0.0004650330821925147
6972.833366270009,-0.0004761009262230655
6972.834366041931,-0.000488370325228328
6972.835365813854,-0.0005018363778181998
6972.8363655857775,-0.0005164937000604939
6972.8373653577,-0.0005323364303113975
6972.838365129623,-0.0005493582341703633
6972.839364901545,-0.0005675523095579686
6972.840364673468,-0.0005869113919157233
6972.84136444539,-0.0006074277595272032
6972.842364217314,-0.0006290932389602155
6972.843363989236,-0.0006518992106299609
6972.844363761159,-0.0006758366144833397
6972.845363533082,-0.0007008959558046782
6972.846363305005,-0.0007270673111432427
6972.847363076928,-0.0007543403343629331
6972.84836284885,-0.0007827042628144734
6972.849362620773,-0.0008121479236301985
6972.850362392695,-0.0008426597401411971
6972.851362164618,-0.0008742277384161334
6972.8523619365415,-0.0009068395539206236
6972.853361708464,-0.0009404824382956143
6972.854361480387,-0.0009751432662528591
6972.855361252309,-0.0010108085425852978
6972.856361024232,-0.0010474644092898922
6972.857360796155,-0.0010850966528002288
6972.858360568078,-0.0011236907113259327
6972.85936034,-0.001163231682295655
6972.860360111923,-0.0012037043299001197
6972.861359883846,-0.001245093092731515
6972.862359655768,-0.0012873820915153599
6972.863359427692,-0.0013305551369309084
6972.864359199614,-0.0013745957375161236
6972.865358971537,-0.0014194871076532662
6972.866358743459,-0.0014652121756312056
6972.867358515383,-0.0015117535917806525
6972.868358287305,-0.0015590937366786238
6972.869358059228,-0.0016072147294185226
6972.870357831151,-0.001656098435942281
6972.871357603073,-0.0017057264774310323
6972.872357374996,-0.001756080238750801
6972.873357146919,-0.0018071408769496956
6972.874356918842,-0.00185888932980308
6972.875356690764,-0.0019113063244031757
6972.876356462687,-0.0019643723857895295
6972.87735623461,-0.0020180678456167933
6972.878356006533,-0.0020723728508563063
6972.879355778456,-0.0021272673725280782
6972.880355550378,-0.0021827312144599266
6972.881355322301,-0.0022387440220706586
6972.882355094223,-0.002295285291174274
6972.883354866146,-0.0023523343768021834
6972.884354638069,-0.0024098705020404246
6972.885354409992,-0.0024678727668788134
6972.886354181915,-0.0025263201570689345
6972.887353953837,-0.002585191552987804
6972.88835372576,-0.002644465738503907
6972.889353497683,-0.0027041214098420816
6972.890353269606,-0.002764137184443426
6972.891353041528,-0.002824491609816055
6972.892352813451,-0.0028851631723722394
6972.893352585374,-0.0029461303062472207
6972.894352357296,-0.0030073714020948596
6972.89535212922,-0.003068864815855289
6972.896351901142,-0.003130588877489865
6972.897351673065,-0.0031925218996789718
6972.898351444987,-0.003254642186478596
6972.899351216911,-0.003316928041932002
6972.900350988833,-0.003379357778633287
6972.901350760756,-0.003441909726239961
6972.902350532679,-0.003504562239932004
6972.903350304601,-0.0035672937088150527
6972.904350076524,-0.0036300825642654297
6972.905349848447,-0.0036929072882146818
6972.90634962037,-0.003755746421371163
6972.907349392292,-0.00381857857137603
6972.908349164215,-0.003881382420890856
6972.909348936138,-0.003944136735613928
6972.910348708061,-0.00400682037222215
6972.911348479984,-0.004069412286235318
6972.912348251906,-0.004131891539799334
6972.913348023829,-0.0041942373093847
6972.914347795751,-0.00425642889339643
6972.915347567674,-0.004318445719691212
6972.916347339597,-0.004380267352997346
6972.91734711152,-0.004441873502232623
6972.918346883443,-0.00450324402771495
6972.919346655365,-0.004564358948260229
6972.920346427288,-0.004625198448161805
6972.921346199211,-0.004685742884045651
6972.922345971134,-0.004745972791595489
6972.923345743056,-0.004805868892142145
6972.924345514979,-0.004865412099111604
6972.925345286902,-0.004924583524326509
6972.926345058824,-0.004983364484156208
6972.927344830748,-0.005041736505510827
6972.92834460267,-0.005099681331675316
6972.929344374593,-0.0051571809279798144
6972.930344146515,-0.005214217487303153
6972.931343918439,-0.005270773435406714
6972.932343690361,-0.005326831436096394
6972.933343462284,-0.005382374396210859
6972.934343234207,-0.005437385470434738
6972.935343006129,-0.005491848065935786
6972.936342778052,-0.005545745846825335
6972.937342549975,-0.005599062738441622
6972.938342321898,-0.005651782931455648
6972.93934209382,-0.005703890885799286
6972.940341865743,-0.005755371334415282
6972.941341637666,-0.005806209286828729
6972.942341409589,-0.005856390032539587
6972.943341181512,-0.00590589914423586
6972.944340953434,-0.005954722480827205
6972.945340725357,-0.006002846190298907
6972.946340497279,-0.006050256712386408
6972.947340269202,-0.006096940781070813
6972.948340041125,-0.006142885426896046
6972.949339813048,-0.006188077979108573
6972.950339584971,-0.006232506067620907
6972.951339356893,-0.006276157624800387
6972.952339128817,-0.006319020887085002
6972.953338900739,-0.0063610843964282335
6972.954338672662,-0.006402337001575017
6972.955338444584,-0.006442767859170954
6972.956338216507,-0.006482366434706898
6972.95733798843,-0.006521122503301085
6972.958337760353,-0.006559026150320955
6972.959337532276,-0.006596067771846795
6972.960337304198,-0.006632238074979267
6972.961337076121,-0.006667528077992755
6972.962336848043,-0.006701929110336302
6972.963336619967,-0.006735432812483788
6972.964336391889,-0.006768031135634918
6972.965336163812,-0.006799716341268558
6972.966335935735,-0.006830481000550015
6972.967335707657,-0.006860317993593956
6972.96833547958,-0.006889220508584823
6972.969335251503,-0.006917182040756901
6972.970335023426,-0.006944196391236418
6972.971334795348,-0.006970257665748508
6972.972334567271,-0.0069953602731922465
6972.973334339194,-0.0070194989240873916
6972.974334111117,-0.007042668628896828
6972.97533388304,-0.0070648646962289145
6972.976333654962,-0.00708608273092395
6972.977333426885,-0.007106318632028912
6972.978333198807,-0.00712556859066436
6972.97933297073,-0.007143829087787158
6972.980332742653,-0.00716109689185239
6972.981332514576,-0.0071773690563776815
6972.982332286499,-0.007192642917412972
6972.983332058421,-0.007206916090918805
6972.984331830345,-0.007220186470056216
6972.985331602267,-0.007232452222391387
6972.98633137419,-0.007243711787018385
6972.987331146112,-0.007253963871603402
6972.988330918035,-0.007263207449353937
6972.989330689958,-0.007271441755916329
6972.990330461881,-0.007278666286204906
6972.991330233804,-0.007284880791165925
6972.992330005726,-0.007290085274479399
6972.993329777649,-0.007294279989201829
6972.994329549571,-0.00729746543435281
6972.995329321495,-0.007299642351448418
6972.996329093417,-0.007300811720984165
6972.99732886534,-0.007300974758870152
6972.998328637263,-0.007300132912820756
6972.999328409185,-0.007298287858700808
6973.000328181108,-0.007295441496829811
6973.001327953031,-0.007291595948245298
6973.002327724954,-0.0072867535509261285
6973.003327496876,-0.0072809168559763845
6973.004327268799,-0.007274088623770565
6973.0053270407225,-0.0072662718200610195
6973.006326812645,-0.007257469612048926
6973.007326584568,-0.007247685364420574
6973.00832635649,-0.007236922635351175
6973.009326128413,-0.007225185172478972
6973.010325900335,-0.007212476908852826
6973.011325672259,-0.007198801958856862
6973.012325444181,-0.007184164614116067
6973.013325216104,-0.007168569339386957
6973.014324988027,-0.007152020768437688
6973.015324759949,-0.007134523699922107
6973.016324531873,-0.0071160830932524306
6973.017324303795,-0.007096704064475191
6973.018324075718,-0.00707639188215504
6973.01932384764,-0.007055151963270798
6973.020323619563,-0.007032989869127876
6973.021323391486,-0.00700991130129086
6973.022323163409,-0.006985922097539715
6973.023322935332,-0.006961028227852702
6973.024322707254,-0.006935235790418791
6973.025322479177,-0.0069085510076821125
6973.026322251099,-0.006880980222420744
6973.027322023023,-0.006852529893861909
6973.028321794945,-0.006823206593835454
6973.029321566868,-0.006793017002967248
6973.030321338791,-0.006761967906914031
6973.031321110713,-0.006730066192641021
6973.032320882636,-0.006697318844743527
6973.033320654559,-0.006663732941813554
6973.034320426482,-0.006629315652852196
6973.035320198404,-0.006594074233728268
6973.036319970327,-0.006558016023683364
6973.0373197422505,-0.006521148441883274
6973.038319514173,-0.006483478984015426
6973.039319286096,-0.006445015218931957
6973.040319058018,-0.006405764785337946
6973.041318829941,-0.006365735388524519
6973.042318601863,-0.00632493479714668
6973.043318373787,-0.006283370840046052
6973.044318145709,-0.0062410514031189575
6973.045317917632,-0.006197984426230489
6973.046317689555,-0.006154177900175332
6973.047317461477,-0.006109639863686202
6973.048317233401,-0.006064378400490777
6973.049317005323,-0.006018401636418094
6973.050316777246,-0.005971717736555424
6973.051316549168,-0.0059243349024568044
6973.052316321091,-0.005876261369404427
6973.053316093014,-0.005827505403724111
6973.054315864937,-0.00577807530015607
6973.05531563686,-0.005727979379282063
6973.056315408782,-0.0056772259850098785
6973.057315180705,-0.005625823482116081
6973.058314952627,-0.0055737802538478294
6973.059314724551,-0.005521104699584676
6973.060314496473,-0.005467805232561279
6973.061314268396,-0.005413890277652097
6973.062314040319,-0.005359368269219263
6973.063313812241,-0.005304247649024911
6973.064313584164,-0.005248536864209244
6973.065313356087,-0.005192244365335618
6973.06631312801,-0.005135378604503861
6973.067312899932,-0.005077948033532957
6973.068312671855,-0.00501996110221407
6973.0693124437785,-0.00496142625663475
6973.070312215701,-0.004902351937574851
6973.071311987624,-0.00484274657897447
6973.072311759546,-0.0047826186064739325
6973.073311531469,-0.004721976436025682
6973.074311303391,-0.004660828472577753
6973.075311075315,-0.0045991831088283905
6973.076310847237,-0.004537048724051287
6973.07731061916,-0.004474433682990807
6973.078310391083,-0.0044113463348265805
6973.079310163005,-0.0043477950122068135
6973.080309934929,-0.004283788030349701
6973.081309706851,-0.004219333686212333
6973.082309478774,-0.004154440257726409
6973.083309250696,-0.004089116003099988
6973.084309022619,-0.00402336916018425
6973.085308794542,-0.0039572079459040356
6973.086308566465,-0.0038906405557506433
6973.087308338388,-0.003823675163335149
6973.08830811031,-0.003756319920000402
6973.089307882233,-0.003688582954489806
6973.090307654156,-0.0036204723726710403
6973.091307426079,-0.0035519962573129105
6973.092307198001,-0.0034831626679135484
6973.093306969924,-0.003413979640578139
6973.094306741847,-0.003344455187944228
6973.095306513769,-0.0032745972991524972
6973.096306285693,-0.0032044139398607115
6973.097306057615,-0.003133913052298365
6973.098305829538,-0.0030631025553593864
6973.09930560146,-0.0029919903447301406
6973.100305373383,-0.0029205842930499428
6973.1013051453065,-0.002848892250101349
6973.102304917229,-0.0027769220430276832
6973.103304689152,-0.002704681476575512
6973.104304461074,-0.002632178333360083
6973.105304232997,-0.002559420374152027
6973.106304004919,-0.0024864153381838326
6973.107303776843,-0.0024131709434747203
6973.108303548765,-0.002339694887172629
6973.109303320688,-0.002265994845912134
6973.110303092611,-0.0021920784761872295
6973.111302864533,-0.002117953414738062
6973.112302636457,-0.0020436272789508174
6973.113302408379,-0.001969107667270013
6973.114302180302,-0.0018944021596224712
6973.115301952224,-0.0018195183178522465
6973.116301724147,-0.0017444636861658127
6973.11730149607,-0.0016692457915868735
6973.118301267993,-0.001593872144420217
6973.119301039916,-0.0015183502387240767
6973.120300811838,-0.0014426875527904538
6973.121300583761,-0.001366891549632771
6973.122300355684,-0.0012909696774800776
6973.123300127607,-0.0012149293702767878
6973.124299899529,-0.0011387780481866634
6973.125299671452,-0.0010625231180994587
6973.126299443375,-0.0009861719741383731
6973.127299215297,-0.000909731998166234
6973.128298987221,-0.0008332105602881887
6973.129298759143,-0.0007566150193486394
6973.130298531066,-0.0006799527234202122
6973.131298302988,-0.0006032310102826745
6973.132298074911,-0.0005264572078898618
6973.1332978468345,-0.00044963863482281436
6973.134297618757,-0.0003727826007274375
6973.13529739068,-0.0002958964067351123
6973.136297162602,-0.0002189873458647886
6973.137296934525,-0.00014206270340520044
6973.138296706447,-6.512975727592546e-05
6973.139296478371,1.1804221633932113e-05
6973.140296250293,8.873196915061772e-05
6973.141296022216,0.0001656462275253156
6973.142295794139,0.00024253974516955752
6973.143295566061,0.0003194052764174777
6973.144295337985,0.0003962355813158274
6973.145295109907,0.0004730234254425485
6973.14629488183,0.0005497615797546278
6973.147294653752,0.0006264428204659401
6973.148294425675,0.0007030599289558352
6973.149294197598,0.0007796056917093149
6973.150293969521,0.0008560729002897443
6973.151293741444,0.0009324543513451172
6973.152293513366,0.0010087428466489321
6973.153293285289,0.0010849311931767159
6973.154293057212,0.0011610122032191534
6973.155292829135,0.0012369786945326618
6973.156292601057,0.0013128234905280904
6973.15729237298,0.0013885394204980611
6973.158292144903,0.0014641193198832645
6973.159291916825,0.0015395560305778127
6973.160291688749,0.0016148424012735142
6973.161291460671,0.0016899712878426993
6973.162291232594,0.001764935553759025
6973.163291004516,0.0018397280705555236
6973.164290776439,0.0019143417183190372
6973.1652905483625,0.001988769386220094
6973.166290320285,0.002063003973077203
6973.167290092208,0.0021370383879544433
6973.16828986413,0.0022108655507911404
6973.169289636053,0.00228447839306228
6973.170289407975,0.00235786985846824
6973.171289179899,0.002431032903652331
6973.172288951821,0.002503960498944627
6973.173288723744,0.0025766456291305595
6973.174288495667,0.0026490812942427835
6973.17528826759,0.002721260510374804
6973.176288039513,0.0027931763105148023
6973.177287811435,0.0028648217453980155
6973.178287583358,0.0029361898843759757
6973.17928735528,0.0030072738163009188
6973.180287127203,0.0030780666504238163
6973.181286899127,0.0031485615173047084
6973.182286671049,0.0032187515697343237
6973.183286442972,0.003288629983666333
6973.184286214894,0.0033581899591599695
6973.185285986817,0.0034274247213331383
6973.18628575874,0.0034963275213264673
6973.187285530663,0.0035648916372789923
6973.188285302585,0.003633110375316258
6973.189285074508,0.003700977070551564
6973.190284846431,0.003768485088100929
6973.191284618353,0.0038356278241121187
6973.192284390277,0.003902398706807805
6973.193284162199,0.00396879119754266
6973.194283934122,0.004034798791873874
6973.195283706044,0.004100415020644229
6973.196283477967,0.004165633451076527
6973.1972832498905,0.004230447687877819
6973.198283021813,0.0042948513743516275
6973.199282793736,0.004358838193516233
6973.200282565658,0.004422401869227141
6973.201282337581,0.004485536167302067
6973.202282109503,0.004548234896647062
6973.203281881427,0.004610491910382777
6973.204281653349,0.004672301106970128
6973.205281425272,0.004733656431334838
6973.206281197195,0.0047945518759904444
6973.207280969118,0.004854981482159401
6973.208280741041,0.004914939340891843
6973.209280512963,0.004974419594181537
6973.210280284886,0.005033416436078473
6973.211280056808,0.00509192411379748
6973.212279828731,0.005149936928822297
6973.213279600655,0.005207449238004401
6973.214279372577,0.005264455454655952
6973.2152791445,0.005320950049636012
6973.216278916422,0.00537692755242908
6973.217278688345,0.005432382552214775
6973.218278460268,0.005487309698927315
6973.219278232191,0.00554170370430327
6973.220278004113,0.005595559342915923
6973.221277776036,0.005648871453194432
6973.222277547959,0.005701634938425924
6973.223277319881,0.005753844767738621
6973.224277091805,0.005805495977064247
6973.225276863727,0.005856583670078182
6973.22627663565,0.005907103019116082
6973.227276407572,0.005957049266065983
6973.228276179496,0.006006417723235007
6973.2292759514185,0.00605520377418992
6973.230275723341,0.006103402874570758
6973.231275495264,0.006151010552876764
6973.232275267186,0.006198022411223891
6973.233275039109,0.006244434126073182
6973.234274811032,0.006290241448929341
6973.235274582955,0.006335440207008884
6973.236274354877,0.00638002630387726
