Time,Filtered_EMG_Bicep,Filtered_EMG_Tricep
6513.059254207339,0.0021983885869700107,0.00283567554124321
6513.060253979262,0.0022782553417541045,0.0028623720308550682
6513.061253751184,0.002355867983377267,0.002889262087203471
6513.062253523107,0.002430555743102331,0.0029160452773385522
6513.063253295029,0.002501680964767906,0.0029424064059497502
6513.064253066952,0.0025686508606909343,0.0029680202444381364
6513.065252838876,0.002630928440500829,0.0029925568298572788
6513.066252610798,0.0026880422765445558,0.003015687277361655
6513.067252382721,0.0027395948589123693,0.003037090038445952
6513.068252154643,0.0027852693945629556,0.0030564575146065764
6513.069251926566,0.002824834991740363,0.0030735029080181074
6513.070251698489,0.0028581502232381075,0.0030879671600317882
6513.071251470412,0.002885165079038949,0.0030996257904565942
6513.072251242335,0.0029059213218851025,0.0031082954077372043
6513.073251014257,0.0029205512681058986,0.0031138396280002826
6513.07425078618,0.002929275026507192,0.003116174134395702
6513.075250558102,0.0029323962288786707,0.003115270627892996
6513.076250330026,0.002930296284768289,0.0031111594587518217
6513.077250101948,0.00292342720770954,0.00310393077688539
6513.078249873871,0.0029123030910547785,0.0030937340955854513
6513.079249645793,0.0028974903538435746,0.0030807762254807017
6513.080249417716,0.002879596936079495,0.003065317600674888
6513.08124918964,0.002859260694700698,0.003047667081189617
6513.082248961562,0.002837137310219276,0.0030281753707835277
6513.083248733485,0.0028138880366614548,0.0030072272311321866
6513.084248505407,0.002790167613521372,0.002985232701120554
6513.08524827733,0.002766612619131572,0.0029626175573254396
6513.086248049253,0.0027438304954528,0.0029398132907581514
6513.087247821176,0.0027223894346317386,0.0029172469139312875
6513.0882475930985,0.0027028093003084504,0.00289533093003292
6513.089247365021,0.0026855537516516973,0.002874453788958374
6513.090247136944,0.0026710237200501864,0.0028549711337233492
6513.091246908867,0.0026595523427491766,0.0028371981082719283
6513.09224668079,0.002651401395335095,0.0028214029480174577
6513.093246452712,0.002646759209104242,0.0028078020080631585
6513.094246224635,0.0026457400252338564,0.002796556310860615
6513.095245996557,0.002648384725285125,0.0027877696285786425
6513.09624576848,0.0026546628739817987,0.0027814880700809974
6513.097245540404,0.0026644759946973275,0.002777701122984559
6513.098245312326,0.0026776619562426333,0.0027763440906385284
6513.099245084249,0.00269400029317362,0.0027773018351482217
6513.100244856171,0.002713218247575723,0.002780413681818172
6513.101244628094,0.002734997335010875,0.00278547927506922
6513.102244400017,0.002758980286998429,0.002792265127482843
6513.10324417194,0.00278477826688508,0.002800511586581515
6513.104243943863,0.0028119782743352313,0.0028099399578869456
6513.105243715785,0.0028401506615606392,0.0028202595647577773
6513.106243487708,0.0028688567030158763,0.0028311745896739795
6513.107243259631,0.002897656184941858,0.002842390602902898
6513.108243031554,0.002926114987552393,0.0028536207051660773
6513.109242803476,0.002953812602381882,0.002864591180374601
6513.110242575399,0.0029803494659630917,0.002875046506918521
6513.111242347321,0.0030053539287406474,0.002884753559443096
6513.112242119244,0.003028488648233156,0.002893504871524488
6513.113241891168,0.0030494562095083554,0.0029011209083106165
6513.11424166309,0.0030680038197035985,0.0029074513751860633
6513.115241435013,0.0030839269728024764,0.002912375634577685
6513.116241206935,0.003097072026558138,0.0029158023263631382
6513.117240978858,0.0031073376834530233,0.0029176683072141807
6513.118240750781,0.0031146754172220255,0.0029179370409506745
6513.119240522704,0.0031190889046819495,0.002916596577845688
6513.1202402946265,0.003120632495540571,0.0029136572567426315
6513.121240066549,0.003119408719017922,0.0029091492534917833
6513.122239838472,0.0031155648355225525,0.002903120083067684
6513.123239610395,0.00310928849677178,0.0028956321421377256
6513.124239382318,0.003100802643079762,0.0028867603532462677
6513.12523915424,0.0030903598160407476,0.0028765899372055065
6513.126238926163,0.0030782360930872964,0.0028652143015884626
6513.127238698085,0.003064724858859544,0.0028527330049974006
6513.128238470008,0.0030501306229800407,0.0028392497450267728
6513.129238241932,0.003034763080126342,0.002824870316499149
6513.130238013854,0.0030189315826538972,0.002809700496188946
6513.131237785777,0.0030029401551558846,0.002793843842988351
6513.132237557699,0.0029870831314045554,0.0027773994600505045
6513.133237329622,0.0029716414461708573,0.002760459824581989
6513.134237101545,0.002956879570830773,0.0027431088215616544
6513.135236873468,0.0029430430455098487,0.0027254201094137082
6513.13623664539,0.0029303565365668793,0.002707455911575893
6513.137236417313,0.002919022336382626,0.002689266290149703
6513.138236189236,0.002909219216992919,0.002670888932031236
6513.139235961159,0.002901101548337814,0.0026523494636214685
6513.140235733082,0.0028947986047553505,0.0026336622987237573
6513.141235505004,0.002890414018357289,0.0026148320162167923
6513.142235276927,0.0028880253826429323,0.002595855263783806
6513.143235048849,0.002887684035994435,0.002576723178157864
6513.144234820773,0.0028894150526320534,0.002557424278119724
6513.145234592696,0.0028932174581681987,0.002537947720126735
6513.146234364618,0.002899064688890338,0.002518286732008053
6513.147234136541,0.0029069053268373454,0.0024984419941998627
6513.148233908463,0.0029166641539632855,0.0024784247451897514
6513.149233680386,0.00292824357299908,0.002458259441744403
6513.150233452309,0.0029415254408579434,0.0024379858750498123
6513.151233224232,0.0029563733489318482,0.00241766070570417
6513.152232996154,0.002972635358260534,0.0023973584251598084
6513.153232768077,0.002990147157969455,0.0023771717747044785
6513.15423254,0.0030087355677885968,0.002357211649016789
6513.155232311923,0.0030282222571884716,0.0023376064848690467
6513.156232083846,0.0030484275185178973,0.0023185011111523496
6513.157231855768,0.003069173918619653,0.002300055038718695
6513.158231627691,0.0030902896541461075,0.002282440200592873
6513.159231399613,0.0031116114411189493,0.0022658381997384845
6513.160231171537,0.0031329867884590883,0.0022504371661696623
6513.16123094346,0.003154275548232583,0.0022364283570937764
6513.162230715382,0.0031753506938317013,0.002224002646931957
6513.163230487305,0.003196098337934613,0.0022133470469199727
6513.164230259227,0.003216417059101977,0.002204641368684784
6513.16523003115,0.0032362166511668237,0.0021980551060800163
6513.166229803073,0.003255416431636059,0.002193744561776878
6513.167229574996,0.003273943246760523,0.002191850201760376
6513.168229346918,0.0032917293091436974,0.002192494189801345
6513.169229118841,0.003308710007869133,0.0021957780377186544
6513.170228890764,0.003324821834414181,0.0022017803157385724
6513.171228662687,0.0033400005651286675,0.0022105544112292178
6513.17222843461,0.0033541798371693726,0.002222126391358248
6513.173228206532,0.0033672902484341957,0.0022364930844338067
6513.174227978455,0.0033792590916714126,0.0022536205245711387
6513.175227750377,0.003390010794779908,0.0022734429038933257
6513.176227522301,0.003399468092937963,0.002295862151778984
6513.177227294224,0.0034075539071761834,0.0023207482189108236
6513.178227066146,0.0034141938433901063,0.0023479400973110786
6513.179226838069,0.0034193191637159276,0.0023772475673948944
6513.180226609991,0.0034228700427557162,0.002408453627744202
6513.181226381914,0.0034247989185270827,0.0024413175225188226
6513.182226153837,0.003425073767541098,0.0024755782361073017
6513.18322592576,0.0034236811469475774,0.0025109582957883463
6513.184225697682,0.003420628845341234,0.002547167732363522
6513.185225469605,0.00341594798191779,0.00258390809173084
6513.186225241528,0.0034096944033747403,0.002620876437596952
6513.187225013451,0.003401949251778954,0.002657769308614256
6513.188224785374,0.003392818619632791,0.0026942865890981532
6513.189224557296,0.003382432274715272,0.0027301352407983303
6513.190224329219,0.003370941518495428,0.0027650328414184867
6513.191224101141,0.003358516318446325,0.0027987108819573663
6513.192223873065,0.0033453419023358297,0.0028309177795004747
6513.193223644988,0.0033316150037377276,0.0028614215663157055
6513.19422341691,0.003317539910123154,0.0028900122300180397
6513.195223188833,0.0033033244219863775,0.0029165037019871316
6513.196222960755,0.0032891758123007866,0.0029407355087293237
6513.197222732679,0.003275296875792637,0.0029625741073060715
6513.198222504601,0.0032618821523940516,0.002981913926945035
6513.199222276524,0.0032491143883791344,0.002998678136228692
6513.200222048446,0.003237161278536111,0.003012819140923062
6513.201221820369,0.003226172536568447,0.0030243187874238664
6513.202221592292,0.0032162773724162207,0.0030331882120317177
6513.203221364215,0.003207582495244375,0.003039467257185589
6513.204221136138,0.003200170785571372,0.003043223385661283
6513.20522090806,0.00319410077409551,0.003044550060340251
6513.206220679983,0.0031894070243721146,0.003043564607774076
6513.207220451905,0.0031861014495326375,0.003040405631578492
6513.208220223829,0.0031841755134119857,0.0030352300704252545
6513.209219995752,0.0031836031829591575,0.0030282099996456952
6513.210219767674,0.0031843444155778998,0.0030195292654692715
6513.211219539597,0.003186348891450383,0.003009380028962311
6513.212219311519,0.0031895596556868766,0.002997959282593996
6513.213219083442,0.0031939163337350823,0.0029854653812725197
6513.214218855365,0.0031993576293218944,0.0029720946115291006
6513.215218627288,0.003205822903309675,0.002958037828975562
6513.21621839921,0.0032132527495089907,0.0029434772295156846
6513.217218171133,0.0032215885995164734,0.0029285833587521255
6513.218217943056,0.0032307714749127683,0.002913512480221362
6513.219217714979,0.0032407400544102994,0.0028984044134361246
6513.220217486902,0.003251428244721725,0.0028833809278214478
6513.221217258824,0.0032627624520084244,0.0028685447489875384
6513.222217030747,0.0032746587617463454,0.0028539792044667686
6513.223216802669,0.0032870202541491157,0.002839748503702528
6513.224216574593,0.0032997346974911095,0.0028258986112454044
6513.225216346516,0.0033126728559499737,0.0028124586450561017
6513.226216118438,0.0033256876181212286,0.0027994427210660186
6513.227215890361,0.003338614104328047,0.002786852157983675
6513.228215662283,0.0033512708506429805,0.002774677935487494
6513.229215434207,0.0033634620982851146,0.0027629032628009205
6513.230215206129,0.0033749811467888207,0.002751506078706368
6513.231214978052,0.003385614664599539,0.0027404612942622036
6513.232214749974,0.0033951477884350267,0.0027297426292814788
6513.233214521897,0.003403369782400427,0.002719323983158434
6513.23421429382,0.0034100799848869774,0.0027091803907577667
6513.235214065743,0.0034150937648330265,0.0026992887037742856
6513.236213837666,0.00341824823641865,0.002689628173513586
6513.237213609588,0.003419407512814325,0.0026801810809387364
6513.238213381511,0.003418467287849221,0.0026709334844365593
6513.239213153433,0.003415358526633439,0.0026618760746454748
6513.240212925357,0.0034100500530306783,0.0026530050706955336
6513.24121269728,0.003402549864179246,0.002644323072096089
6513.242212469202,0.003392905080905675,0.0026358397826131896
6513.243212241125,0.0033812005448217307,0.0026275725309973285
6513.244212013047,0.0033675561728132813,0.002619546528816434
6513.245211784971,0.003352123249593464,0.002611794835229166
6513.246211556893,0.00333507986874644,0.002604358032872794
6513.247211328816,0.003316625738157266,0.002597283637944073
6513.248211100738,0.00329697657334976,0.0025906252684818193
6513.249210872661,0.003276358323644259,0.002584441596242884
6513.250210644584,0.003255001496993203,0.00257879511941239
6513.251210416507,0.003233135842076447,0.0025737508032933247
6513.25221018843,0.0032109855949406375,0.0025693746331449624
6513.253209960352,0.0031887654160021933,0.0025657321150642644
6513.254209732275,0.0031666770647990135,0.00256288675499438
6513.255209504197,0.003144906807824169,0.002560898536597838
6513.256209276121,0.003123623527036169,0.002559822403330588
6513.257209048044,0.003102977471867009,0.0025597067443523425
6513.258208819966,0.003083099552205331,0.002560591907431481
6513.259208591889,0.0030641010056154413,0.0025625088124787174
6513.260208363811,0.0030460732291507217,0.002565477785706482
6513.261208135735,0.003029087587385921,0.0025695077408805144
6513.262207907657,0.0030131950916411883,0.00257459579314767
6513.26320767958,0.0029984259507912303,0.0025807273239201343
6513.264207451502,0.0029847890868817165,0.002587876445331498
6513.265207223425,0.002972271776334489,0.0025960067527207495
6513.266206995348,0.0029608396150796194,0.002605072214068119
6513.267206767271,0.0029504370075721592,0.002615018035934193
6513.268206539194,0.002940988341739545,0.0026257813721623302
6513.269206311116,0.0029323999361616786,0.0026372918065236416
6513.270206083039,0.002924562744153069,0.0026494716318888984
6513.271205854961,0.0029173557020324152,0.002662236031780115
6513.272205626885,0.0029106495501696468,0.002675493305571439
6513.273205398808,0.002904310938938225,0.0026891452521209534
6513.27420517073,0.0028982066286409513,0.0027030877583973417
6513.275204942653,0.0028922075862433485,0.0027172115670390574
6513.276204714575,0.0028861927874363983,0.0027314031515491273
6513.277204486499,0.002880052565946631,0.0027455456230592087
6513.278204258421,0.002873691406748104,0.002759519624668192
6513.279204030344,0.0028670301349196267,0.0027732042259362598
6513.280203802266,0.002860007486474631,0.002786477891793012
6513.281203574189,0.0028525810573605316,0.0027992196431758888
6513.2822033461125,0.0028447276297681027,0.002811310532746597
6513.283203118035,0.0028364428915086423,0.0028226355219080432
6513.284202889958,0.002827740599190146,0.002833085774022628
6513.28520266188,0.0028186512780456496,0.002842561294596091
6513.286202433803,0.0028092205812375493,0.0028509737729785867
6513.287202205725,0.0027995074338423884,0.002858249423350237
6513.288201977649,0.0027895820608855896,0.002864331593363105
6513.289201749572,0.0027795239570596224,0.0028691829155085115
6513.290201521494,0.002769419816704914,0.002872786822188541
6513.291201293417,0.0027593614245910295,0.0028751483188223298
6513.292201065339,0.0027494435149028607,0.0028762939844691666
6513.293200837263,0.00273976162513615,0.002876271223725282
6513.294200609185,0.0027304099955114394,0.0028751468215309495
6513.295200381108,0.0027214795931530473,0.0028730048619906513
6513.29620015303,0.0027130563631211305,0.002869944077352133
6513.297199924953,0.002705219811657288,0.0028660747096386757
6513.2981996968765,0.002698042012949033,0.002861515000784955
6513.299199468799,0.002691587105631847,0.0028563874643432016
6513.300199240722,0.002685911306400161,0.002850815111955932
6513.301199012644,0.002681063417836703,0.002844917801646329
6513.302198784567,0.0026770857582505206,0.0028388088545737923
6513.303198556489,0.0026740154003617733,0.0028325920752245303
6513.304198328413,0.0026718855770183876,0.0028263593154380386
6513.305198100336,0.0026707271080915196,0.0028201887283450682
6513.306197872258,0.002670569729050435,0.002814143841195348
6513.307197644181,0.0026714432397385635,0.002808273524837388
6513.308197416103,0.00267337842027538,0.002802612851627794
6513.309197188027,0.002676407678752764,0.0027971847245831785
6513.310196959949,0.0026805654032088415,0.0027920020611987215
6513.311196731872,0.002685887981407341,0.002787070268168869
6513.312196503794,0.002692413438916475,0.0027823897655910104
6513.313196275717,0.002700180662355424,0.002777958380554232
6513.3141960476405,0.0027092282335530004,0.002773773480163392
6513.315195819563,0.002719592975140736,0.002769833735072025
6513.316195591486,0.002731308359171483,0.0027661404195978524
6513.317195363408,0.002744402936866982,0.0027626981889868774
6513.318195135331,0.0027588989149178855,0.0027595153282557877
6513.319194907253,0.002774810953275705,0.0027566035251475173
6513.320194679177,0.0027921452129493624,0.0027539772705382085
6513.3211944511,0.002810898648403941,0.0027516530235799047
6513.322194223022,0.0028310585131940034,0.002749648283857214
6513.323193994945,0.00285260202583091,0.002747980685007232
6513.324193766867,0.002875496124943426,0.002746667175285954
6513.325193538791,0.002899697220840953,0.00274572329770191
6513.326193310713,0.002925150820900154,0.0027451625369064926
6513.327193082636,0.0029517908911744126,0.002744995669564337
6513.328192854558,0.0029795388493103958,0.002745230049337273
6513.329192626481,0.003008302165060013,0.0027458687800697252
6513.3301923984045,0.0030379726357923293,0.0027469097666553395
6513.331192170327,0.0030684244665825718,0.0027483446659768386
6513.33219194225,0.0030995123122013048,0.002750157792268754
6513.333191714172,0.003131069453221004,0.0027523250697768834
6513.334191486095,0.0031629062965465443,0.002754813161282895
6513.335191258018,0.003194809403403638,0.002757578913899696
6513.336191029941,0.003226541240241498,0.002760569245388139
6513.337190801864,0.0032578408217873466,0.002763721555321804
6513.338190573786,0.0032884253788026574,0.0027669646997898556
6513.339190345709,0.0033179931333090548,0.002770220519229627
6513.340190117631,0.0033462271939460842,0.002773405853500058
6513.341189889555,0.003372800493270421,0.002776434926004273
6513.342189661477,0.0033973815874088374,0.0027792219531743187
6513.3431894334,0.0034196410499058158,0.002781683847124958
6513.344189205322,0.0034392581442015016,0.0027837429085609015
6513.345188977245,0.0034559274651283734,0.0027853294271348644
6513.3461887491685,0.0034693652841506044,0.0027863841048751236
6513.347188521091,0.0034793153883563243,0.002786860198453226
6513.348188293014,0.0034855542565979908,0.002786725259529357
6513.349188064936,0.003487895473502212,0.00278596237040057
6513.350187836859,0.0034861933401729504,0.002784570831020969
6513.351187608781,0.0034803456767467547,0.00278256632342747
6513.352187380705,0.003470295815620608,0.002779980631325819
6513.353187152628,0.0034560337758928954,0.002776861020233099
6513.35418692455,0.003437596618310048,0.002773269386244503
6513.355186696473,0.0034150680099969306,0.002769281253984065
6513.356186468395,0.0033885770547565927,0.0027649846576970525
6513.357186240319,0.0033582964455785946,0.002760478902705598
6513.358186012241,0.0033244399820620083,0.0027558731893835256
6513.359185784164,0.0032872594954639783,0.00275128507011207
6513.360185556086,0.0032470412448386173,0.0027468386857605396
6513.361185328009,0.0032041018671948624,0.0027426627005998987
6513.3621850999325,0.0031587839617974248,0.002738887844932036
6513.363184871855,0.0031114513665385255,0.0027356440066255124
6513.364184643778,0.0030624841601842668,0.0027330568947867002
6513.3651844157,0.003012273411752529,0.0027312444028279766
6513.366184187623,0.002961215705381908,0.0027303128751121793
6513.367183959546,0.002909707499423733,0.002730353505447051
6513.368183731469,0.002858139423446171,0.0027314390770714933
6513.369183503392,0.0028068906582786094,0.002733621213052752
6513.370183275314,0.0027563235681126257,0.0027369282556140317
6513.371183047237,0.002706778756496714,0.002741363840073336
6513.372182819159,0.0026585707046540862,0.002746906179765753
6513.373182591083,0.002611984125316739,0.002753508033229827
6513.374182363005,0.0025672711264186827,0.0027610972849542417
6513.375182134928,0.0025246492282964363,0.0027695780484580036
6513.37618190685,0.002484300229162834,0.002778832205061562
6513.377181678773,0.002446369882885091,0.0027887213051414716
6513.3781814506965,0.002410968347772253,0.0027990887517621937
6513.379181222619,0.0023781713788008506,0.002809762164821158
6513.380180994542,0.0023480222501334256,0.002820555827958185
6513.381180766464,0.0023205343906008346,0.002831273173812336
6513.382180538387,0.0022956946814357074,0.00284170934048407
6513.38318031031,0.0022734673014724064,0.002851653888573884
6513.384180082233,0.002253797922101034,0.0028608937824605098
6513.385179854156,0.0022366179836727494,0.0028692167201689375
6513.386179626078,0.002221848766189532,0.0028764148615291643
6513.387179398001,0.0022094050216027606,0.002882288962816007
6513.388179169923,0.0021991980487476677,0.002886652872016767
6513.389178941847,0.002191138221317896,0.002889338267814185
6513.390178713769,0.0021851370776311955,0.0028901994527645316
6513.391178485692,0.002181109123466896,0.002889117967428252
6513.392178257614,0.002178973489076932,0.0028860067989812353
6513.393178029537,0.0021786555377634313,0.002880814010921912
6513.3941778014605,0.002180088467682447,0.0028735256882696392
6513.395177573383,0.002183214896109627,0.0028641681328176556
6513.396177345306,0.0021879883712250902,0.0028528092351540997
6513.397177117228,0.0021943747205199608,0.002839558912790456
6513.398176889151,0.0022023531208641097,0.002824568475209844
6513.399176661074,0.0022119167683788705,0.0028080287878039607
6513.400176432997,0.002223073036868991,0.0027901671687322223
6513.40117620492,0.002235843035274167,0.0027712430526300063
6513.402175976842,0.0022502604999155087,0.0027515425599021186
6513.403175748765,0.00226636998895006,0.002731372187895477
6513.404175520687,0.0022842243923088057,0.0027110518791449785
6513.405175292611,0.002303881822564125,0.0026909077321155667
6513.406175064533,0.0023254019909666867,0.0026712646165099685
6513.407174836456,0.002348842193740018,0.002652438945939775
6513.408174608378,0.0023742530489892096,0.002634731848959083
6513.409174380301,0.002401674141639649,0.002618422965161035
6513.4101741522245,0.0024311297480417355,0.0026037650646808684
6513.411173924147,0.0024626248166072728,0.002590979631815789
6513.41217369607,0.0024961413730344327,0.002580253470647004
6513.413173467992,0.0025316354978450954,0.002571736308138273
6513.414173239915,0.0025690349933434166,0.0025655393133889315
6513.415173011838,0.0026082378240733584,0.002561734431637489
6513.416172783761,0.0026491113838679227,0.002560354446477937
6513.417172555684,0.0026914926107018443,0.0025613937166561068
6513.418172327606,0.0027351889351849685,0.0025648095541219275
6513.419172099529,0.002779980014298288,0.002570524196383199
6513.420171871452,0.0028256201727358625,0.002578427288470392
6513.421171643375,0.0028718414427035786,0.0025883787541762936
6513.422171415297,0.002918357051994558,0.002600211915278643
6513.42317118722,0.0029648651732434926,0.0026137367135499125
6513.424170959142,0.0030110527397087285,0.0026287429139886576
6513.425170731065,0.003056599162405578,0.002645003223803906
6513.4261705029885,0.0031011798371988358,0.0026622763306642957
6513.427170274911,0.0031444693913228934,0.0026803099176556417
6513.428170046834,0.0031861446700044336,0.002698843735588971
6513.429169818756,0.0032258874945331373,0.0027176128015917143
6513.430169590679,0.003263387237834731,0.0027363507539612426
6513.431169362602,0.003298343276331069,0.002754793348340617
6513.432169134525,0.003330467393193501,0.0027726820493260136
6513.433168906448,0.0033594862171577662,0.002789767655759863
6513.43416867837,0.00338514376616363,0.0028058138816467685
6513.435168450293,0.0034072041244652975,0.002820600784893759
6513.436168222215,0.0034254542360790765,0.002833927901718622
6513.437167994139,0.0034397067679865566,0.002845616936274658
6513.438167766061,0.0034498029807896176,0.002855513896931033
6513.439167537984,0.003455615523987295,0.0028634906450626632
6513.440167309906,0.0034570510456800453,0.002869445879087583
6513.441167081829,0.003454052495573389,0.002873305590160461
6513.4421668537525,0.003446601022434215,0.002875023021424793
6513.443166625675,0.0034347174077753242,0.002874578175865611
6513.444166397598,0.0034184630104267207,0.0028719769511911563
6513.44516616952,0.0033979402137226476,0.0028672500063810684
6513.446165941443,0.0033732923742645364,0.002860451461595604
6513.447165713366,0.003344703274952728,0.0028516575089747405
6513.448165485289,0.0033123960915640797,0.0028409649893811864
6513.449165257212,0.0032766318924343798,0.002828489977558016
6513.450165029134,0.0032377076934244505,0.002814366406178923
6513.451164801057,0.003195954079072529,0.002798744735910213
6513.45216457298,0.003151732390210886,0.0027817906368913987
6513.453164344903,0.0031054314824893224,0.0027636835929160143
6513.454164116825,0.0030574640710226766,0.002744615296635831
6513.455163888748,0.0030082626789569907,0.002724787694845905
6513.45616366067,0.002958275204215096,0.0027044105693826963
6513.457163432593,0.002907960126237123,0.002683698593205556
6513.4581632045165,0.0028577814038952196,0.002662867876013037
6513.459162976439,0.002808203156059218,0.002642132093929202
6513.460162748362,0.0027596842486694024,0.0026216983600076487
6513.461162520284,0.0027126729289192117,0.0026017630238974686
6513.462162292207,0.002667601646224875,0.002582507592107562
6513.46316206413,0.002624882179894308,0.0025640949415788317
6513.464161836053,0.0025849011642385252,0.002546665969331974
6513.465161607976,0.0025480160766910473,0.002530336794032427
6513.466161379898,0.0025145517315132235,0.002515196607615415
6513.467161151821,0.0024847972881915105,0.0025013062619903873
6513.468160923744,0.002459003741030151,0.0024886976627481305
6513.469160695667,0.002437381828143742,0.0024773740252791027
6513.470160467589,0.002420100305407209,0.0024673110201562523
6513.471160239512,0.0024072845683394935,0.002458458788452083
6513.472160011434,0.0023990156466504333,0.0024507447525028473
6513.473159783357,0.002395329619616919,0.002444077099490596
6513.4741595552805,0.0023962174987327595,0.002438348783999438
6513.475159327203,0.0024016256079353562,0.002433441883418959
6513.476159099126,0.0024114564801925743,0.0024292321458066007
6513.477158871048,0.0024255702885974373,0.0024255935893006957
6513.478158642971,0.0024437868271352282,0.0024224030317426446
6513.479158414894,0.0024658880390855138,0.0024195444307541724
6513.480158186817,0.002491621060554052,0.0024169128971774172
6513.48115795874,0.002520701703217782,0.002414418230238887
6513.482157730662,0.002552818244859777,0.002411987829545893
6513.483157502585,0.00258763534911208,0.0024095688668940404
6513.484157274508,0.002624797928335279,0.0024071296436568184
6513.485157046431,0.0026639348042194334,0.0024046601112670085
6513.486156818353,0.0027046620877561275,0.0024021715811901882
6513.487156590276,0.0027465862694817838,0.002399695685101961
6513.488156362198,0.002789307072439957,0.002397282668020691
6513.489156134121,0.002832420166320002,0.0023949991217949804
6513.4901559060445,0.002875519860358105,0.0023929252998282084
6513.491155677967,0.0029182018826050126,0.0023911521784306475
6513.49215544989,0.002960066322930449,0.002389778420834763
6513.493155221812,0.003000720778831009,0.0023889073586506743
6513.494154993735,0.003039783711968608,0.0023886440647328416
6513.495154765658,0.003076888013186391,0.0023890925761807795
6513.496154537581,0.0031116847831683995,0.002390353326307924
6513.497154309504,0.0031438473438626774,0.0023925208342544415
6513.498154081426,0.0031730754762245177,0.0023956816744316236
6513.499153853349,0.0031990998261632844,0.00239991272002727
6513.500153625272,0.0032216863530788588,0.0024052796374253505
6513.501153397195,0.0032406406395194954,0.002411835602654839
6513.502153169117,0.0032558118479797168,0.002419620216508787
6513.50315294104,0.0032670961056388927,0.0024286586099964
6513.504152712962,0.003274439122527481,0.002438960746813492
6513.505152484886,0.003277837896756419,0.002450520934467104
6513.5061522568085,0.0032773414174046217,0.0024633175507726528
6513.507152028731,0.0032730503370932214,0.0024773129853920923
6513.508151800654,0.0032651156608389355,0.002492453792347723
6513.509151572576,0.0032537365766535974,0.002508671049461598
6513.510151344499,0.003239157597633834,0.0025258809244677193
6513.511151116422,0.0032216651668895615,0.0025439854552282695
6513.512150888345,0.0032015838153483882,0.0025628735589663396
6513.513150660268,0.003179271902745777,0.002582422288977135
6513.51415043219,0.0031551169380886904,0.0026024983603054586
6513.515150204113,0.003129530464970853,0.0026229599686725434
6513.516149976036,0.0031029425039072545,0.0026436589159004567
6513.517149747959,0.0030757955699119914,0.002664443016430893
6513.518149519881,0.0030485383253032487,0.0026851586991817216
6513.519149291804,0.0030216189678080587,0.00270565366248203
6513.520149063726,0.002995478474669092,0.0027257794148982536
6513.52114883565,0.0029705438289768125,0.0027453935505300704
6513.5221486075725,0.0029472213668849606,0.0027643616495603013
6513.523148379495,0.002925890409470179,0.0027825587454581298
6513.524148151418,0.0029068973569158843,0.002799870352813529
6513.52514792334,0.0028905504020048513,0.0028161930986810627
6513.526147695263,0.002877114968810552,0.002831435034918289
6513.527147467186,0.0028668099214762574,0.0028455157312340397
6513.528147239109,0.0028598045319621927,0.0028583662721767254
6513.529147011032,0.0028562161547947594,0.002869929300983726
6513.530146782954,0.002856108547564422,0.0028801592393151074
6513.531146554877,0.0028594908148363365,0.0028890227457503814
6513.5321463268,0.0028663170352276695,0.002896499376813666
6513.533146098723,0.002876486719457513,0.0029025823247616376
6513.534145870645,0.0028898462933491546,0.0029072790593012974
6513.535145642568,0.0029061917805182622,0.002910611704532763
6513.53614541449,0.002925272784865616,0.0029126170287548125
6513.537145186414,0.0029467977674544955,0.002913345990582659
6513.5381449583365,0.0029704404968492054,0.0029128628390339252
6513.539144730259,0.0029958474407116445,0.00291124379174009
6513.540144502182,0.0030226457748517683,0.002908575325270714
6513.541144274104,0.003050451640390453,0.0029049521202249053
6513.542144046027,0.0030788783035280327,0.002900474715363478
6513.54314381795,0.0031075439518109278,0.00289524694647724
6513.544143589873,0.0031360789458030913,0.0028893732845695326
6513.545143361795,0.003164132397846536,0.002882956225763648
6513.546143133718,0.003191377972206529,0.002876093886388539
6513.547142905641,0.0032175188115812882,0.002868877916696829
6513.548142677564,0.0032422915049415326,0.002861391803769007
6513.549142449487,0.0032654690290710112,0.002853709618202635
6513.550142221409,0.003286862622846658,0.002845895252190597
6513.551141993332,0.0033063225768365993,0.002838002162300756
6513.552141765254,0.0033237379368309746,0.0028300735715387814
6513.553141537178,0.003339035153397233,0.002822143045009228
6513.5541413091005,0.0033521757838195776,0.002814235356035679
6513.555141081023,0.003363153444694018,0.002806367580036684
6513.556140852946,0.0033719902668117945,0.002798550354395132
6513.557140624868,0.0033787330886777974,0.002790789214510951
6513.558140396792,0.0033834495659154987,0.0027830858747463984
6513.559140168714,0.00338622431976336,0.0027754392921057226
6513.560139940637,0.0033871552232646435,0.0027678463545414357
6513.561139712559,0.0033863499133999124,0.0027603020882475265
6513.562139484482,0.003383922594233126,0.0027527993694065546
6513.563139256405,0.003379991153550582,0.002745328221746364
6513.564139028328,0.0033746745674732162,0.002737874843030895
6513.565138800251,0.0033680905313476653,0.002730420519455072
6513.566138572173,0.0033603532431002382,0.0027229405822960695
6513.567138344096,0.0033515712787781497,0.002715403565315762
6513.568138116018,0.003341845528957793,0.0027077707315850564
6513.569137887942,0.0033312672056162763,0.0026999961282132777
6513.5701376598645,0.003319915994185161,0.0026920272784811848
6513.571137431787,0.0033078585105671614,0.002683806536910899
6513.57213720371,0.003295147283821601,0.0026752730357890984
6513.573136975632,0.0032818204752190516,0.002666365071989424
6513.574136747555,0.0032679024655242867,0.0026570227422032635
6513.575136519478,0.0032534053455781893,0.002647190628949128
6513.576136291401,0.0032383312816244517,0.002636820351101178
6513.577136063323,0.0032226757005487075,0.0026258728185411286
6513.578135835246,0.003206431210951395,0.0026143200790679595
6513.579135607169,0.00318959210916031,0.002602146706288879
6513.580135379092,0.003172159223448445,0.0025893507249700526
6513.581135151015,0.0031541447636956954,0.0025759440949632124
6513.582134922937,0.0031355768036646506,0.002561952783429831
6513.58313469486,0.003116503044162958,0.002547416456533004
6513.584134466782,0.003096993579283718,0.002532387822547701
6513.585134238706,0.0030771424879365433,0.0025169316652219175
6513.5861340106285,0.0030570681654529383,0.0025011236233541284
6513.587133782551,0.0030369123744194383,0.002485048794565368
6513.588133554474,0.003016838038469521,0.0024688002514506023
6513.589133326396,0.0029970258497585265,0.0024524775402099785
6513.59013309832,0.002977669813949621,0.00243618518989115
6513.591132870242,0.002958971908850944,0.0024200312257099273
6513.592132642165,0.0029411360943071264,0.0024041256805483594
6513.593132414087,0.002924361985885131,0.0023885791256761267
6513.59413218601,0.002908838561159892,0.0023735012644916357
6513.595131957933,0.0028947382704144456,0.0023589996386693913
6513.596131729856,0.002882211877167805,0.0023451784915863405
6513.597131501779,0.0028713842789855094,0.0023321378264657493
6513.598131273701,0.002862351464748895,0.0023199726892264958
6513.599131045624,0.0028551786632018262,0.002308772698841635
6513.600130817546,0.0028498996555727865,0.002298621835639583
6513.60113058947,0.0028465171777612634,0.002289598471902446
6513.6021303613925,0.0028450043099624168,0.0022817755863235468
6513.603130133315,0.0028453067193394553,0.002275221053254839
6513.604129905238,0.002847345580767942,0.0022699978615572784
6513.60512967716,0.00285102096701792,0.002266164122351685
6513.606129449084,0.0028562154873330845,0.0022637727767017943
6513.607129221006,0.0028627979672197854,0.002262870989191964
6513.608128992929,0.0028706269991331254,0.0022634992787060925
6513.609128764851,0.002879554243366887,0.002265690478724351
6513.610128536774,0.002889427406685819,0.0022694686368683113
6513.611128308697,0.002900092862318871,0.002274847958692564
6513.61212808062,0.0029113978968020064,0.0022818318757776503
6513.613127852543,0.002923192580070014,0.002290412282122399
6513.614127624465,0.002935331260192394,0.00230056895183513
6513.615127396388,0.0029476736900750293,0.002312269140432807
6513.61612716831,0.0029600858006632517,0.0023254673820279816
6513.617126940234,0.002972440133000916,0.002340105505707545
6513.6181267121565,0.0029846159239848738,0.0023561128878631164
6513.619126484079,0.0029964988210378573,0.002373406940035645
6513.620126256002,0.0030079802060604672,0.0023918938253665984
6513.621126027924,0.003018956159937877,0.0024114694051968885
6513.622125799848,0.0030293261846466558,0.002432020424199359
6513.62312557177,0.003038991872999907,0.0024534259328116794
6513.624125343693,0.0030478557316503986,0.0024755589174382765
6513.625125115615,0.0030558203183232084,0.002498288071129377
6513.626124887538,0.003062787778583256,0.0025214796106356697
6513.627124659461,0.003068659792375794,0.0025449990525139698
6513.628124431384,0.003073337885206385,0.0025687129069454774
6513.629124203307,0.0030767240257404383,0.0025924903095734353
6513.630123975229,0.003078721417539295,0.002616204649575323
6513.631123747152,0.003079235402607831,0.002639735246720655
6513.632123519074,0.0030781744277165787,0.002662969096186289
6513.633123290998,0.003075451058678151,0.0026858026586612706
6513.6341230629205,0.003070983042320569,0.0027081436288995606
6513.635122834843,0.003064694416159322,0.002729912567857519
6513.636122606766,0.0030565166644770086,0.0027510442447334304
6513.637122378688,0.003046389912515024,0.0027714885292320817
6513.638122150612,0.0030342641267491256,0.0027912107112813356
6513.639121922534,0.0030201002530700267,0.00281019117971962
6513.640121694457,0.0030038711966630096,0.0028284244272454044
6513.641121466379,0.002985562550653586,0.0028459173682455863
6513.642121238302,0.002965173028515867,0.0028626869904725106
6513.6431210102255,0.00294271463559271,0.002878757421225427
6513.644120782148,0.0029182126869483622,0.0028941565513778797
6513.645120554071,0.0028917058053121877,0.0029089124013488127
6513.646120325993,0.0028632460115576176,0.002923049427295897
6513.647120097916,0.002832898971422678,0.0029365849672807636
6513.648119869838,0.0028007444101451327,0.0029495260286931716
6513.649119641762,0.0027668766736869688,0.002961866613058618
6513.6501194136845,0.0027314054083096492,0.002973585742673072
6513.651119185607,0.002694456335747816,0.002984646290462398
6513.65211895753,0.0026561721069998595,0.0029949946426819497
6513.653118729452,0.002616713224423639,0.0030045611707081015
6513.654118501376,0.002576259022769097,0.003013261459739094
6513.655118273298,0.0025350086738607355,0.0030209982295745013
6513.656118045221,0.002493182116847912,0.003027663877341952
6513.657117817143,0.0024510207370340626,0.00303314356750888
6513.658117589066,0.0024087875611088234,0.0030373187793779196
6513.6591173609895,0.002366766738691263,0.003040071185617398
6513.660117132912,0.00232526214556877,0.0030412866825816217
6513.661116904835,0.0022845950409076587,0.0030408593473285144
6513.662116676757,0.0022451007867139144,0.0030386950798657057
6513.66311644868,0.0022071246678276187,0.003034714714873482
6513.664116220602,0.0021710168614117965,0.0030288564609748892
6513.665115992526,0.002137126638240397,0.0030210776361879743
6513.6661157644485,0.0021057959415007816,0.0030113557756876203
6513.667115536371,0.002077352553702224,0.002999689246713948
6513.668115308294,0.0020521031009006524,0.0029860975011079104
6513.669115080216,0.0020303261527447026,0.002970621054313693
6513.67011485214,0.002012265668333693,0.0029533212408427677
6513.671114624062,0.001998125017356761,0.0029342797825033474
6513.672114395985,0.001988061769462088,0.002913598209881218
6513.673114167907,0.0019821833909283377,0.0028913971755713487
6513.67411393983,0.001980543930257643,0.002867815674445689
6513.6751137117535,0.0019831417371908317,0.0028430101505836237
6513.676113483676,0.0019899182533586286,0.002817153439590546
6513.677113255599,0.002000757919156664,0.0027904334730088657
6513.678113027521,0.002015489230696075,0.002763051658933525
6513.679112799444,0.00203388694122,0.0027352208629254017
6513.680112571366,0.0020556753463700328,0.0027071629556394824
6513.68111234329,0.00208053254684263,0.0026791059574499156
6513.6821121152125,0.002108095567731606,0.00265128087889995
6513.683111887135,0.0021379662354145614,0.0026239184166989065
6513.684111659058,0.002169717746816081,0.0025972457007710317
6513.68511143098,0.0022029018786765132,0.0025714832819294237
6513.686111202904,0.0022370567618454794,0.0025468425028796838
6513.687110974826,0.002271715101959653,0.002523523323455255
6513.688110746749,0.002306412688873484,0.002501712598651874
6513.689110518671,0.002340697015075054,0.0024815827622534205
6513.690110290594,0.002374135809312696,0.0024632908591657185
6513.6911100625175,0.0024063252741576683,0.002446977878186724
6513.69210983444,0.0024368978006048003,0.00243276834321993
6513.693109606363,0.002465528938116511,0.0024207701212324234
6513.694109378285,0.002491943436108985,0.0024110743992565146
6513.695109150208,0.002515920230236406,0.0024037557644479668
6513.696108922131,0.002537296291743182,0.0023988722954534124
6513.697108694054,0.0025559692632923007,0.0023964655591805087
6513.6981084659765,0.002571898775078102,0.0023965604155904777
6513.699108237899,0.002585106307755479,0.0023991645575932715
6513.700108009822,0.002595673477916861,0.0024042677442350038
6513.701107781744,0.002603738669681233,0.0024118407247994654
6513.702107553668,0.00260949200289352,0.002421833906250508
6513.70310732559,0.002613168702007804,0.002434175881998539
6513.704107097513,0.0026150410146818827,0.0024487719941010825
6513.705106869435,0.002615408930416894,0.0024655031213233593
6513.706106641358,0.002614590049219768,0.0024842248695061825
6513.7071064132815,0.002612909013223554,0.0025047673047531296
6513.708106185204,0.002610686926122838,0.002526935332293845
6513.709105957127,0.0026082311658431226,0.0025505097926317674
6513.710105729049,0.0026058259629677576,0.0025752493221378727
6513.711105500972,0.00260372406407516,0.0026008930051320263
6513.712105272894,0.0026021397203377285,0.0026271638204117503
6513.713105044818,0.002601243160534241,0.0026537728455781413
6513.7141048167405,0.002601156655732535,0.0026804241257587626
6513.715104588663,0.002601952262136801,0.0027068200530915095
6513.716104360586,0.0026036513047605404,0.0027326670591414706
6513.717104132508,0.0026062256067455173,0.0027576814057518203
6513.718103904432,0.002609600385993585,0.002781594868116938
6513.719103676354,0.00261365866455761,0.002804160128663756
6513.720103448277,0.0026182469821957495,0.0028251557329485267
6513.721103220199,0.00262318216647256,0.0028443904847034913
6513.722102992122,0.0026282588789913104,0.002861707162071739
6513.7231027640455,0.0026332576283935975,0.002876985424143705
6513.724102535968,0.002637952924073234,0.0028901437662735663
6513.725102307891,0.0026421212612506633,0.002901140392227414
6513.726102079813,0.002645548686032262,0.0029099729040815785
6513.727101851736,0.00264803776074125,0.0029166767624087615
6513.728101623659,0.002649413799473875,0.002921322540567643
6513.729101395582,0.002649530265166686,0.0029240120879706457
6513.7301011675045,0.0026482732279130583,0.0029248738117668275
6513.731100939427,0.002645564790425771,0.0029240573591643054
6513.73210071135,0.002641365396989707,0.002921728020919768
6513.733100483272,0.0026356749706142424,0.0029180611823312335
6513.734100255196,0.0026285328767883787,0.0029132371231502486
6513.735100027118,0.002620016777720352,0.0029074364103124427
6513.736099799041,0.002610240495934532,0.002900836044975486
6513.737099570963,0.0025993510350189905,0.002893606439236897
6513.738099342886,0.002587524901556721,0.0028859092247989332
6513.7390991148095,0.0025749638448398266,0.002877895834850298
6513.740098886732,0.0025618901086062328,0.0028697067454918697
6513.741098658655,0.002548541297472014,0.002861471217940278
6513.742098430577,0.002535164993989161,0.0028533073558459176
6513.7430982025,0.002522013291047524,0.002845322288590125
6513.744097974423,0.0025093374075711326,0.002837612318498896
6513.745097746346,0.002497382531178558,0.0028302629305138193
6513.7460975182685,0.0024863829915446243,0.002823348634742652
6513.747097290191,0.002476557833062986,0.002816932658332845
6513.748097062114,0.0024681068383766466,0.0028110665136877135
6513.749096834036,0.002461207049883591,0.0028057894693622656
6513.75009660596,0.002456009834892575,0.0028011279582733513
6513.751096377882,0.002452638542143393,0.0027970949720530253
6513.752096149805,0.002451186802631198,0.0027936894987128425
6513.753095921727,0.0024517175261422955,0.002790896059971816
6513.75409569365,0.0024542626262544767,0.0027886844007676535
6513.7550954655735,0.002458823467007834,0.002787009380935963
6513.756095237496,0.002465371966583908,0.0027858111156416248
6513.757095009419,0.002473852232174723,0.0027850154048652594
6513.758094781341,0.0024841825655152077,0.0027845344833321486
6513.759094553264,0.0024962576931093165,0.0027842681121173656
6513.760094325187,0.00250995112589483,0.002784105025925919
6513.76109409711,0.002525117597674571,0.002783924745120287
6513.7620938690325,0.002541595542906191,0.002783599746372231
6513.763093640955,0.0025592095648434665,0.002782997951918856
6513.764093412878,0.002577772841875112,0.0027819854593881727
6513.7650931848,0.0025970894339025848,0.002780429417965958
6513.766092956724,0.0026169564746395084,0.0027782009717546396
6513.767092728646,0.0026371662606854756,0.002775178221715127
6513.768092500569,0.002657508273543625,0.0027712491799005974
6513.769092272491,0.002677771198468164,0.0027663146932701923
6513.770092044414,0.0026977450227915144,0.0027602913045090896
6513.7710918163375,0.0027172232861906206,0.0027531140033171257
6513.77209158826,0.002736005514549753,0.002744738808999507
6513.773091360183,0.002753899818604767,0.0027351451166118526
6513.774091132105,0.0027707255954214517,0.0027243377344311473
6513.775090904028,0.0027863162344969,0.0027123485342756145
6513.776090675951,0.0028005216972309616,0.0026992376233945722
6513.777090447874,0.0028132108173156488,0.002685093936431744
6513.7780902197965,0.0028242731796601526,0.002670035155178589
6513.779089991719,0.002833620488223138,0.002654206896852064
6513.780089763642,0.0028411874113123225,0.0026377811574818328
6513.781089535565,0.0028469319588287655,0.0026209540433544606
6513.782089307488,0.002850835473975074,0.00260394286005293
6513.78308907941,0.002852902312524242,0.0025869826428532748
6513.784088851333,0.0028531592504278114,0.0025703221987971063
6513.785088623255,0.0028516546210136454,0.002554219701460549
6513.786088395178,0.0028484571480084935,0.0025389378540077914
6513.7870881671015,0.0028436544242353605,0.0025247386310906284
6513.788087939024,0.002837351006651909,0.002511877634377333
6513.789087710947,0.0028296661538746784,0.0025005981426560763
6513.790087482869,0.0028207312849334726,0.0024911249853751634
6513.791087254792,0.002810687254520513,0.00248365840758877
6513.792087026715,0.0027996815283993434,0.0024783681293550517
6513.793086798638,0.0027878653317484495,0.002475387833565681
6513.7940865705605,0.0027753908468458924,0.0024748103300319953
6513.795086342483,0.002762408547818753,0.0024766836279260544
6513.796086114406,0.0027490647636573087,0.002481008101346469
6513.797085886328,0.0027354995429377006,0.002487734863054453
6513.798085658252,0.0027218448525027843,0.002496765386140833
6513.799085430174,0.002708223091638473,0.0025079523504321585
6513.800085202097,0.00269474586713699,0.0025211016523621907
6513.801084974019,0.0026815129689991015,0.0025359755041584513
6513.802084745942,0.0026686115043277896,0.0025522965472697073
6513.8030845178655,0.0026561151690054994,0.002569752899306263
6513.804084289788,0.002644083654359063,0.0025880040318291327
6513.805084061711,0.002632562200425805,0.0026066873362561266
6513.806083833633,0.0026215813165640887,0.0026254251920456435
6513.807083605556,0.002611156692038559,0.002643832326516387
6513.808083377479,0.002601289318277911,0.002661523251340747
6513.809083149402,0.002591965844587366,0.0026781195655979375
6513.8100829213245,0.002583159186519166,0.002693256930988127
6513.811082693247,0.002574829392302536,0.0027065915597266716
6513.81208246517,0.002566924746349817,0.0027178061043471977
6513.813082237093,0.0025593830670456092,0.0027266148897167647
6513.814082009016,0.0025521331615975394,0.002732768473000791
6513.815081780938,0.0025450964299611445,0.002736057546427783
6513.816081552861,0.002538188627924666,0.002736316202447513
6513.817081324783,0.0025313217821405234,0.0027334245655926915
6513.818081096706,0.0025244062160475534,0.002727310770709434
6513.8190808686295,0.0025173526288834766,0.0027179522444254595
6513.820080640552,0.0025100741735146676,0.002705376239726676
6513.821080412475,0.0025024884846609062,0.0026896595911137106
6513.822080184397,0.0024945196171965393,0.002670927689700722
6513.82307995632,0.0024860998757106445,0.002649352700858619
6513.824079728243,0.0024771715375188266,0.002625151047947994
6513.825079500166,0.002467688461775095,0.0025985801684869645
6513.8260792720885,0.002457617532902683,0.002569934530227243
6513.827079044011,0.002446939836114983,0.002539540893701289
6513.828078815934,0.002435651441985629,0.0025077528346988134
6513.829078587857,0.0024237637044980053,0.002474944590725989
6513.83007835978,0.0024113030412000708,0.0024415043598043037
6513.831078131702,0.002398310229134461,0.00240782724352722
6513.832077903625,0.002384839285266834,0.002374308069226381
6513.833077675547,0.00237095600407676,0.0023413343367877583
6513.83407744747,0.0023567362200966955,0.0023092795218158284
6513.8350772193935,0.0023422638679276284,0.0022784969429187254
6513.836076991316,0.002327628925323863,0.002249314372036916
6513.837076763239,0.002312925334001306,0.0022220295331143165
6513.838076535161,0.002298248987884705,0.002196906598799258
6513.839076307084,0.002283695858089335,0.002174173755705621
6513.840076079007,0.002269360300396492,0.002154021857841145
6513.84107585093,0.00225533358450102,0.002136604124148827
6513.8420756228525,0.002241702700166126,0.0021220367728283923
6513.843075394775,0.0022285495136715326,0.0021104004379266504
6513.844075166698,0.0022159503423235085,0.0021017421894684593
6513.845074938621,0.0022039759759032,0.0020960779727194063
6513.846074710544,0.002192692112678366,0.002093395281466142
6513.847074482466,0.0021821601148272756,0.0020936558746523387
6513.848074254389,0.00217243794364794,0.0020967983443477213
6513.849074026311,0.0021635811212332282,0.0021027403621286423
6513.850073798234,0.0021556435862980375,0.002111380469187671
6513.8510735701575,0.0021486783605440853,0.002122599320530374
6513.85207334208,0.002142737995560504,0.002136260346074637
6513.853073114003,0.002137874799327767,0.002152209857205208
6513.854072885925,0.0021341408359876663,0.002170276695820516
6513.855072657848,0.002131587672910908,0.002190271577424689
6513.856072429771,0.0021302658413045648,0.002211986316306503
6513.857072201694,0.002130223986826954,0.002235193142275631
6513.8580719736165,0.0021315077077143415,0.0022596443271596304
6513.859071745539,0.0021341581053668864,0.002285072336887803
6513.860071517462,0.0021382101016453525,0.002311190705698804
6513.861071289385,0.0021436906005455536,0.0023376957825577997
6513.862071061308,0.002150616588024665,0.00236426942972862
6513.86307083323,0.0021589932769460938,0.0023905826788762157
6513.864070605153,0.002168812414680039,0.0024163002852281732
6513.865070377075,0.0021800508745338327,0.0024410860625477446
6513.866070148999,0.0021926696432311064,0.002464608825816745
6513.8670699209215,0.0022066132921198995,0.0024865487235282945
6513.868069692844,0.00222180998706558,0.0025066037204877155
6513.869069464767,0.0022381720639734646,0.0025244959905021294
6513.870069236689,0.0022555971752737645,0.0025399779785685293
6513.871069008612,0.002273969987237284,0.0025528378896877224
6513.872068780535,0.0022931643719870595,0.0025629043714005427
6513.873068552458,0.0023130459948887696,0.0025700501913711016
6513.8740683243805,0.002333475155179828,0.0025741947647529534
6513.875068096303,0.002354309702011497,0.0025753054509208553
6513.876067868226,0.0023754078266695977,0.002573397615076372
6513.877067640149,0.0023966305354141204,0.0025685335321421433
6513.878067412072,0.0024178436452891297,0.0025608202791005228
6513.879067183994,0.0024389192114283057,0.0025504067960513874
6513.880066955917,0.002459736369133193,0.0025374802918905893
6513.881066727839,0.0024801816446153482,0.0025222621456394254
6513.882066499763,0.002500148855714933,0.002505003431149909
6513.8830662716855,0.0025195387819852456,0.0024859801793403035
6513.884066043608,0.002538258807215914,0.0024654884846506187
6513.885065815531,0.002556222705641103,0.002443839557652988
6513.886065587453,0.002573350665882235,0.0024213548223773304
6513.887065359376,0.0025895695624292133,0.0023983611505303606
6513.888065131299,0.002604813434018238,0.0023751863111104404
6513.889064903222,0.0026190241269573246,0.002352154694778946
6513.8900646751445,0.0026321520862509673,0.002329583351349551
6513.891064447067,0.002644157289624035,0.0023077783556945393
6513.89206421899,0.0026550103044691744,0.002287031494132106
6513.893063990913,0.0026646934225689977,0.0022676172485625807
6513.894063762836,0.002673201814809362,0.0022497900541271396
6513.895063534758,0.002680544649837794,0.0022337818119406018
6513.896063306681,0.0026867461161902166,0.002219799647385081
6513.897063078603,0.0026918462578022274,0.0022080239231121136
6513.898062850527,0.0026959014838270684,0.0021986065462288374
6513.8990626224495,0.002698984573302382,0.002191669635860927
6513.900062394372,0.002701183993704949,0.0021873046227861783
6513.901062166295,0.0027026024039864074,0.0021855718362558973
6513.902061938217,0.002703354307149308,0.0021865006071289765
6513.90306171014,0.0027035629274141395,0.0021900898944927547
6513.904061482063,0.002703356484966228,0.002196309433346173
6513.905061253986,0.002702864111630385,0.0022051014029322797
6513.9060610259085,0.002702211690729829,0.0022163826175775996
6513.907060797831,0.0027015179145585115,0.0022300472300478586
6513.908060569754,0.0027008908300286266,0.002245969904950762
6513.909060341677,0.0027004250877846843,0.0022640093737398247
6513.9100601136,0.0027002000386662363,0.0022840122427004853
6513.911059885522,0.002700278754985994,0.0023058169094382673
6513.912059657445,0.0027007079967113746,0.002329257452004442
6513.913059429367,0.002701519082532764,0.0023541673702863848
6513.914059201291,0.002702729555286504,0.0023803830653678355
6513.9150589732135,0.002704345456154747,0.0024077469362659204
6513.916058745136,0.002706363960000096,0.0024361099619180163
6513.917058517059,0.00270877609713741,0.0024653336306806775
6513.918058288981,0.002711569303061022,0.0024952910910336183
6513.919058060905,0.0027147295804092683,0.0025258674312954406
6513.920057832827,0.0027182431045849917,0.0025569590511402176
6513.92105760475,0.002722097153719767,0.0025884721598702916
6513.9220573766725,0.002726280308111669,0.002620320519043535
6513.923057148595,0.002730781948923876,0.002652422620812595
6513.924056920518,0.00273559117476618,0.002684698533802437
6513.925056692441,0.0027406953160372094,0.002717066648740023
6513.926056464364,0.002746078234588416,0.0027494405319874625
6513.927056236286,0.0027517185548170766,0.002781726067661928
6513.928056008209,0.0027575879173389523,0.0028138190478794655
6513.929055780131,0.002763649313276145,0.002845603351218914
6513.930055552055,0.0027698555525903796,0.0028769498224163166
6513.9310553239775,0.0027761479308169397,0.002907715926259094
6513.9320550959,0.002782455174147073,0.00293774619545184
6513.933054867823,0.0027886927515731073,0.0029668734324271922
6513.934054639745,0.0027947626279016696,0.0029949205723957665
6513.935054411668,0.002800553489341841,0.0030217030826863197
6513.936054183591,0.0028059414234075297,0.003047031767243411
6513.937053955514,0.002810790999368432,0.0030707158604581578
6513.938053727436,0.002814956682112036,0.003092566318291983
6513.939053499359,0.0028182845191930734,0.0031123992376267786
6513.940053271282,0.0028206140688011652,0.0031300393605431624
6513.941053043205,0.002821780584102675,0.0031453236500598287
6513.942052815128,0.0028216175147767904,0.0031581049403858587
6513.94305258705,0.0028199593922006425,0.003168255647769494
6513.944052358973,0.0028166451203243694,0.003175671478671683
6513.945052130895,0.002811521638878187,0.0031802750085966796
6513.946051902819,0.002804447906600914,0.0031820189468120155
6513.9470516747415,0.002795299168433996,0.0031808888679553974
6513.948051446664,0.0027839714751135905,0.003176905200523732
6513.949051218587,0.0027703863805265422,0.0031701243220767956
6513.950050990509,0.0027544956640133643,0.003160638702456425
6513.951050762433,0.0027362858568645426,0.003148576119514614
6513.952050534355,0.0027157823318381094,0.003134098014436872
6513.953050306278,0.0026930527383396273,0.00311739705317874
6513.9540500782,0.0026682095981949475,0.0030986939383809923
6513.955049850123,0.0026414118944711076,0.003078233499631639
6513.956049622046,0.002612865502854007,0.0030562801003336556
6513.957049393969,0.0025828223601928285,0.003033112440123724
6513.958049165892,0.0025515783426450834,0.003009017880537864
6513.959048937814,0.0025194699051413684,0.0029842864510296494
6513.960048709737,0.002486869575558989,0.0029592047023639504
6513.961048481659,0.0024541803931373072,0.0029340495884752726
6513.962048253583,0.002421829360869588,0.0029090825871848957
6513.9630480255055,0.002390259987911399,0.002884544295519871
6513.964047797428,0.002359924054058492,0.0028606497278192695
6513.965047569351,0.002331272819060213,0.0028375844948609385
6513.966047341273,0.002304747978691505,0.0028155019690042677
6513.967047113197,0.0022807726943220633,0.0027945214758414586
6513.968046885119,0.0022597429878994726,0.0027747275140800843
6513.969046657042,0.002242019734054124,0.002756169981617465
6513.970046428964,0.002227921432431777,0.0027388653568986166
6513.971046200887,0.0022177179085374884,0.0027227987451235395
6513.97204597281,0.002211625047182809,0.0027079266579256712
6513.973045744733,0.0022098006027645232,0.0026941803649055797
6513.974045516656,0.0022123410806939295,0.002681469647075818
6513.975045288578,0.002219279670862689,0.0026696868030288913
6513.976045060501,0.0022305852297381445,0.0026587108008517464
6513.977044832423,0.0022461623178452184,0.002648411507382833
6513.978044604347,0.00226585228057376,0.0026386539383979673
6513.9790443762695,0.0022894353224334084,0.0026293024612498465
6513.980044148192,0.002316633496608991,0.0026202248685433063
6513.981043920115,0.0023471145320030514,0.002611296241822185
6513.982043692037,0.002380496443724785,0.002602402528916784
6513.983043463961,0.0024163528966557987,0.0025934437538766074
6513.984043235883,0.002454219292129914,0.002584336766593567
6513.985043007806,0.0024935995204369526,0.0025750174344654595
6513.986042779728,0.0025339732867134487,0.002565442193315049
6513.987042551651,0.0025748039024903807,0.0025555889167805422
6513.988042323574,0.002615546446115045,0.0025454571306551205
6513.989042095497,0.002655656209152134,0.002535067668274913
6513.99004186742,0.002694597332829967,0.0025244618989516835
6513.991041639342,0.002731851489775783,0.0025137006464549566
6513.992041411265,0.0027669264029705075,0.0025028628649093596
6513.993041183187,0.0027993639520905705,0.002492044085994159
6513.994040955111,0.0028287476163166283,0.002481354615722638
6513.9950407270335,0.002854709031778587,0.0024709174460438117
6513.996040498956,0.002876933483781677,0.0024608658531699253
6513.997040270879,0.0028951642027244848,0.0024513406807196566
6513.998040042801,0.0029092053828522735,0.00244248734564251
6513.999039814725,0.0029189238850003954,0.002434452638939089
6514.000039586647,0.002924249617901567,0.0024273814050940483
6514.00103935857,0.002925174629639766,0.0024214131790253417
6514.002039130492,0.0029217509913841444,0.002416678856743969
6514.003038902415,0.0029140876128448813,0.0024132974881309536
6514.0040386743385,0.0029023461678652734,0.002411373299354204
6514.005038446261,0.0028867363074163914,0.00241099305924003
6514.006038218184,0.0028675103066332724,0.0024122238875673167
6514.007037990106,0.002844957266911293,0.002415111568285919
6514.008037762029,0.0028193969897631252,0.0024196793907648698
6514.009037533951,0.0027911736412078773,0.0024259275110107407
6514.010037305875,0.0027606493206828457,0.0024338328071610853
6514.0110370777975,0.0027281976469766514,0.0024433491983943847
6514.01203684972,0.002694197485357696,0.0024544084063802
6514.013036621643,0.002659026950706431,0.0024669211602477625
6514.014036393565,0.0026230578108922178,0.002480778858838613
6514.015036165489,0.0025866503826369987,0.0024958556913237673
6514.016035937411,0.002550148975234238,0.0025120111904559524
6514.017035709334,0.0025138779158158818,0.002529093169152855
6514.018035481256,0.002478138196815931,0.0025469409652476046
6514.019035253179,0.00244320481538749,0.0025653888786567754
6514.020035025103,0.002409324899233903,0.002584269641862037
6514.021034797025,0.0023767167088467613,0.002603417749659556
6514.022034568948,0.00234556956814446,0.002622672506341648
6514.02303434087,0.002316044717021329,0.0026418807156507428
6514.024034112793,0.002288277015344449,0.00266089900529501
6514.025033884715,0.0022623773644089014,0.0026795958094306925
6514.026033656639,0.0022384356506354435,0.0026978530233012273
6514.0270334285615,0.0022165239690369438,0.0027155673186649446
6514.028033200484,0.002196699869670018,0.0027326510943102068
6514.029032972407,0.002179009396417676,0.002749033040431382
6514.030032744329,0.00216348974780415,0.0027646583117877117
6514.031032516253,0.002150171475082938,0.00277948832387085
6514.032032288175,0.002139080222847218,0.0027935002020973475
6514.033032060098,0.0021302380747224127,0.0028066859230134367
6514.03403183202,0.0021236645707386256,0.0028190511899456715
6514.035031603943,0.0021193774345341643,0.0028306140846062144
6514.0360313758665,0.002117393023595405,0.002841403530210238
6514.037031147789,0.0021177265100668623,0.002851457593620778
6514.038030919712,0.002120391808138028,0.0028608216503561296
6514.039030691634,0.0021254012778657862,0.0028695464407420463
6514.040030463557,0.0021327652499673762,0.0028776860559728288
6514.041030235479,0.002142491430390174,0.0028852959000284025
6514.042030007403,0.002154584255729043,0.0028924306687213904
6514.0430297793255,0.002169044272778996,0.0028991423823798205
6514.044029551248,0.002185867596084378,0.0029054785277667747
6514.045029323171,0.0022050454577578916,0.002911480401669717
6514.046029095093,0.0022265638237588085,0.0029171817630657525
6514.047028867017,0.002250403025105714,0.0029226078715598376
6514.048028638939,0.0022765373328957617,0.0029277749390863982
6514.049028410862,0.002304934380127646,0.002932689980927824
6514.050028182784,0.0023355543121803437,0.002937351031414984
6514.051027954707,0.002368348558573215,0.002941747683995722
6514.052027726631,0.0024032581737610972,0.0029458619162508765
6514.053027498553,0.0024402117768053747,0.002949669162461771
6514.054027270476,0.0024791231973047816,0.0029531395983456075
6514.055027042398,0.00251988898596353,0.002956239603029654
6514.056026814321,0.0025623859651750834,0.0029589333595200387
6514.057026586244,0.0026064689842976944,0.0029611845504742833
6514.058026358167,0.0026519690315673764,0.0029629581124185817
6514.0590261300895,0.002698691866515352,0.0029642220361194124
6514.060025902012,0.0027464173619479934,0.0029649492321713773
6514.061025673935,0.0027948997385506573,0.0029651194893888654
6514.062025445857,0.0028438688139622178,0.002964721518630656
6514.063025217781,0.0028930322930272793,0.002963755010521831
6514.064024989703,0.002942079032554066,0.0029622325787756086
6514.065024761626,0.0029906831370436495,0.0029601814347786142
6514.066024533548,0.0030385086773823617,0.002957644638919015
6514.067024305471,0.0030852147759717636,0.002954681782064335
6514.0680240773945,0.00313046078858279,0.0029513689610943424
6514.069023849317,0.003173911348531367,0.00294779793951505
6514.07002362124,0.0032152411116315592,0.0029440744395695505
6514.071023393162,0.0032541391203381323,0.0029403155849438392
6514.072023165085,0.00329031275926055,0.0029366465813788585
6514.073022937007,0.003323491288663502,0.0029331967741179766
6514.074022708931,0.0033534289374265044,0.0029300952551951096
6514.0750224808535,0.0033799075442380792,0.0029274662139286752
6514.076022252776,0.0034027387625364313,0.0029254242345388808
6514.077022024699,0.0034217658627574725,0.0029240697467571076
6514.078021796621,0.0034368651443001594,0.0029234848328338918
6514.079021568545,0.003447946920031672,0.002923729595269744
6514.080021340467,0.0034549560103709466,0.00292483928870795
6514.08102111239,0.0034578717186117113,0.00292682239700807
6514.082020884312,0.0034567073288509264,0.002929659784015171
6514.083020656235,0.0034515092165656605,0.0029333049745085492
6514.084020428159,0.0034423556657228673,0.0029376855397719075
6514.085020200081,0.003429355464667236,0.0029427054739358193
6514.086019972004,0.0034126463349764546,0.0029482483660554465
6514.087019743926,0.0033923932453489,0.0029541811218887003
6514.088019515849,0.0033687866665741283,0.0029603579824601257
6514.089019287772,0.0033420408157684494,0.002966624615418313
6514.090019059695,0.003312391912271662,0.0029728220950859343
6514.0910188316175,0.003280096433554599,0.0029787906171286397
6514.09201860354,0.0032454293340896953,0.0029843728171887263
6514.093018375463,0.0032086821866686302,0.00298941660191315
6514.094018147385,0.0031701612224947933,0.002993777463524714
6514.095017919309,0.0031301852685463585,0.0029973203119342206
6514.096017691231,0.003089083593647915,0.0029999208935383875
6514.097017463154,0.003047193671809929,0.0030014668705981165
6514.098017235076,0.003004858853416408,0.003001858626353236
6514.099017006999,0.0029624259098115684,0.0030010098562264866
6514.1000167789225,0.00292024239893594,0.002998848013367533
6514.101016550845,0.0028786538012723017,0.0029953146949399335
6514.102016322768,0.0028380003990121846,0.0029903660723134577
6514.10301609469,0.0027986139098177807,0.002983973470508095
6514.104015866613,0.002760813925818125,0.002976124180749831
6514.105015638536,0.0027249042333896433,0.0029668225411915066
6514.106015410459,0.002691169094712337,0.0029560912514982655
6514.1070151823815,0.002659869564873994,0.0029439728180274227
6514.108014954304,0.0026312399056642078,0.0029305309811954185
6514.109014726227,0.002605484143989774,0.002915851961520843
6514.110014498149,0.0025827728202602136,0.002900045362823165
6514.111014270073,0.002563239990443105,0.002883244579858137
6514.112014041995,0.0025469805721378786,0.0028656065795226128
6514.113013813918,0.0025340481315852324,0.0028473109642353804
6514.11401358584,0.002524453189510262,0.002828558267232844
6514.115013357763,0.0025181621055690596,0.0028095674553060093
6514.116013129687,0.002515096604614032,0.0027905726341598755
6514.117012901609,0.00251513402210617,0.002771818985024818
6514.118012673532,0.002518108346799042,0.0027535580071745653
6514.119012445454,0.002523812117294761,0.0027360421822178885
6514.120012217377,0.002531999194808931,0.002719519203934875
6514.1210119893,0.0025423883994321896,0.0027042259374057682
6514.122011761223,0.002554667963709125,0.002690382293282887
6514.1230115331455,0.0025685007244532626,0.0026781852315915806
6514.124011305068,0.00258352994562764,0.0026678031323491974
6514.125011076991,0.0025993856434253183,0.002659370767384533
6514.126010848913,0.00261569126135116,0.0026529850778689145
6514.127010620837,0.00263207051649841,0.0026487019264027647
6514.128010392759,0.002648154226317123,0.002646533964864431
6514.129010164682,0.0026635869456704767,0.002646449729050896
6514.130009936604,0.0026780332882930546,0.002648374019016557
6514.131009708527,0.0026911838473644588,0.0026521895456769785
6514.1320094804505,0.0027027606475850036,0.0026577397399045457
6514.133009252373,0.0027125220560967832,0.0026648325589408942
6514.134009024296,0.0027202670610421966,0.002673245098592928
6514.135008796218,0.0027258388018540696,0.002682728822609962
6514.136008568141,0.0027291272125431676,0.0026930152433636027
6514.137008340064,0.002730070633355443,0.00270382191485054
6514.138008111987,0.0027286562733413113,0.0027148586103998506
6514.1390078839095,0.002724919469640476,0.002725833552279086
6514.140007655832,0.0027189417727300734,0.0027364595574685367
6514.141007427755,0.002710847961774335,0.0027464599713929805
6514.142007199678,0.0027008021330359885,0.0027555742672827547
6514.143006971601,0.002689002999594163,0.0027635631853276297
6514.144006743523,0.002675678514029374,0.002770213284207149
6514.145006515446,0.0026610799094898777,0.0027753407937706675
6514.146006287368,0.0026454752618161326,0.002778794689578027
6514.147006059291,0.0026291426990261773,0.002780458935631052
6514.148005831215,0.0026123634167485566,0.00278025384919805
6514.149005603137,0.0025954146944117316,0.0027781365524567527
6514.15000537506,0.0025785631384304046,0.002774100510869814
6514.151005146982,0.002562058394586373,0.002768174201884853
6514.152004918905,0.0025461275634435015,0.00276041898823364
6514.153004690828,0.0025309705169107868,0.0027509263003512073
6514.154004462751,0.002516756259800435,0.0027398142788564806
6514.1550042346735,0.002503620423729378,0.002727224070343698
6514.156004006596,0.002491663931746949,0.0027133159720727396
6514.157003778519,0.0024809528278637917,0.0026982655775514655
6514.158003550441,0.002471519218321998,0.002682260019162607
6514.159003322365,0.0024633632196827825,0.002665494377566514
6514.160003094287,0.002456455763111012,0.0026481683366435444
6514.16100286621,0.0024507420790276756,0.0026304831720873945
6514.162002638132,0.002446145685606066,0.00261263914092454
6514.163002410055,0.0024425727186558857,0.0025948332956424983
6514.1640021819785,0.002439916455948585,0.0025772577026134803
6514.165001953901,0.002438061898937354,0.0025600980064235655
6514.166001725824,0.0024368902827534566,0.0025435322484775452
6514.167001497746,0.002436283402705502,0.0025277298301143694
6514.168001269669,0.002436127676747887,0.002512850518862739
6514.169001041592,0.0024363178957887118,0.0024990434251230226
6514.170000813515,0.002436760627657124,0.00248644590944955
6514.1710005854375,0.002437377226876431,0.002475182410433481
6514.17200035736,0.0024381063722698883,0.002465363207560358
6514.173000129283,0.002438906036798407,0.0024570831464512336
6514.173999901206,0.002439754812629007,0.0024504203576916654
6514.174999673129,0.002440652561790192,0.0024454350083613846
6514.175999445051,0.002441620406733158,0.002442168142135298
6514.176999216974,0.002442700092744379,0.0024406406787669315
6514.177998988896,0.0024439527494803247,0.0024408526457094584
6514.178998760819,0.002445457067580388,0.002442782700129806
6514.179998532743,0.002447306897047661,0.0024463879711648625
6514.180998304665,0.0024496082718021028,0.0024516042155485807
6514.181998076588,0.002452475878285151,0.0024583462407231902
6514.18299784851,0.002456029018297197,0.002466508519214955
6514.183997620433,0.002460387156036637,0.002475965915211917
6514.184997392356,0.002465665174045456,0.002486574479094657
6514.185997164279,0.002471968491254431,0.002498172320735686
6514.1869969362015,0.0024793882168818865,0.0025105806145404547
6514.187996708124,0.0024879965152357843,0.0025236048047778876
6514.188996480047,0.0024978423373771116,0.002537036084883977
6514.18999625197,0.00250894765891276,0.002550653233134971
6514.190996023893,0.002521304367633549,0.002564224887710752
6514.191995795815,0.002534871957164813,0.0025775123207806444
6514.192995567738,0.0025495761789720325,0.0025902727277300574
6514.19399533966,0.0025653087810344932,0.0026022629949899586
6514.194995111583,0.002581928426329187,0.002613243852089696
6514.1959948835065,0.002599262839198314,0.0026229842619724456
6514.196994655429,0.0026171121687853056,0.0026312658817735637
6514.197994427352,0.002635253493195407,0.0026378874425792486
6514.198994199274,0.002653446336293891,0.0026426689317167714
6514.199993971197,0.002671439041500519,0.0026454554917704856
6514.20099374312,0.002688975826957443,0.002646120969111269
6514.201993515043,0.0027058043152958767,0.002644571050967469
6514.2029932869655,0.0027216832958602524,0.00264074592345793
6514.203993058888,0.00273639045212961,0.0026346223677072692
6514.204992830811,0.002749729771257047,0.002626215197502686
6514.205992602734,0.00276153834627571,0.002615577942144365
6514.206992374657,0.0027716922996056815,0.002602802701382043
6514.207992146579,0.0027801116067353642,0.002588019144635997
6514.208991918502,0.0027867636642383573,0.002571392678764443
6514.209991690424,0.002791665501526537,0.002553121846389879
6514.210991462347,0.0027948845715987172,0.0025334350298358344
6514.211991234271,0.0027965380802609215,0.0025125865325362914
6514.212991006193,0.002796790835415293,0.002490852111345697
6514.213990778116,0.0027958516228194143,0.002468524056047874
6514.214990550038,0.0027939681488940563,0.002445905950418251
6514.215990321961,0.002791420642220139,0.0024233072748214065
6514.216990093884,0.00278851427348165,0.0024010380000465126
6514.217989865807,0.0027855706310193724,0.0023794032779027195
6514.2189896377295,0.002782918558950508,0.0023586982829274525
6514.219989409652,0.002780884703397586,0.002339203237270252
6514.220989181575,0.002779784110351525,0.0023211786737299144
6514.221988953498,0.002779911191993015,0.002304861035507179
6514.222988725421,0.002781531345724484,0.0022904587302333057
6514.223988497343,0.0027848734712463204,0.002278148729091429
6514.224988269266,0.0027901235743230824,0.0022680737474213217
6514.225988041188,0.0027974195715550604,0.0022603399958691225
6514.226987813112,0.0028068473379961136,0.0022550154756659593
6514.2279875850345,0.002818437989964574,0.002252128809657814
6514.228987356957,0.002832166370422719,0.0022516686349401674
6514.22998712888,0.0028479506920397702,0.002253583614061967
6514.230986900802,0.0028656532886062276,0.002257783139133302
6514.231986672725,0.002885082431137006,0.002264138802103681
6514.232986444648,0.0029059951765561076,0.002272486683313132
6514.233986216571,0.002928101222303592,0.0022826304723258684
6514.2349859884935,0.002951067731141877,0.002294345388602175
6514.235985760416,0.0029745250686627808,0.002307382824821145
6514.236985532339,0.0029980733703554416,0.002321475599055367
6514.237985304262,0.0030212898333574116,0.0023363436764263766
6514.238985076185,0.0030437366083427603,0.0023517002082150138
6514.239984848107,0.003064969139447066,0.002367257736496442
6514.24098462003,0.003084544761678069,0.00238273442283724
6514.241984391952,0.003102031328756874,0.0023978601762403426
6514.242984163876,0.0031170156263553564,0.0024123825691672357
6514.243983935799,0.00312911133212226,0.002426072428510831
6514.244983707721,0.003137966313316804,0.002438728965923178
6514.245983479644,0.0031432691028921173,0.002450184281039293
6514.246983251566,0.0031447544570631578,0.0024603070565027848
6514.247983023489,0.003142207957244894,0.0024690052830614677
6514.248982795412,0.003135469665956948,0.0024762279013175806
6514.249982567335,0.0031244368753349768,0.002481965303656176
6514.2509823392575,0.003109065995276913,0.002486248688390764
6514.25198211118,0.003089373615929426,0.0024891482905488502
6514.252981883103,0.003065436757293723,0.0024907705307493744
6514.253981655026,0.0030373923106928827,0.002491254136440407
6514.254981426949,0.0030054357011587737,0.0024907653135893514
6514.255981198871,0.0029698188474823334,0.0024894920884176086
6514.256980970794,0.0029308475329928034,0.0024876379942725606
6514.257980742716,0.0028888782933013187,0.0024854153373403127
6514.25898051464,0.0028443148751331883,0.0024830383165385973
6514.2599802865625,0.002797604251662906,0.002480716276765224
6514.260980058485,0.0027492321309958746,0.002478647338330386
6514.261979830408,0.002699717881310232,0.002477012587186999
6514.26297960233,0.0026496088077909556,0.002475970950961748
6514.263979374253,0.002599473742042509,0.002475654834030297
6514.264979146176,0.0025498959503582803,0.0024761665448576535
6514.265978918099,0.002501465434773419,0.0024775755286690656
6514.2669786900215,0.0024547707727616175,0.002479916422509865
6514.267978461944,0.0024103906989253387,0.0024831879646722292
6514.268978233867,0.002368885665250491,0.0024873527955727166
6514.26997800579,0.0023307896194220495,0.002492338176963483
6514.270977777713,0.002296602214786731,0.0024980376441225936
6514.271977549635,0.002266781623479968,0.0025043136071797416
6514.272977321558,0.0022417380829434508,0.0025110009317245883
6514.27397709348,0.002221828277854245,0.0025179115304430496
6514.274976865404,0.002207350645076188,0.0025248399597902274
6514.275976637327,0.0021985416769492133,0.0025315699396026227
6514.276976409249,0.002195573272812256,0.0025378816263522063
6514.277976181172,0.002198551142112476,0.0025435593969667675
6514.278975953094,0.002207514200093463,0.0025483998429460582
6514.279975725018,0.0022224348372708617,0.002552219625637765
6514.28097549694,0.0022432199101185815,0.0025548628097007402
6514.281975268863,0.002269712306685001,0.00255620730254773
6514.2829750407855,0.0023016929808734217,0.0025561701026743833
6514.283974812708,0.0023388834025659636,0.00255471117483032
6514.284974584631,0.00238094842190788,0.0025518358727726143
6514.285974356554,0.0024274995885662748,0.002547595889474311
6514.286974128477,0.002478098994821238,0.0025420887400979192
6514.287973900399,0.0025322637181833594,0.0025354558019317023
6514.288973672322,0.002589470923254273,0.0025278789635327817
6514.289973444244,0.0026491636489444845,0.002519575975658918
6514.290973216168,0.002710757264825733,0.002510794648159644
6514.2919729880905,0.002773646539944796,0.002501806093726167
6514.292972760013,0.002837213237757223,0.0024928972705186908
6514.293972531936,0.0029008341314398687,0.0024843631082872193
6514.294972303858,0.0029638893170384835,0.00247649850397416
6514.295972075781,0.0030257706886549773,0.00246959044355157
6514.296971847704,0.00308589044180779,0.0024639104677722096
6514.297971619627,0.0031436894880285,0.0024597076694519776
6514.2989713915495,0.0031986456702857015,0.002457202384402962
6514.299971163472,0.0032502816374726296,0.002456580703851625
6514.300970935395,0.003298172171431752,0.0024579898971143384
6514.301970707318,0.0033419506979059294,0.0024615348065779048
6514.302970479241,0.0033813146867384407,0.0024672752674926375
6514.303970251163,0.0034160296646983516,0.0024752245999180933
6514.304970023086,0.0034459316227739385,0.002485349204342881
6514.305969795008,0.0034709276973543916,0.0024975692568881096
6514.306969566932,0.003490995127028271,0.0025117604439146347
6514.307969338855,0.0035061785951698834,0.0025277566136993
6514.308969110777,0.003516586127741421,0.002545353179646837
6514.3099688827,0.0035223837297138193,0.0025643111040144313
6514.310968654622,0.00352378895190096,0.002584361325873808
6514.311968426546,0.003521063613136024,0.00260520955752325
6514.312968198468,0.0035145059486183256,0.0026265414334285275
6514.313967970391,0.0035044424830566077,0.0026480280314945927
6514.3149677423135,0.003491219925365587,0.002669331788503877
6514.315967514236,0.003475197356206017,0.0026901128021309725
6514.316967286159,0.003456738936926508,0.0027100354623354767
6514.317967058082,0.003436207315154947,0.002728775302786721
6514.318966830005,0.0034139578482792437,0.0027460259234418183
6514.319966601927,0.003390333716786669,0.002761505816042675
6514.32096637385,0.0033656619513449896,0.002774964921793179
6514.321966145772,0.003340250349300476,0.002786190745890819
6514.322965917696,0.0033143852162140336,0.002795013827095674
6514.3239656896185,0.003288329839340097,0.0028013123209909684
6514.324965461541,0.0032623235772568917,0.0028050154409299866
6514.325965233464,0.003236581440518175,0.002806105539623276
6514.326965005386,0.003211294059885916,0.0028046186985591377
6514.32796477731,0.003186627989201385,0.002800643791463242
6514.328964549232,0.0031627263392904064,0.0027943200767995145
6514.329964321155,0.0031397097542853365,0.002785833441356784
6514.3309640930775,0.003117677714540256,0.0027754114647535683
6514.331963865,0.0030967101046777395,0.0027633175169765084
6514.332963636923,0.0030768689544148787,0.0027498441409739755
6514.333963408846,0.0030582002629333314,0.002735305988960441
6514.334963180769,0.0030407358516566893,0.002720032556526296
6514.335962952691,0.003024495229034595,0.002704360906202261
6514.336962724614,0.0030094874657454612,0.00268862852390984
6514.337962496536,0.002995713072795582,0.0026731664301612016
6514.33896226846,0.002983165873030504,0.0026582926734014314
6514.339962040383,0.0029718348605449253,0.0026443063471744523
6514.340961812305,0.0029617060287645057,0.0026314822725726533
6514.341961584228,0.0029527641064101486,0.002620066464387496
6514.34296135615,0.0029449940926522572,0.002610272465687715
6514.343961128074,0.0029383824642043974,0.002602278604238745
6514.344960899996,0.002932917958911228,0.002596226194055166
6514.345960671919,0.0029285919086719228,0.0025922186733805578
6514.346960443841,0.0029253981600490244,0.00259032164097738
6514.347960215764,0.002923332656461852,0.0025905637257485335
6514.348959987687,0.002922392768398291,0.002592938193857198
6514.34995975961,0.0029225764678851066,0.0025974051657172356
6514.350959531533,0.0029238814530232918,0.0026038942969462847
6514.351959303455,0.002926304324148246,0.0026123077809794217
6514.352959075378,0.0029298398882634546,0.0026225235498090684
6514.3539588473,0.0029344806288845804,0.0026343985700298346
6514.354958619224,0.0029402163370724765,0.0026477721447347165
6514.3559583911465,0.0029470338731184195,0.002662469134026655
6514.356958163069,0.002954917024224653,0.002678302999691763
6514.357957934992,0.0029638464230404143,0.0026950785757427313
6514.358957706914,0.0029737994703721705,0.002712594485798539
6514.359957478838,0.002984750167755763,0.0027306451741731593
6514.36095725076,0.002996668744459802,0.0027490225685847156
6514.361957022683,0.0030095209862209676,0.0027675174295012195
6514.362956794605,0.0030232672410517576,0.002785920470538978
6514.363956566528,0.0030378611646867002,0.002804023368482952
6514.364956338452,0.0030532483346029484,0.002821619811765737
6514.365956110374,0.0030693648867941253,0.0028385067426383768
6514.366955882297,0.0030861363288946205,0.0028544859286671162
6514.367955654219,0.0031034766732043035,0.002869365970427992
6514.368955426142,0.0031212880035326024,0.0028829648221403614
6514.369955198064,0.003139460532862393,0.0028951128579589674
6514.370954969988,0.003157873146892512,0.0029056564487714826
6514.371954741911,0.003176394386953888,0.002914461933396326
6514.372954513833,0.003194883800826685,0.0029214197933301158
6514.373954285756,0.0032131935655473455,0.0029264487836372986
6514.374954057678,0.0032311702666070964,0.002929499740295112
6514.375953829602,0.003248656720775779,0.0029305587808738645
6514.376953601524,0.0032654937554568706,0.0029296496440998345
6514.377953373447,0.003281521886220117,0.002926834975699158
6514.378953145369,0.003296582855393918,0.002922216454124695
6514.379952917292,0.0033105210191102597,0.002915933737747858
6514.380952689216,0.0033231846064866615,0.002908162286231851
6514.381952461138,0.003334426912138102,0.0028991101641397555
6514.382952233061,0.0033441075066023875,0.0028890139804876314
6514.383952004983,0.0033520935524384557,0.0028781341467961235
6514.384951776906,0.003358261294539491,0.0028667496370093208
6514.385951548828,0.003362497748962635,0.002855152408633555
6514.386951320752,0.0033647025507041193,0.002843641616751139
6514.3879510926745,0.003364789859454866,0.002832517745894706
6514.388950864597,0.0033626901959810033,0.0028220768015149358
6514.38995063652,0.0033583521096239837,0.002812604713969384
6514.390950408442,0.0033517436463719177,0.002804372084060458
6514.391950180366,0.0033428536610090554,0.002797629346356118
6514.392949952288,0.0033316930605877416,0.002792602378112199
6514.393949724211,0.0033182960565466004,0.0027894885571821616
6514.394949496133,0.0033027214330737208,0.002788453265339593
6514.395949268056,0.003285053731365735,0.002789626839474696
6514.39694903998,0.00326540415509894,0.0027931020009495174
6514.397948811902,0.00324391097414348,0.0027989318392298524
6514.398948583825,0.0032207392470550095,0.002807128464465946
6514.399948355747,0.00319607975439951,0.0028176624526062293
6514.40094812767,0.0031701470932270237,0.0028304631801883678
6514.401947899592,0.003143176921125088,0.0028454200903527543
6514.402947671516,0.003115422365813287,0.0028623848656382017
6514.403947443439,0.0030871496423395257,0.0028811744336384336
6514.404947215361,0.0030586329574469424,0.0029015747116314574
6514.405946987284,0.003030148842412,0.0029233449930353007
6514.406946759206,0.0030019701349219326,0.0029462228708006222
6514.40794653113,0.0029743598929008594,0.002969929574874761
6514.408946303052,0.002947565531504906,0.0029941755851089795
6514.409946074975,0.002921813424600056,0.003018666378249547
6514.410945846897,0.002897304135221402,0.003043108170149646
6514.41194561882,0.002874208372369321,0.0030672135085408124
6514.412945390744,0.0028526637289411926,0.0030907065614427876
6514.413945162666,0.002832772230179612,0.003113327947195469
6514.414944934589,0.0028145987047504847,0.0031348389727353927
6514.415944706511,0.002798169984765916,0.0031550251863985
6514.416944478434,0.0027834749481453038,0.003173699203318627
6514.417944250357,0.002770465417804938,0.0031907028135493305
6514.41894402228,0.0027590579013659056,0.003205908425842328
6514.4199437942025,0.0027491360929223795,0.003219219930642873
6514.420943566125,0.0027405540018233645,0.003230573084493132
6514.421943338048,0.0027331395637794527,0.0032399355251804753
6514.42294310997,0.0027266986315886634,0.003247306521633591
6514.423942881894,0.0027210193017603943,0.0032527165403409067
6514.424942653816,0.0027158765720527167,0.0032562266663153437
6514.425942425739,0.0027110373319534815,0.0032579278546077855
6514.426942197661,0.0027062656742190636,0.00325793992113157
6514.427941969584,0.0027013284979410163,0.003256410123896426
6514.428941741508,0.002696001361996148,0.0032535111510127624
6514.42994151343,0.0026900745349499908,0.003249438336238441
6514.430941285353,0.0026833591542955787,0.0032444059787481985
6514.431941057275,0.0026756933444454863,0.0032386427444899306
6514.432940829198,0.0026669480673119,0.0032323862463185735
6514.43394060112,0.002657032432250204,0.0032258770097826177
6514.434940373044,0.002645898207639843,0.003219352108707162
6514.435940144967,0.00263354335321676,0.003213038786562586
6514.436939916889,0.0026200144905389085,0.0032071483635282534
6514.437939688812,0.0026054082967689146,0.0032018706767556818
6514.438939460734,0.0025898718164989233,0.0031973692404952715
6514.439939232658,0.0025736016470247628,0.0031937772735600614
6514.44093900458,0.002556841896673411,0.0031911947283706156
6514.441938776503,0.0025398807848753917,0.0031896864423184156
6514.442938548425,0.002523045787059855,0.003189281492879955
6514.443938320348,0.002506697339920395,0.0031899737746097306
6514.444938092272,0.002491221274673193,0.0031917237505503762
6514.445937864194,0.0024770202703891394,0.0031944612826335533
6514.446937636117,0.0024645046753874783,0.0031980894215621423
6514.447937408039,0.002454083040342253,0.003202489025303813
6514.448937179962,0.002446152669900719,0.003207524052492781
6514.449936951885,0.0024410904501749957,0.003213047325511969
6514.450936723808,0.0024392441666464607,0.0032189064864598183
6514.4519364957305,0.0024409245071012158,0.0032249498062445945
6514.452936267653,0.0024463979375512826,0.0032310314800392667
6514.453936039576,0.0024558806186583183,0.0032370160643430687
6514.454935811498,0.0024695334878672985,0.0032427817829547866
6514.455935583422,0.002487458582700317,0.003248222545076269
6514.456935355344,0.002509696635467625,0.003253248657987154
6514.457935127267,0.002536225933448968,0.00325778634202301
6514.458934899189,0.002566962415581695,0.0032617762372520497
6514.459934671112,0.002601760961990309,0.0032651711265894797
6514.460934443036,0.002640417806277635,0.0032679330994736444
6514.461934214958,0.0026826739478726337,0.003270030353328237
6514.462933986881,0.002728219376799147,0.003271433793892432
6514.463933758803,0.0027766978787383298,0.0032721135742634594
6514.464933530726,0.002827712185448681,0.003272035718333373
6514.465933302649,0.0028808292731016447,0.0032711589993917765
6514.466933074572,0.0029355856767157807,0.003269432271566608
6514.467932846495,0.0029914927635792533,0.0032667924596883713
6514.468932618417,0.0030480419666954997,0.003263163383356925
6514.46993239034,0.003104710008050536,0.0032584555242218976
6514.470932162262,0.0031609641508349184,0.0032525667686523693
6514.471931934186,0.003216267519735503,0.0032453841007296807
6514.472931706108,0.0032700845153874765,0.0032367861865199733
6514.473931478031,0.003321886321676481,0.003226646760948745
6514.474931249953,0.0033711564749105793,0.0032148386951488662
6514.475931021876,0.00341739644807756,0.0032012385995077272
6514.4769307938,0.0034601312061836613,0.003185731812575559
6514.477930565722,0.003498914695732719,0.0031682176196858236
6514.478930337645,0.0035333352230970893,0.0031486145199424464
6514.479930109567,0.0035630206516164813,0.0031268653247677235
6514.48092988149,0.0035876433204075652,0.0031029418505740497
6514.481929653413,0.0036069245674879356,0.003076848976531494
6514.482929425336,0.0036206387274828437,0.0030486278633078687
6514.4839291972585,0.0036286164761520617,0.003018358148714718
6514.484928969181,0.003630747411572427,0.0029861589550105924
6514.485928741104,0.003626981782864172,0.0029521885875572387
6514.486928513026,0.003617331293545926,0.0029166428883210306
6514.48792828495,0.0036018689232975845,0.002879752306167324
6514.488928056872,0.003580727735409891,0.0028417778204747114
6514.489927828795,0.0035540986713284667,0.002803005890281409
6514.490927600717,0.0035222273816290202,0.002763742612766126
6514.49192737264,0.003485410195701016,0.002724307279078832
6514.492927144564,0.0034439893725992862,0.0026850255145780904
6514.493926916486,0.0033983477978684934,0.002646222186229542
6514.494926688409,0.0033489033031489836,0.0026082142648380484
6514.495926460331,0.0032961027898702304,0.002571303854173388
6514.496926232254,0.0032404163335384446,0.0025357716316133766
6514.497926004177,0.00318233142959682,0.0025018709553427335
6514.4989257761,0.003122347510226735,0.0024698228623065035
6514.499925548023,0.0030609708108732415,0.0024398121232545506
6514.500925319945,0.00299870960832381,0.002411984465177067
6514.501925091868,0.002936069812399344,0.0023864450279248543
6514.502924863791,0.0028735508872721562,0.0023632580811148874
6514.503924635714,0.0028116421032715563,0.0023424479814043316
6514.504924407636,0.0027508191542932213,0.002324001301271296
6514.505924179559,0.002691541190951292,0.0023078700145780836
6514.506923951481,0.0026342482974632737,0.0022939755902287736
6514.507923723404,0.002579359387640743,0.002282213831944796
6514.508923495328,0.0025272704375413992,0.0022724603046038222
6514.50992326725,0.0024783529322855175,0.0022645761878166606
6514.510923039173,0.0024329523934403913,0.0022584143824968873
6514.511922811095,0.002391386872753383,0.0022538256666195834
6514.512922583018,0.0023539453341521943,0.0022506646660283977
6514.513922354941,0.0023208858743138717,0.0022487953978572225
6514.514922126864,0.002292433749572788,0.002248096170319481
6514.5159218987865,0.002268779210625177,0.002248463670765612
6514.516921670709,0.0022500752084745126,0.0022498161227068824
6514.517921442632,0.0022364350966892544,0.002252095435528289
6514.518921214554,0.0022279304880010796,0.0022552683149284643
6514.519920986478,0.0022245894330408453,0.0022593263512104057
6514.5209207584,0.0022263950883105576,0.0022642851476581643
6514.521920530323,0.002233285022898557,0.0022701825775203435
6514.522920302245,0.0022451512712981245,0.002277076259760286
6514.523920074168,0.00226184118066559,0.0022850403323959514
6514.524919846092,0.002283159034320078,0.0022941615956587847
6514.525919618014,0.0023088683646200633,0.002304535102829355
6514.526919389937,0.002338694814346127,0.0023162592934323936
6514.527919161859,0.002372329388696129,0.0023294307921909803
6514.528918933782,0.0024094319567513536,0.002344139034488897
6514.529918705705,0.0024496348829157223,0.002360460906775925
6514.530918477628,0.0024925466799627805,0.0023784555903215445
6514.531918249551,0.0025377555906152525,0.0023981597762023597
6514.532918021473,0.002584833042226702,0.002419583400174274
6514.533917793396,0.002633336977230871,0.002442706034252199
6514.534917565319,0.0026828151227119,0.002467474056640961
6514.535917337242,0.0027328083039997184,0.002493798696232011
6514.536917109164,0.002782853910929181,0.002521555017031805
6514.537916881087,0.0028324895883169933,0.0025505818771481515
6514.538916653009,0.0028812571697035775,0.002580682861592634
6514.539916424932,0.002928706840011794,0.002611628144956979
6514.540916196856,0.002974401501349988,0.002643157207962147
6514.541915968778,0.0030179212980667807,0.0026749823355011852
6514.542915740701,0.0030588682194449294,0.00270679285319987
6514.543915512623,0.0030968706659661644,0.002738260075110843
6514.544915284546,0.0031315878663759457,0.0027690429124730127
6514.545915056469,0.0031627140616422777,0.0027987940417427844
6514.546914828392,0.0031899823940152432,0.0028271664757697156
6514.5479146003145,0.0032131684339814642,0.002853820349953949
6514.548914372237,0.0032320932608949156,0.002878429733967148
6514.54991414416,0.0032466260090450215,0.0029006892943419793
6514.550913916083,0.0032566858009545545,0.002920320642319894
6514.551913688006,0.003262243004364985,0.002937078200954199
6514.552913459928,0.0032633197679930843,0.002950754429382869
6514.553913231851,0.0032599898114500326,0.0029611842612326847
6514.554913003773,0.00325237745966334,0.002968248644045292
6514.555912775696,0.0032406559257769137,0.002971877092420197
6514.55691254762,0.0032250448711957824,0.0029720491791119445
6514.557912319542,0.0032058073041666474,0.0029687948965631153
6514.558912091465,0.00318324589274567,0.002962193851015254
6514.559911863387,0.003157698744022034,0.002952373311636242
6514.56091163531,0.0031295346634823843,0.0029395052103590603
6514.561911407233,0.003099147909110214,0.0029238022491413313
6514.562911179156,0.003066952507393097,0.0029055133050565657
6514.563910951079,0.0030333762577097515,0.002884918324322246
6514.564910723001,0.002998854575306495,0.002862322866599985
6514.565910494924,0.0029638243147996715,0.002838052416654614
6514.566910266847,0.002928717699763555,0.0028124465478039837
6514.56791003877,0.0028939564710035543,0.002785853021179096
6514.568909810692,0.0028599463581660553,0.002758621936367319
6514.569909582615,0.0028270719797190455,0.002731100089295912
6514.570909354537,0.002795692282633551,0.0027036257143652426
6514.57190912646,0.0027661366273253885,0.002676523780595962
6514.572908898384,0.0027387015891070466,0.0026501019843586607
6514.573908670306,0.0027136484924053326,0.0026246475397623597
6514.574908442229,0.002691201642232902,0.0026004248114739055
6514.575908214151,0.002671547187577721,0.002577673771583353
6514.576907986074,0.002654832550585101,0.002556609205896524
6514.577907757997,0.002641166376918409,0.002537420549567636
6514.57890752992,0.002630618987196628,0.0025202721956509655
6514.5799073018425,0.002623223322288427,0.0025053041011588854
6514.580907073765,0.002618976377848665,0.0024926325257606354
6514.581906845688,0.002617841118761923,0.002482350775114202
6514.582906617611,0.0026197488451193385,0.0024745298642035703
6514.583906389534,0.0026246019442765786,0.002469219049145718
6514.584906161456,0.002632276921843258,0.002466446197065963
6514.585905933379,0.0026426275810089122,0.0024662179801080326
6514.586905705301,0.002655488225042092,0.002468519901254381
6514.587905477225,0.0026706767782398613,0.0024733161943896738
6514.588905249148,0.0026879977333735534,0.002480549681539018
6514.58990502107,0.002707244832963681,0.002490141691384946
6514.590904792993,0.0027282033892389785,0.0025019921285509856
6514.591904564915,0.0027506521549000313,0.0025159797440774787
6514.592904336838,0.002774364679949239,0.0025319626187005786
6514.593904108761,0.002799110135548175,0.002549778850602622
6514.594903880684,0.002824653657534969,0.002569247446787878
6514.595903652607,0.0028507563489642033,0.002590169448139122
6514.596903424529,0.0028771751586359503,0.0026123293554210724
6514.597903196452,0.0029036628984413404,0.0026354969471388857
6514.598902968375,0.002929968665735929,0.002659429578114984
6514.599902740298,0.002955838897102789,0.0026838750198691762
6514.60090251222,0.0029810192021710894,0.0027085748604347274
6514.601902284143,0.003005257021864328,0.0027332684296840727
6514.602902056065,0.0030283050400876305,0.0027576971551041465
6514.603901827989,0.003049925168130204,0.00278160918876516
6514.604901599912,0.003069892836689215,0.002804764105283081
6514.605901371834,0.003088001294601536,0.00282693747424544
6514.606901143757,0.0031040656366887348,0.00284792514582266
6514.607900915679,0.00311792634824531,0.0028675471219378086
6514.608900687602,0.0031294522312735854,0.0028856509009543944
6514.609900459525,0.003138542650123732,0.002902114187755745
6514.610900231448,0.0031451290902844093,0.002916846864669863
6514.6119000033705,0.00314917604923655,0.002929792132965268
6514.612899775293,0.00315068127512379,0.002940926770859189
6514.613899547216,0.0031496753651346597,0.0029502605116492014
6514.614899319139,0.003146220748761016,0.0029578346059957465
6514.615899091062,0.0031404101006127657,0.0029637196754949786
6514.616898862984,0.0031323642439886816,0.002968012984334453
6514.617898634907,0.003122229627911026,0.00297083525047413
6514.618898406829,0.0031101754881995756,0.0029723270870945498
6514.619898178753,0.003096390824877438,0.0029726451276384223
6514.620897950676,0.0030810813333592203,0.002971957874086068
6514.621897722598,0.003064466410366137,0.0029704413232210856
6514.622897494521,0.0030467763175618663,0.0029682744455671304
6514.623897266443,0.003028249536681815,0.002965634600658524
6514.624897038366,0.0030091303000459478,0.002962692977947587
6514.625896810289,0.0029896662338715204,0.0029596101634409458
6514.626896582212,0.002970106018102264,0.002956531944158686
6514.627896354135,0.002950696959418558,0.0029535854715619187
6514.628896126057,0.002931682393777301,0.0029508759129460134
6514.62989589798,0.002913298869493218,0.002948483723374238
6514.630895669903,0.002895773104564207,0.0029464626621226657
6514.631895441826,0.002879318758245443,0.002944838658114641
6514.632895213748,0.002864133096637552,0.002943609606906204
6514.633894985671,0.0028503936560675632,0.0029427461588874006
6514.634894757593,0.0028382550121218344,0.0029421935308604477
6514.635894529517,0.002827845745553472,0.0029418743381070217
6514.63689430144,0.0028192656709738625,0.002941692391745746
6514.637894073362,0.0028125833842280643,0.002941537325552995
6514.638893845285,0.0028078341986939254,0.0029412898191369524
6514.639893617207,0.0028050185621128552,0.002940827107103698
6514.640893389131,0.0028041010521334727,0.002940028439000332
6514.641893161053,0.002805010032251777,0.0029387801846257463
6514.642892932976,0.00280763801645788,0.002936980338270755
6514.6438927048985,0.002811842756103099,0.0029345422355458546
6514.644892476821,0.002817449037304214,0.002931397349570892
6514.645892248744,0.0028242511587979304,0.0029274970878164874
6514.646892020667,0.002832016043371799,0.0029228135703427854
6514.64789179259,0.002840486926486135,0.0029173394239995257
6514.648891564512,0.002849387572134152,0.0029110866651554245
6514.649891336435,0.0028584269800436715,0.0029040847710178857
6514.650891108357,0.0028673045433908885,0.002896378069425252
6514.651890880281,0.0028757155793353007,0.0028880226113340954
6514.652890652204,0.0028833571094608853,0.0028790827174200303
6514.653890424126,0.002889933746914735,0.00286962739910529
6514.654890196049,0.002895163559026347,0.0028597268484154815
6514.655889967971,0.002898783801084041,0.0028494491809720464
6514.656889739894,0.0029005564352502073,0.002838857599122301
6514.657889511817,0.002900273344791684,0.0028280081035647647
6514.65888928374,0.002897761135240645,0.0028169478207228336
6514.659889055663,0.002892885401868717,0.0028057139483495135
6514.660888827585,0.0028855543511356507,0.0027943332762342676
6514.661888599508,0.0028757216860157623,0.0027828222227327024
6514.662888371431,0.0028633886793195326,0.002771187333792867
6514.663888143354,0.002848605354442075,0.0027594262039226354
6514.664887915276,0.0028314706900580224,0.0027475287882476993
6514.665887687199,0.002812131795833122,0.002735479077170541
6514.666887459121,0.0027907820690670384,0.002723257095518287
6514.667887231045,0.002767658394576092,0.0027108411652771564
6514.668887002968,0.002743037455346853,0.0026982103443694908
6514.66988677489,0.002717231194217173,0.002685346935970258
6514.670886546813,0.00269058145419082,0.002672238955591331
6514.671886318735,0.0026634538521284287,0.002658882442012572
6514.672886090659,0.0026362309919214792,0.002645283505872799
6514.673885862581,0.002609305171758437,0.0026314600337729163
6514.674885634504,0.002583070775969093,0.002617443004928464
6514.6758854064265,0.0025579165666630263,0.002603277421036919
6514.676885178349,0.002534218101270291,0.002589022886298446
6514.677884950272,0.0025123304966880103,0.002574753893215566
6514.678884722195,0.0024925817405602323,0.0025605598642929536
6514.679884494118,0.0024752667136813174,0.0025465449755326186
6514.68088426604,0.002460642035263981,0.0025328277587545814
6514.681884037963,0.002448921788787366,0.0025195404516490435
6514.682883809885,0.002440274149812512,0.002506828034516187
6514.683883581809,0.00243481892749861,0.0024948468678323865
6514.684883353732,0.0024326260433566805,0.0024837628413050326
6514.685883125654,0.002433714992501653,0.0024737489730433057
6514.686882897577,0.0024380553532009127,0.002464982455210642
6514.687882669499,0.0024455684160599703,0.002457641218778633
6514.688882441423,0.002456129977091877,0.0024519001639452588
6514.689882213345,0.0024695742718149017,0.0024479272493037048
6514.690881985268,0.0024856989357391304,0.0024458796395514975
6514.691881757191,0.002504270791248133,0.0024459000897991104
6514.692881529113,0.002525032208816009,0.0024481137138433603
6514.693881301036,0.0025477077754904186,0.002452625248036093
6514.694881072959,0.002572011009426069,0.0024595168758598076
6514.695880844882,0.0025976508759320933,0.0024688466270210967
6514.696880616804,0.0026243378932593814,0.0024806473203052926
6514.697880388727,0.0026517896624359432,0.002494925979970924
6514.698880160649,0.0026797356921720392,0.002511663616766787
6514.699879932573,0.00270792139951781,0.002530815240222282
6514.700879704496,0.0027361111599680616,0.0025523099813379753
6514.701879476418,0.0027640902844090183,0.0025760512585871276
6514.702879248341,0.0027916658375107535,0.002601916990242197
6514.703879020263,0.0028186662896809056,0.002629759908120372
6514.704878792187,0.0028449400941837856,0.0026594080505972697
6514.705878564109,0.0028703533672672487,0.0026906655242754504
6514.706878336032,0.00289478689953818,0.0027233136425493178
6514.7078781079545,0.002918132742780431,0.002757112567513049
6514.708877879877,0.0029402906077096603,0.002791803572537892
6514.7098776518,0.002961164282727948,0.002827111992021366
6514.710877423723,0.002980658251619819,0.0028627508486773028
6514.711877195646,0.002998674664013916,0.002898425078755688
6514.712876967568,0.0030151108061570973,0.0029338362276276216
6514.713876739491,0.0030298572224442544,0.0029686874583685556
6514.714876511413,0.0030427966251061938,0.003002688702326807
6514.715876283337,0.0030538036806599996,0.0030355617884843798
6514.71687605526,0.003062745685190219,0.003067045413149869
6514.717875827182,0.0030694840728338656,0.0030968998343069367
6514.718875599105,0.0030738766776426483,0.0031249111827753315
6514.719875371027,0.0030757806857610107,0.0031508952840940577
6514.720875142951,0.0030750562382177186,0.0031747008964752715
6514.721874914873,0.003071570645082052,0.0031962122872439673
6514.722874686796,0.003065203142736843,0.0032153510736492546
6514.723874458719,0.0030558500792854204,0.0032320772390285863
6514.724874230641,0.003043430368581028,0.003246389220436073
6514.7258740025645,0.0030278910210138066,0.0032583229722275243
6514.726873774487,0.003009212530613562,0.003267949951843012
6514.72787354641,0.002987413864536746,0.0032753740392138333
6514.728873318332,0.0029625567700178636,0.0032807274653304636
6514.729873090255,0.0029347491036342253,0.0032841658717342086
6514.730872862177,0.0029041469159085337,0.003285862663354921
6514.731872634101,0.0028709550980691905,0.003286002878658657
6514.732872406024,0.0028354265031850403,0.0032847768797189744
6514.733872177946,0.002797859556658113,0.003282374216304716
6514.734871949869,0.0027585944387490033,0.0032789780051770126
6514.735871721791,0.002718007947439598,0.0032747600980020347
6514.736871493715,0.0026765071562445224,0.0032698772257885632
6514.737871265637,0.002634522006207163,0.0032644682304694885
6514.73887103756,0.0025924970356854624,0.0032586524289906
6514.739870809482,0.0025508825323983107,0.0032525290936144527
6514.740870581405,0.0025101254397160923,0.0032461779677563254
6514.7418703533285,0.0024706603412840236,0.003239660680306261
6514.742870125251,0.0024329008095663354,0.0032330228928539096
6514.743869897174,0.002397231372413709,0.0032262970083674542
6514.744869669096,0.0023640003407471933,0.0032195052541027975
6514.745869441019,0.002333513733024337,0.0032126629141807483
6514.746869212941,0.002306030502946227,0.0032057814624720875
6514.747868984865,0.0022817592201884863,0.0031988713742789675
6514.748868756788,0.0022608562895002297,0.0031919444763013464
6514.74986852871,0.002243425742655009,0.003185015789535671
6514.750868300633,0.0022295205980398616,0.0031781048819983244
6514.751868072555,0.0022191457327002903,0.0031712367540884094
6514.752867844479,0.002212262140033408,0.0031644422428037996
6514.753867616401,0.002208792367863843,0.0031577578916343724
6514.754867388324,0.002208626871228958,0.0031512252283101535
6514.755867160246,0.002211630979785979,0.0031448894346295287
6514.756866932169,0.002217652158723113,0.0031387974677828012
6514.7578667040925,0.0022265272239545358,0.003132995775018483
6514.758866476015,0.002238089163676026,0.0031275278017374696
6514.759866247938,0.002252173230075263,0.0031224314993180137
6514.76086601986,0.002268621998873482,0.003117736988410463
6514.761865791783,0.002287289148992406,0.0031134644540732523
6514.762865563705,0.0023080417918979264,0.0031096222857852386
6514.763865335629,0.002330761274784452,0.003106205458617297
6514.764865107552,0.0023553424767611525,0.0031031941747122252
6514.765864879474,0.002381691701759287,0.0031005528103100403
6514.766864651397,0.002409723350074552,0.0030982292174661684
6514.767864423319,0.0024393556256250204,0.0030961544232554726
6514.768864195243,0.002470505601464631,0.003094242775984079
6514.769863967165,0.002503084010259025,0.003092392607459862
6514.770863739088,0.0025369901378557843,0.0030904874947042874
6514.77186351101,0.0025721071729166507,0.0030883981978688754
6514.772863282933,0.002608298310081424,0.0030859853139904203
6514.7738630548565,0.0026454038269319463,0.003083102619555926
6514.774862826779,0.0026832392684291847,0.0030796009953899797
6514.775862598702,0.0027215947967847674,0.003075332757057351
6514.776862370624,0.0027602357133930354,0.0030701561665589586
6514.777862142547,0.0027989041262647054,0.003063939881299607
6514.77886191447,0.0028373217087217222,0.00305656710217895
6514.779861686393,0.0028751934699914384,0.0030479392070529776
6514.780861458316,0.0029122124356689926,0.0030379786903835474
6514.781861230238,0.002948065105117589,0.0030266312678565105
6514.782861002161,0.002982437501363669,0.0030138670429223986
6514.783860774083,0.003015021566856244,0.0029996806753392878
6514.784860546007,0.0030455216186719503,0.0029840905495542897
6514.785860317929,0.0030736605843180395,0.0029671370122064463
6514.786860089852,0.003099185789838971,0.0029488798143990666
6514.787859861774,0.0031218741449456594,0.0029293949360059903
6514.788859633697,0.003141536647375132,0.0029087709854141875
6514.7898594056205,0.003158022197133796,0.002887105376069229
6514.790859177543,0.0031712207590460398,0.0028645004975075177
6514.791858949466,0.0031810659312969357,0.0028410601194416587
6514.792858721388,0.0031875369655913616,0.0028168862718646603
6514.793858493311,0.0031906602432848086,0.00279207681912183
6514.794858265233,0.003190510154082217,0.0027667238958590376
6514.795858037157,0.0031872092784253204,0.0027409133033331353
6514.79685780908,0.003180927770493307,0.0027147248809014746
6514.797857581002,0.0031718818740036916,0.0026882337879850886
6514.798857352925,0.003160331543034485,0.002661512577763957
6514.799857124847,0.0031465771569780176,0.002634633913813929
6514.800856896771,0.003130955322841711,0.002607673753842195
6514.801856668693,0.0031138337809410144,0.0025807147916417045
6514.802856440616,0.0030956054829093353,0.0025538499233541297
6514.803856212538,0.0030766819715041644,0.002527185496796584
6514.804855984461,0.003057486230544219,0.002500844102162657
6514.8058557563845,0.0030384451812810473,0.0024749666626394033
6514.806855528307,0.0030199819875815948,0.0024497136024186888
6514.80785530023,0.0030025083129538136,0.0024252649285542286
6514.808855072152,0.0029864166687495384,0.0024018191575506938
6514.809854844075,0.002972073018372338,0.002379591116349136
6514.810854615998,0.002959809845519172,0.002358808719899699
6514.811854387921,0.002949919924642782,0.0023397088682875194
6514.812854159844,0.002942651023890648,0.0023225326286061185
6514.813853931766,0.002938201719355217,0.002307519881644974
6514.814853703689,0.002936718416698054,0.0022949036253701854
6514.815853475611,0.0029382935861947215,0.002284904134051449
6514.816853247535,0.0029429651441050123,0.0022777231625463745
6514.817853019457,0.002950716866289792,0.0022735383531303373
6514.81885279138,0.002961479696975055,0.002272497962928272
6514.819852563302,0.0029751338160477364,0.002274716008593574
6514.820852335225,0.0029915113488353574,0.0022802679257222873
6514.8218521071485,0.003010399628034294,0.0022891868433225883
6514.822851879071,0.0030315449350609364,0.0023014605626757406
6514.823851650994,0.003054656659602788,0.002317029310655183
6514.824851422916,0.003079411828438825,0.0023357843169866826
6514.825851194839,0.003105459966327853,0.0023575672349376506
6514.826850966762,0.0031324282581221803,0.00238217038190431
6514.827850738685,0.0031599269810695784,0.0024093377415586913
6514.828850510608,0.0031875551693548386,0.0024387666685906115
6514.82985028253,0.003214906460474327,0.0024701102642683353
6514.830850054453,0.003241575060218202,0.002502980410855968
6514.831849826375,0.0032671617514889264,0.002536951448390189
6514.832849598299,0.0032912798562969425,0.0025715644720092686
6514.833849370221,0.003313561039510186,0.00260633224836587
6514.834849142144,0.0033336608271987,0.0026407447851279045
6514.835848914066,0.0033512637112540302,0.00267427560464649
6514.836848685989,0.0033660877295453367,0.0027063887543308084
6514.8378484579125,0.0033778884483091696,0.002736546541768595
6514.838848229835,0.003386462322864975,0.0027642179295175873
6514.839848001758,0.0033916494547204085,0.0027888874743739133
6514.84084777368,0.0033933357828498877,0.0028100646560364076
6514.841847545603,0.0033914547468293253,0.0028272934118716265
6514.842847317526,0.0033859884492477075,0.0028401616685773934
6514.843847089449,0.0033769683296036106,0.0028483106246186963
6514.844846861372,0.0033644753474850403,0.002851443493732713
6514.845846633294,0.003348639669006879,0.0028493334016946536
6514.846846405217,0.0033296398582918956,0.002841830162613771
6514.847846177139,0.0033077015811018786,0.002828865727219822
6514.848845949063,0.003283095818907194,0.0028104581498387617
6514.849845720985,0.0032561365740717825,0.0027867139527250066
6514.850845492908,0.003227178032086613,0.0027578287973964804
6514.85184526483,0.003196611139218854,0.0027240864085099456
6514.852845036753,0.0031648595514175417,0.0026858557229034533
6514.8538448086765,0.0031323749095849584,0.002643586253902049
6514.854844580599,0.003099631398471293,0.002597801686069716
6514.855844352522,0.0030671195621578265,0.002549091760756221
6514.856844124444,0.0030353393894584284,0.0024981025729092794
6514.857843896367,0.003004792738543101,0.0024455254611920026
6514.85884366829,0.002975975216532027,0.002392084729791675
6514.859843440213,0.0029493676570926993,0.0023385244909998495
6514.860843212136,0.002925427359886181,0.0022855949573550587
6514.861842984058,0.002904579278350024,0.0022340385314986574
6514.862842755981,0.002887207366071638,0.002184576036938982
6514.863842527904,0.0028736463254946643,0.0021378934094306383
6514.864842299827,0.002864174052487143,0.0020946291421100175
6514.865842071749,0.002859005114921904,0.002055362763580258
6514.866841843672,0.002858285604894741,0.0020206046237494445
6514.867841615594,0.002862089643455555,0.001990787244089974
6514.868841387517,0.0028704177077195003,0.0019662584391699762
6514.8698411594405,0.0028831968257302756,0.0019472763395789626
6514.870840931363,0.002900282573843321,0.0019340063594016387
6514.871840703286,0.002921462728468165,0.0019265200689781283
6514.872840475208,0.002946462368101037,0.0019247958708227303
6514.873840247131,0.002974950183290377,0.0019287213497832158
6514.874840019054,0.0030065457199515352,0.0019380971798486312
6514.875839790977,0.003040827251373276,0.0019526424949574482
6514.8768395629,0.0030773399567049975,0.001972001637284898
6514.877839334822,0.0031156040981966775,0.0019957521721675206
6514.878839106745,0.0031551229479987284,0.0020234140171107823
6514.879838878667,0.0031953903052985987,0.0020544594931488874
6514.880838650591,0.003235897531401015,0.0020883240808918617
6514.881838422513,0.0032761400815400246,0.002124417650822973
6514.882838194436,0.003315623517438191,0.0021621359349145905
6514.883837966358,0.0033538689614012,0.0022008720124849584
6514.884837738281,0.003390417937317852,0.0022400275961696613
6514.8858375102045,0.003424836560587798,0.00227902392450511
6514.886837282127,0.003456719078677144,0.002317312092814211
6514.88783705405,0.0034856908080374382,0.002354382669745044
6514.888836825972,0.0035114105555516407,0.002389774438069416
6514.889836597895,0.0035335726406986842,0.0024230820682860426
6514.890836369818,0.003551908624866444,0.0024539625050116623
6514.891836141741,0.003566188810668219,0.002482139846341684
6514.892835913664,0.0035762235327939256,0.002507408541339365
6514.893835685586,0.00358186424134771,0.0025296348193911307
6514.894835457509,0.003583004360965674,0.0025487563797298557
6514.895835229432,0.003579579882205702,0.002564780477923538
6514.896835001355,0.003571569620271665,0.0025777806158270235
6514.897834773277,0.0035589950668109063,0.00258789206450768
6514.8988345452,0.003541919749451851,0.0025953064460402394
6514.899834317122,0.0035204480016017827,0.0026002655884950726
6514.900834089045,0.0034947230549018837,0.002603054847505027
6514.9018338609685,0.003464924408994219,0.0026039960528697493
6514.902833632891,0.0034312644954231928,0.002603440202257333
6514.903833404814,0.0033939847211294427,0.002601760007039697
6514.904833176736,0.0033533510423347655,0.002599342404195816
6514.905832948659,0.0033096492679033983,0.002596581169913315
6514.906832720582,0.00326318031227353,0.0025938697842115303
6514.907832492505,0.003214255611745111,0.0025915946850780364
6514.908832264428,0.003163192888511164,0.0025901290088295096
6514.90983203635,0.003110312402591574,0.0025898268455830965
6514.910831808273,0.003055933786677015,0.0025910179621371054
6514.911831580196,0.0030003735200341245,0.0025940028879954447
6514.912831352119,0.0029439430592893977,0.0025990482478256706
6514.913831124041,0.0028869476013119394,0.0026063822547746822
6514.914830895964,0.002829685408921867,0.0026161903370924547
6514.915830667886,0.0027724475843403196,0.0026286109420373457
6514.916830439809,0.002715518130043633,0.0026437316300390967
6514.9178302117325,0.00265917410493237,0.0026615856167159697
6514.918829983655,0.0026036856828701768,0.002682148936351126
6514.919829755578,0.0025493159577432787,0.0027053384050492444
6514.9208295275,0.002496320402183624,0.0027310105639730417
6514.921829299423,0.002444945949230923,0.002758961773482996
6514.922829071346,0.0023954297084060336,0.002788929598631938
6514.923828843269,0.002347997353212975,0.0028205955759054956
6514.924828615192,0.002302861235866137,0.0028535893897894383
6514.925828387114,0.002260218298347058,0.0028874944338540235
6514.926828159037,0.00222024785620233,0.0029218546982762114
6514.92782793096,0.002183109335351283,0.0029561829038527495
6514.928827702883,0.002148940048815825,0.0029899697648578857
6514.929827474805,0.0021178531229972095,0.003022694199991479
6514.930827246728,0.0020899357261061594,0.003053834244775558
6514.93182701865,0.0020652477888275025,0.003082878378203073
6514.932826790573,0.002043821403380663,0.0031093369636885455
6514.9338265624965,0.00202566103327686,0.0031327535005660568
6514.934826334419,0.0020107445831302703,0.0031527153728663896
6514.935826106342,0.0019990252938452955,0.003168863771863063
6514.936825878264,0.0019904343645611587,0.003180902477180575
6514.937825650187,0.00198488416797338,0.0031886052195619578
6514.93882542211,0.0019822719157138627,0.0031918214094756306
6514.939825194033,0.0019824836316762445,0.00319048009028143
6514.940824965956,0.0019853982889458098,0.0031845920574846698
6514.941824737878,0.0019908919570219142,0.003174250160211773
6514.942824509801,0.0019988418027502143,0.0031596278499394577
6514.943824281724,0.002009129803190181,0.003140976073950688
6514.944824053647,0.0020216460541761403,0.0031186186503433504
6514.945823825569,0.0020362915704170647,0.0030929463091973063
6514.946823597492,0.0020529804564997493,0.0030644096203579457
6514.947823369414,0.0020716412992469874,0.003033511038893001
6514.948823141338,0.0020922176255935275,0.003000796289929378
6514.9498229132605,0.0021146673042845366,0.00296684529512307
6514.950822685183,0.002138960835075035,0.0029322628158071685
6514.951822457106,0.002165078552745319,0.002897668953605313
6514.952822229028,0.002193006867012365,0.0028636896160060673
6514.953822000951,0.002222733744580057,0.0028309470307638575
6514.954821772874,0.0022542436894689116,0.0028000503753242596
6514.955821544797,0.0022875124850245867,0.0027715865668932627
6514.95682131672,0.002322501945965124,0.0027461112411719417
6514.957821088642,0.0023591549156497713,0.0027241399495634856
6514.958820860565,0.002397390737365822,0.002706139631057591
6514.959820632488,0.0024371014169012432,0.0026925204561691076
6514.960820404411,0.0024781486684622976,0.0026836281797728845
6514.961820176333,0.002520362001451935,0.0026797371600404034
6514.962819948256,0.00256353796512153,0.0026810441970268684
6514.963819720178,0.002607440616029071,0.002687663333965908
6514.964819492102,0.002651803210258498,0.0026996217661346116
6514.9658192640245,0.0026963310632845154,0.0027168570115206343
6514.966819035947,0.0027407054759278986,0.002739215496694105
6514.96781880787,0.002784588586419618,0.0027664526979845915
6514.968818579792,0.002827628963177412,0.0027982349638311092
6514.969818351715,0.002869467709363312,0.0028341431293108384
6514.970818123638,0.0029097448337392293,0.0028736780019192245
6514.971817895561,0.0029481056614259144,0.0029162677338453336
6514.972817667484,0.002984207100802218,0.002961277000209297
6514.973817439406,0.0030177236389769494,0.0030080177880632344
6514.974817211329,0.003048352997314712,0.0030557614866863867
6514.975816983252,0.00307582141972166,0.0031037518771220092
6514.976816755175,0.0030998885832814976,0.0031512185722238767
6514.977816527097,0.00312035213085421,0.003197390478633283
6514.97881629902,0.003137051837960402,0.003241508935111825
6514.979816070942,0.003149873429880539,0.003282840287665317
6514.980815842866,0.003158752048081468,0.003320687739323177
6514.9818156147885,0.0031636753279923094,0.003354402335428197
6514.982815386711,0.003164686000699244,0.0033833929269119585
6514.983815158634,0.0031618838850274267,0.003407134930064372
6514.984814930556,0.003155427111850086,0.003425177705646561
6514.985814702479,0.0031455324266562133,0.0034371504251568177
6514.986814474402,0.003132474439435986,0.0034427663625874972
6514.987814246325,0.003116583714073708,0.0034418256193121215
6514.988814018248,0.003098243603103066,0.0034342163375759883
6514.98981379017,0.0030778857453726467,0.003419914477698398
6514.990813562093,0.0030559841694411914,0.0033989822408871657
6514.991813334016,0.0030330479953832178,0.003371565246147105
6514.992813105939,0.0030096128002774646,0.0033378886278954824
6514.993812877861,0.002986230795410752,0.003298252276109546
6514.994812649784,0.002963460045985452,0.003253025446794142
6514.995812421706,0.002941853043433756,0.003202640922888441
6514.99681219363,0.002921945010021764,0.003147588844918309
6514.9978119655525,0.0029042423601068662,0.0030884102937857975
6514.998811737475,0.002889211743615852,0.0030256906926941912
6514.999811509398,0.0028772700477175898,0.002960053076521867
6515.00081128132,0.002868775648733619,0.0028921512459965013
6515.001811053244,0.0028640211200689015,0.002822662793788995
6515.002810825166,0.0028632275358896186,0.002752281972653518
6515.003810597089,0.002866540463839996,0.0026817123742492966
6515.004810369012,0.00287402769967859,0.002611659400956282
6515.005810140934,0.002885678752619063,0.0025428225414095506
6515.006809912857,0.0029014060422728766,0.0024758874981433364
6515.00780968478,0.002921047720772681,0.002411518250067405
6515.008809456703,0.0029443719914785294,0.002350349150870249
6515.009809228625,0.0029710827643269462,0.0022929771657407986
6515.010809000548,0.003000826469801146,0.0022399543438497782
6515.01180877247,0.003033199840136852,0.0021917806242404566
6515.012808544394,0.003067758447380069,0.002148897081712882
6515.0138083163165,0.0031040257694280463,0.0021116797317185165
6515.014808088239,0.0031415025537433086,0.002080434021677108
6515.015807860162,0.003179676266502708,0.0020553901405811017
6515.016807632084,0.0032180304415443616,0.0020366992848350526
6515.017807404007,0.0032560537771223765,0.0020244310233435204
6515.01880717593,0.003293248872356881,0.0020185718962044265
6515.019806947853,0.0033291405292339327,0.00201902535213997
6515.020806719776,0.0033632835358850715,0.002025613088380775
6515.021806491698,0.0033952697903133927,0.00203807781589086
6515.022806263621,0.003424734564378841,0.002056087438036948
6515.023806035544,0.0034513616950967306,0.0020792406002669143
