Time,Filtered_EMG_Bicep,Filtered_EMG_Tricep
7002.2904096181,0.006800218220935131,0.010038480053964838
7002.291409390316,0.006872206500646135,0.009857176693429667
7002.292409162531,0.00693681795034876,0.009732249056576135
7002.2934089347455,0.006993459780213342,0.009669744566800215
7002.294408706961,0.007041661727052318,0.009675265742105619
7002.295408479176,0.0070810875016681105,0.009753857190142216
7002.296408251392,0.0071115430121903266,0.009909896048012446
7002.297408023607,0.0071329809024385125,0.010146988460307803
7002.298407795823,0.007145501024204534,0.010467874555996197
7002.299407568037,0.007149346676117957,0.010874344082132462
7002.300407340253,0.007144896806748086,0.011367164495714982
7002.301407112468,0.0071326547713924,0.011946023009108828
7002.302406884684,0.0071132344766505675,0.012609483877720736
7002.303406656899,0.007087344757479297,0.013354962086444409
7002.304406429113,0.007055772644384459,0.01417871445401634
7002.305406201329,0.007019365892528844,0.015075848979098543
7002.306405973544,0.006979014864803189,0.016040353011537098
7002.30740574576,0.006935633685075419,0.01706514054650334
7002.308405517975,0.006890140572765028,0.01814211854688457
7002.309405290191,0.006843437422053668,0.01926227168080859
7002.310405062405,0.006796388902857179,0.020415764345210165
7002.311404834621,0.006749801538446208,0.02159205852682859
7002.312404606836,0.00670440333422433,0.022780045976482522
7002.313404379052,0.0066608246295455295,0.02396819315310917
7002.314404151267,0.006619580928916145,0.025144697163829235
7002.315403923481,0.006581058495283582,0.02629765036730961
7002.316403695697,0.00654550342146322,0.027415210519291144
7002.317403467912,0.006513014759674813,0.028485772571394494
7002.318403240128,0.0064835421310319085,0.029498137817374356
7002.319403012343,0.00645688807775404,0.030441676258257805
7002.320402784559,0.006432715256663417,0.03130647870657893
7002.321402556773,0.0064105584072659105,0.032083495801997944
7002.322402328989,0.006389840882260227,0.03276466144772328
7002.323402101204,0.006369895407720255,0.033342998384782864
7002.324401873419,0.00634998861350527,0.033812704104057165
7002.325401645635,0.006329348705327997,0.03416921617827088
7002.326401417849,0.00630719543839419,0.0344092571068853
7002.327401190065,0.006282771337008806,0.034530859491088924
7002.32840096228,0.006255372928707696,0.03453337252762747
7002.329400734496,0.006224380654821452,0.034417450502916364
7002.330400506711,0.006189286118388903,0.03418502360100519
7002.331400278927,0.006149715481985858,0.03383925135356585
7002.332400051141,0.006105448122441113,0.0333844595094116
7002.333399823357,0.006056429982276168,0.03282606167144438
7002.334399595572,0.0060027813285654825,0.032170467463082254
7002.335399367787,0.005944798849437027,0.03142497916306663
7002.336399140002,0.005882952255693915,0.03059767868958093
7002.337398912217,0.005817875812701947,0.029697306646104583
7002.338398684433,0.005750355427912614,0.02873313513965677
7002.339398456648,0.005681311996029085,0.02771483639873586
7002.340398228864,0.005611781673333369,0.026652349648782415
7002.341398001079,0.005542893694105949,0.025555748874916476
7002.342397773295,0.0054758463208355755,0.02443511384204951
7002.343397545509,0.005411881543871739,0.023300406231720486
7002.3443973177245,0.005352259186391763,0.022161352350602844
7002.34539708994,0.005298231093854022,0.021027333773452263
7002.346396862155,0.0052510160703247875,0.01990728740167759
7002.34739663437,0.005211776166129053,0.01880961647925799
7002.348396406585,0.00518159483557925,0.01774211392290362
7002.349396178801,0.005161457369246431,0.016711898905902058
7002.350395951016,0.005152233856376326,0.015725367124202024
7002.351395723232,0.005154664779781481,0.014788154699202357
7002.352395495447,0.0051693492444946565,0.013905115305829444
7002.353395267662,0.005196735814130007,0.01308030988094075
7002.354395039877,0.005237115936215444,0.012317008142205427
7002.3553948120925,0.005290619927062295,0.011617701065958067
7002.356394584308,0.005357215453866278,0.010984123359846143
7002.357394356523,0.005436708440586439,0.010417284773923487
7002.358394128738,0.005528746359708088,0.009917508823572455
7002.359393900953,0.005632823916875521,0.009484477216136683
7002.360393673169,0.0057482911308540715,0.009117278106605585
7002.361393445384,0.005874363742202467,0.008814456389251137
7002.3623932176,0.006010135783294841,0.008574064610456936
7002.363392989815,0.006154594043904114,0.008393713662163578
7002.36439276203,0.006306634080520112,0.008270622970391826
7002.365392534245,0.0064650773507025925,0.00820167023649907
7002.3663923064605,0.0066286890124506465,0.008183440872999498
7002.367392078676,0.006796195885461166,0.008212277185909627
7002.368391850891,0.0069663039845507015,0.008284327203632171
7002.369391623106,0.007137714932793926,0.00839559292361919
7002.370391395321,0.007309140553639952,0.008541977701110513
7002.371391167537,0.007479315112125854,0.00871933254233703
7002.372390939752,0.007647004979841424,0.00892350112538677
7002.373390711968,0.007811015791274299,0.009150363401330118
7002.374390484183,0.007970197332867272,0.009395877629840522
7002.375390256398,0.008123446484893307,0.0096561206844837
7002.376390028613,0.008269708621303867,0.009927326401545903
7002.3773898008285,0.008407978010299806,0.010205921641470966
7002.378389573044,0.00853729789794289,0.010488559604783648
7002.379389345259,0.008656761020788634,0.01077214979765705
7002.380389117474,0.008765511237117723,0.011053883901617538
7002.381388889689,0.008862746784606,0.011331256757641323
7002.382388661905,0.008947725389652035,0.011602081797685534
7002.38338843412,0.009019771118069286,0.011864500507179033
7002.384388206336,0.00907828253690527,0.012116985765250863
7002.385387978551,0.009122741542807188,0.012358339069688395
7002.386387750766,0.009152722188010174,0.012587681655273597
7002.387387522981,0.009167899003999586,0.012804439450714782
7002.3883872951965,0.00916805456084019,0.013008321922018139
7002.389387067412,0.009153086132123598,0.013199295249470527
7002.390386839627,0.009123011281877867,0.013377550808407015
7002.391386611842,0.009077972023885049,0.013543470246233475
7002.392386384057,0.009018237072896122,0.013697588420810744
7002.393386156273,0.008944201717713351,0.013840555208118126
7002.394385928488,0.0088563850065818,0.013973096909777537
7002.395385700704,0.008755424161885593,0.014095977815410825
7002.396385472919,0.008642066310174,0.014209962424401586
7002.397385245134,0.008517157655303698,0.014315778899787216
7002.398385017349,0.00838163019134,0.014414084486358898
7002.3993847895645,0.008236486081701543,0.014505433820068737
7002.40038456178,0.008082780004983792,0.014590251241579194
7002.401384333994,0.00792160004508759,0.014668808356587818
7002.40238410621,0.007754047966047967,0.014741208061351138
7002.403383878425,0.0075812198534909265,0.014807375990717275
7002.404383650641,0.007404188078643303,0.014867059890270406
7002.405383422856,0.007223985372961725,0.01491983690884384
7002.406383195072,0.007041591566444329,0.014965128388482565
7002.407382967287,0.006857923309307536,0.015002221436752665
7002.408382739502,0.00667382689095039,0.015030296330875971
7002.409382511717,0.006490074085675835,0.015048458531019293
7002.410382283932,0.006307360777611097,0.015055773785678319
7002.411382056148,0.006126307951100184,0.015051304615907606
7002.412381828362,0.005947464520559843,0.015034146428758504
7002.413381600578,0.005771311472924246,0.015003461559640913
7002.414381372793,0.005598266908092423,0.014958509638646414
7002.415381145009,0.005428691712282481,0.0148986729450736
7002.416380917224,0.005262895698690866,0.014823475973081354
7002.41738068944,0.005101144074286883,0.014732599162376379
7002.418380461654,0.004943664081256515,0.014625887388563921
7002.41938023387,0.0047906516675978675,0.014503354175791284
7002.420380006085,0.004642278072244794,0.014365182650865345
7002.4213797783,0.004498696231265147,0.0142117240579243
7002.422379550516,0.004360046898137173,0.014043494335303951
7002.42337932273,0.004226464347998914,0.013861169022841121
7002.424379094946,0.004098081548932135,0.013665576746352862
7002.425378867161,0.003975034738078451,0.01345769165328708
7002.426378639377,0.0038574673912693445,0.013238625289892182
7002.427378411592,0.003745533576629334,0.013009618446866962
7002.428378183808,0.0036394006365378967,0.012772033484251526
7002.429377956022,0.0035392510855936864,0.012527347566157481
7002.4303777282375,0.0034452835695557974,0.012277147023030113
7002.431377500453,0.0033577126986446314,0.01202312269146194
7002.432377272668,0.0032767675616226367,0.011767065644092408
7002.433377044884,0.003202688798262737,0.011510862371604319
7002.434376817098,0.003135724285436155,0.011256488346514553
7002.435376589314,0.0030761237126385095,0.01100599898315292
7002.436376361529,0.003024132476699149,0.010761517174245812
7002.437376133745,0.0029799853562960106,0.010525216709724262
7002.43837590596,0.002943900358257219,0.010299300992263283
7002.439375678176,0.0029160730158564606,0.010085976671559678
7002.44037545039,0.0028966713075709795,0.009887422175503945
7002.4413752226055,0.0028858312692801435,0.009705751561095897
7002.442374994821,0.0028836532949134456,0.009542974538188824
7002.443374767036,0.002890199061388769,0.009400953838729789
7002.444374539252,0.002905488970039297,0.009281361255475995
7002.445374311466,0.002929499953593873,0.009185633692263205
7002.446374083682,0.002962163441456058,0.009114930569102847
7002.447373855897,0.0030033632129607963,0.009070093991810066
7002.448373628113,0.0030529328347822324,0.00905161319488963
7002.449373400328,0.0031106524316214614,0.009059594796594584
7002.450373172544,0.003176244710167743,0.009093740293206967
7002.451372944758,0.0032493704007783685,0.00915333197571908
7002.4523727169735,0.0033296234958956903,0.009237228147424482
7002.453372489189,0.0034165267643474252,0.009343868208602132
7002.454372261404,0.0035095279953074776,0.009471287842434221
7002.45537203362,0.0036079973283278653,0.00961714415350243
7002.456371805834,0.0037112259337208826,0.009778750196521347
7002.45737157805,0.0038184262736704736,0.00995311795305101
7002.458371350265,0.003928734192318477,0.010137008515009214
7002.459371122481,0.004041213105025953,0.010326988020960494
7002.460370894696,0.004154860545193905,0.010519487766101246
7002.461370666912,0.004268617265793661,0.010710866901064372
7002.462370439126,0.004381378974015811,0.01089747626471877
7002.4633702113415,0.004492010609245121,0.011075722084568794
7002.464369983557,0.004599362889544221,0.011242128388285618
7002.465369755772,0.004702290688335589,0.011393396967484848
7002.466369527987,0.004799672683940235,0.01152646375279472
7002.467369300202,0.004890431654231453,0.011638550640436627
7002.468369072418,0.004973554764965451,0.011727212145946285
7002.469368844633,0.00504811322813793,0.01179037661629426
7002.470368616849,0.0051132807867251455,0.011826381976561936
7002.471368389064,0.005168350590766607,0.011834006084981365
7002.47236816128,0.005212750126969945,0.01181249178429944
7002.473367933494,0.005246053921524553,0.01176156674162272
7002.4743677057095,0.005267993754036796,0.01168145816870753
7002.475367477925,0.005278466131840817,0.011572902496096066
7002.47636725014,0.0052775368309356235,0.011437150056791296
7002.477367022355,0.005265442450380634,0.011275964813215425
7002.47836679457,0.0052425891295622695,0.01109161907856689
7002.479366566786,0.0052095487556887005,0.010886883006653532
7002.480366339001,0.005167053062602092,0.010665008379266601
7002.481366111217,0.005115985999249698,0.010429705972293394
7002.482365883432,0.005057374697885002,0.010185115633237632
7002.483365655647,0.004992379336610883,0.009935768262668235
7002.484365427862,0.004922282147745297,0.009686539186999401
7002.4853652000775,0.004848475760867965,0.009442592848858391
7002.486364972293,0.004772451017171772,0.009209319187742385
7002.487364744508,0.004695784364356374,0.008992262442433554
7002.488364516723,0.004620124903735334,0.008797043349016577
7002.489364288938,0.004547181082500425,0.008629275862009355
7002.490364061154,0.004478706921182312,0.008494479665101399
7002.491363833369,0.004416487574045431,0.00839798994269628
7002.492363605585,0.004362323953069121,0.008344866146125039
7002.4933633778,0.004318016109549273,0.008339801674221938
7002.494363150015,0.004285345080387899,0.008387036362760858
7002.49536292223,0.004266052986520127,0.008490273457650339
7002.496362694445,0.004261821299466663,0.008652602464729795
7002.497362466661,0.004274247316518244,0.008876429025500112
7002.498362238876,0.00430481896845046,0.009163412781528586
7002.499362011091,0.004354888139490591,0.009514414058263575
7002.500361783306,0.0044256427612418825,0.009929450140280467
7002.501361555522,0.004518078097857039,0.01040766192265143
7002.502361327737,0.004632967855485275,0.010947291745976953
7002.503361099953,0.004770835946759991,0.011545673183394278
7002.504360872168,0.004931929851767755,0.012199233443383872
7002.505360644383,0.005116196541953296,0.012903508950958329
7002.506360416598,0.0053232619131595455,0.013653174616877683
7002.507360188813,0.005552414625145239,0.014442087235534556
7002.508359961029,0.005802595153701656,0.015263343240635623
7002.509359733244,0.006072390721388061,0.016109350638235678
7002.510359505459,0.0063600366062777376,0.016971914405582943
7002.511359277674,0.0066634241650532396,0.017842334149640753
7002.51235904989,0.00698011575386915,0.018711512485362455
7002.513358822105,0.007307366573012827,0.01957007239168115
7002.514358594321,0.007642153287326954,0.020408481575638137
7002.515358366536,0.007981209081742918,0.02121718156187075
7002.516358138751,0.008321064608901654,0.021986719016855963
7002.517357910966,0.008658094101389317,0.02270787697775727
7002.518357683181,0.008988565786708409,0.023371804184629176
7002.519357455397,0.009308695655415561,0.023970141275533468
7002.520357227612,0.009614703562571991,0.024495142813114424
7002.521356999827,0.009902870600750199,0.0249397938631783
7002.522356772042,0.010169596721194732,0.02529791934073827
7002.523356544258,0.010411457700421218,0.025564283849984465
7002.524356316473,0.010625260668930523,0.025734679442829995
7002.525356088689,0.010808097439970483,0.025805998712142945
7002.526355860904,0.010957394768860922,0.02577629099976247
7002.527355633119,0.011070960499260249,0.025644800140998836
7002.528355405334,0.011147024431660485,0.02541198274899184
7002.529355177549,0.011184272767121223,0.025079506291109534
7002.530354949765,0.011181875119090056,0.024650226266734274
7002.531354721979,0.011139503260949946,0.024128142078206162
7002.532354494195,0.011057340913025864,0.023518331918413043
7002.53335426641,0.010936083963577418,0.022826867997576147
7002.534354038626,0.010776930633533697,0.0220607143111935
7002.535353810841,0.010581561344961967,0.0212276096400796
7002.536353583057,0.010352108504530926,0.020335938586746174
7002.537353355272,0.010091117002764702,0.019394593423228294
7002.538353127487,0.009801496768821407,0.018412829590990918
7002.539352899702,0.00948646901486288,0.017400117922655448
7002.540352671917,0.009149507806491463,0.016365996928085238
7002.541352444133,0.008794278433722722,0.01531992860379344
7002.542352216347,0.008424573906421018,0.014271161062486395
7002.543351988563,0.008044250850803509,0.013228600874094063
7002.544351760778,0.007657166124626344,0.01220069747995635
7002.545351532994,0.007267115525662271,0.011195341474681554
7002.546351305209,0.006877775965015548,0.010219777976725939
7002.5473510774245,0.006492652375494249,0.009280535748657991
7002.548350849639,0.006115030439812386,0.00838337222245236
7002.549350621855,0.005747935994556823,0.007533234190177519
7002.55035039407,0.005394101721467724,0.006734233664639362
7002.551350166285,0.005055941483239331,0.005989638265505484
7002.552349938501,0.0047355324027961426,0.0053018753763433525
7002.553349710715,0.004434604541466341,0.004672549200912274
7002.554349482931,0.0041545378202985095,0.0041024697202580096
7002.555349255146,0.0038963656549375713,0.003591692429801428
7002.556349027362,0.0036607846293975933,0.0031395676230322957
7002.557348799577,0.0034481694025231876,0.0027447978825672014
7002.5583485717925,0.003258591928279025,0.0024055023358122265
7002.559348344007,0.003091844023788237,0.0021192861330325643
7002.560348116223,0.0029474623839858133,0.001883313530151001
7002.561347888438,0.0028247552971566218,0.0016943829450724202
7002.562347660653,0.0027228304781645703,0.001549002435596553
7002.563347432869,0.002640623543218921,0.001443464208737318
7002.564347205083,0.0025769267054400083,0.0013739169606297459
7002.565346977299,0.0025304173068392568,0.0013364350064892596
7002.566346749514,0.0024996858286409573,0.0013270832812078866
7002.56734652173,0.0024832630239198994,0.0013419774122375133
7002.568346293945,0.0024796457936776014,0.0013773382263051748
7002.5693460661605,0.002487321408879233,0.00142954023634325
7002.570345838375,0.002504789704888327,0.0014951538082956766
7002.571345610591,0.0025305829608875457,0.0015709807986374713
7002.572345382806,0.002563283312619948,0.0016540835189384246
7002.573345155021,0.00260153768999441,0.0017418069879423287
7002.574344927237,0.0026440703729158762,0.0018317945934838873
7002.575344699451,0.0026896932943587136,0.0019219974562606067
7002.576344471667,0.002737314199175352,0.002010677900739181
7002.577344243882,0.0027859427222564023,0.002096407483192756
7002.578344016098,0.0028346944203940217,0.0021780600422114777
7002.579343788313,0.0028827928119610647,0.0022548002626487803
7002.5803435605285,0.0029295695485254576,0.002326068289726991
7002.581343332743,0.0029744629247948173,0.0023915609817041464
7002.582343104958,0.0030170149853714157,0.0024512104232988384
7002.583342877174,0.00305686749460267,0.002505160319204418
7002.584342649389,0.0030937570060072094,0.0025537408482070355
7002.585342421605,0.0031275092141528097,0.002597442504357384
7002.586342193819,0.0031580327220865384,0.0026368894075436745
7002.587341966035,0.00318531234318614,0.002672812546458554
7002.58834173825,0.0032094020789841657,0.0027060234189508776
7002.589341510466,0.003230417939001891,0.0027373885384625912
7002.590341282681,0.003248530760773861,0.00276780526163187
7002.5913410548965,0.003263959147995391,0.0027981793581857805
7002.592340827111,0.0032769626006246143,0.00282940469794313
7002.593340599326,0.0032878348865600674,0.0028623453761311016
7002.594340371542,0.0032968976953021483,0.002897820535002067
7002.595340143757,0.0033044945981949327,0.002936592063610313
7002.596339915972,0.0033109853044838516,0.0029793552719328074
7002.597339688187,0.003316740151280522,0.0030267325491242347
7002.598339460403,0.0033221347164951905,0.003079269933786118
7002.599339232618,0.0033275444227663046,0.0031374364452472683
7002.600339004834,0.0033333390276270008,0.0032016259491806113
7002.601338777049,0.0033398769716308303,0.0032721612661918897
7002.6023385492645,0.0033474996573830164,0.00334930018270671
7002.603338321479,0.003356525818896793,0.0034332429758204136
7002.604338093694,0.003367246188824693,0.003524140999014305
7002.60533786591,0.003379918690975725,0.003622105801730447
7002.606337638125,0.0033947643980321972,0.0037272182097647013
7002.60733741034,0.0034119644968677873,0.003839536807936582
7002.608337182555,0.0034316584696949316,0.003959105344992725
7002.609336954771,0.0034539436104789856,0.004085958705451408
7002.610336726986,0.003478875865619135,0.004220127237203784
7002.611336499202,0.0035064718483665985,0.004361639346371973
7002.612336271417,0.0035367117607374896,0.004510522331844679
7002.613336043632,0.0035695428965082598,0.004666801432880762
7002.614335815847,0.0036048834216154445,0.004830497055322309
7002.615335588062,0.0036426262260617764,0.005001620183242348
7002.616335360278,0.003682642750906735,0.005180166098030575
7002.617335132493,0.003724786742164871,0.005366106691405787
7002.618334904708,0.0037688978561441024,0.005559381808377017
7002.619334676923,0.0038148049852410318,0.005759890131450567
7002.620334449139,0.0038623291474139607,0.005967480104476516
7002.621334221354,0.003911285814776086,0.006181941312471979
7002.62233399357,0.003961486632894948,0.006402996601673512
7002.623333765785,0.004012740560837867,0.006630295058390631
7002.624333538,0.004064854511575041,0.006863405796689962
7002.625333310215,0.00411763359201357,0.0071018123926939805
7002.62633308243,0.004170881044758454,0.007344907815183007
7002.627332854646,0.004224397990695657,0.007591989837291384
7002.628332626861,0.004277983069591027,0.007842257066116728
7002.629332399076,0.0043314320768951435,0.008094805784460844
7002.630332171291,0.004384537698705058,0.008348627750239784
7002.631331943507,0.004437089455821102,0.008602609009772048
7002.632331715722,0.004488873982737934,0.008855529734475016
7002.6333314879375,0.004539675782815374,0.009106065161590767
7002.634331260153,0.0045892786050650706,0.009352787925920234
7002.635331032368,0.004637467564174397,0.009594172330543148
7002.636330804583,0.004684032062130016,0.009828601282115561
7002.637330576798,0.004728769472891687,0.01005437660204747
7002.638330349014,0.004771489443098,0.010269733204789838
7002.639330121229,0.004812018571149407,0.010472857291165727
7002.640329893444,0.0048502051809721876,0.010661908355728375
7002.641329665659,0.00488592392311644,0.010835044546115977
7002.642329437875,0.0049190800133818826,0.010990450787495831
7002.64332921009,0.004949613018253557,0.01112636907818959
7002.6443289823055,0.00497750015314821,0.011241130386709462
7002.645328754521,0.005002759053026755,0.01133318755478375
7002.646328526736,0.0050254499591854615,0.011401148534703162
7002.647328298951,0.005045677302268574,0.011443809198043869
7002.648328071166,0.0050635907430018464,0.01146018484788486
7002.649327843382,0.005079385801582907,0.011449539465659008
7002.650327615597,0.0050933042211821645,0.011411411708983524
7002.651327387812,0.005105634163304827,0.011345636781285591
7002.652327160027,0.005116710233384079,0.011252363420599121
7002.653326932243,0.005126913197165649,0.011132065333356632
7002.654326704458,0.005136669081948972,0.01098554652975767
7002.6553264766735,0.005146447183069288,0.010813940314611139
7002.656326248889,0.005156756382059048,0.010618702061855983
7002.657326021104,0.0051681392244581,0.01040159614024604
7002.658325793319,0.005181163433416352,0.010164677373372875
7002.659325565534,0.005196410855375333,0.009910267310683282
7002.66032533775,0.005214464096536172,0.009640925520959466
7002.661325109964,0.005235891237075161,0.009359416190638282
7002.66232488218,0.005261229035352441,0.009068670498442911
7002.663324654395,0.005290965023339692,0.008771745462403427
7002.664324426611,0.005325518892338561,0.008471780153946451
7002.665324198826,0.0053652236076222925,0.00817195032496649
7002.6663239710415,0.005410306795883224,0.00787542257313633
7002.667323743257,0.005460873102543537,0.0075853091510158736
7002.668323515472,0.005516888349544696,0.00730462441746022
7002.669323287687,0.0055781663673432945,0.007036243787397576
7002.670323059902,0.005644359307246088,0.006782865912548623
7002.671322832118,0.005714952100164107,0.006546978743650537
7002.672322604332,0.00578926157083953,0.006330830065002911
7002.673322376548,0.005866440571092117,0.006136403013747863
7002.674322148763,0.005945487359165704,0.005965396966341309
7002.675321920979,0.00602526031225775,0.0058192139843317855
7002.676321693194,0.0061044979014102515,0.005698950785403505
7002.6773214654095,0.006181843669133442,0.00560539599718138
7002.678321237624,0.006255875729589494,0.005539032302272108
7002.679321009839,0.0063251400688065056,0.0055000429837780565
7002.680320782055,0.006388186671101404,0.005488322297057085
7002.68132055427,0.006443607260158766,0.005503489035610834
7002.682320326486,0.006490073249614947,0.005544902687568405
7002.6833200987,0.006526372373367844,0.0056116817236447625
7002.684319870916,0.006551442449968777,0.005702723751938743
7002.685319643131,0.0065644009054220435,0.005816727410792177
7002.686319415347,0.0065645690675304215,0.005952215890957411
7002.687319187562,0.00655149072966975,0.006107561894787372
7002.6883189597775,0.006524944855878692,0.006281013701121577
7002.689318731992,0.006484952477535741,0.006470721879339694
7002.690318504207,0.006431777899457738,0.006674766151619636
7002.691318276423,0.006365924397686578,0.006891181947989264
7002.692318048638,0.0062881246846203925,0.007117986273840412
7002.693317820854,0.006199326532480544,0.007353202544525975
7002.694317593068,0.006100674077146311,0.007594884009925189
7002.695317365284,0.005993485449935504,0.007841135319251
7002.696317137499,0.0058792274667934675,0.008090131736957792
7002.697316909715,0.005759488120177078,0.008340135589959347
7002.69831668193,0.005635947575405977,0.00858950969282335
7002.699316454145,0.0055103482949245075,0.008836727662329453
7002.70031622636,0.005384464840780028,0.009080381138539984
7002.701315998575,0.005260073877168874,0.009319184032095968
7002.702315770791,0.00513892490475718,0.009551974087475155
7002.703315543006,0.005022712246029129,0.009777712268611042
7002.704315315222,0.004913048715042191,0.009995480652226923
7002.705315087436,0.00481144126659678,0.010204479584174041
7002.706314859652,0.004719268807561954,0.010404024788750335
7002.707314631867,0.0046377623271918866,0.010593544948670026
7002.708314404083,0.004567987546304592,0.010772580062083285
7002.709314176298,0.004510830320681032,0.010940780688788669
7002.710313948513,0.004466985005028101,0.011097908027541898
7002.711313720728,0.004436945909135671,0.011243834591787835
7002.712313492943,0.00442100192182131,0.01137854505963511
7002.713313265159,0.004419234368334781,0.011502136723659255
7002.714313037374,0.004431518163717924,0.01161481896822435
7002.71531280959,0.0044575262758983,0.011716911404360285
7002.716312581804,0.004496737407558848,0.011808840596776385
7002.71731235402,0.004548446677329951,0.01189113554402152
7002.718312126235,0.004611778975322825,0.01196442208861623
7002.7193118984505,0.004685704611650182,0.012029416226999028
7002.720311670666,0.0047690568546831045,0.01208691596903984
7002.721311442881,0.004860550936547105,0.01213779113775155
7002.722311215096,0.0049588040787471276,0.012182970435592112
7002.723310987311,0.005062356081304327,0.012223425261520138
7002.724310759527,0.005169690048062187,0.012260150079103499
7002.725310531742,0.0052792528979607465,0.01229413949254606
7002.726310303957,0.005389475424616829,0.01232636247240882
7002.727310076172,0.005498791777230497,0.012357734381862964
7002.728309848388,0.005605658300324744,0.012389087685506272
7002.729309620603,0.005708571672713032,0.012421142510297998
7002.7303093928185,0.005806086251698198,0.01245447846404567
7002.731309165034,0.00589683049504959,0.012489509183204335
7002.732308937249,0.0059795223284392655,0.012526460970628015
7002.733308709464,0.00605298335563208,0.012565356653984764
7002.734308481679,0.006116151849038677,0.012606005484034524
7002.735308253895,0.00616809447150457,0.012647999505379696
7002.73630802611,0.006208016651913798,0.012690716403338026
7002.737307798325,0.006235271484645605,0.012733328455634714
7002.73830757054,0.006249366970207524,0.012774816994764179
7002.739307342756,0.006249971377759201,0.012813991714048047
7002.740307114971,0.006236916501251508,0.012849514147326513
7002.7413068871865,0.006210198606727713,0.012879924676977763
7002.742306659402,0.006169976925043566,0.012903672482069124
7002.7433064316165,0.00611656960867026,0.012919147887366589
7002.744306203832,0.006050447109382882,0.012924716532884649
7002.745305976047,0.005972222938258338,0.012918754635262028
7002.746305748263,0.00588264178819803,0.012899684448819093
7002.747305520478,0.005782565099280312,0.012866008988443388
7002.748305292693,0.005672954342836582,0.012816345210828453
7002.749305064908,0.005554852529523388,0.01274945509261961
7002.750304837124,0.005429364619163395,0.012664274240840871
7002.751304609339,0.005297637568950614,0.012559937728885095
7002.7523043815545,0.005160840712138432,0.012435802796926526
7002.75330415377,0.0050201470683293,0.01229146796344087
7002.7543039259845,0.00487671608722585,0.012126788021838813
7002.7553036982,0.004731678207831301,0.011941884393847179
7002.756303470415,0.00458612145562911,0.011737150409742454
7002.757303242631,0.00444108012045028,0.011513251231968
7002.758303014846,0.004297525397406907,0.01127111823522626
7002.759302787061,0.004156357760957445,0.011011937723518805
7002.760302559276,0.0040184007983740345,0.010737134065419898
7002.761302331492,0.00388439627534848,0.010448347740656956
7002.762302103707,0.003755000342718007,0.010147409261973219
7002.7633018759225,0.0036307809655280656,0.009836310251641698
7002.764301648138,0.003512216778306576,0.009517173038352788
7002.765301420352,0.0033996975949748187,0.009192220045852973
7002.766301192568,0.00329352674675134,0.008863744031820527
7002.767300964783,0.0031939253286992937,0.008534079944650604
7002.768300736999,0.0031010383247025825,0.008205578818905735
7002.769300509214,0.0030149424535710007,0.007880583750411696
7002.770300281429,0.0029356554450684293,0.007561407655131658
7002.771300053644,0.0028631463371661236,0.007250312345269043
7002.77229982586,0.0027973463153889,0.006949488505359633
7002.773299598075,0.0027381596221633213,0.006661036321690302
7002.7742993702905,0.002685474158916478,0.006386946662554724
7002.775299142506,0.0026391715531923136,0.006129082796522029
7002.77629891472,0.002599136603715129,0.005889162755925384
7002.777298686936,0.0025652660987635243,0.005668742642247573
7002.778298459151,0.002537477014490832,0.005469201351733596
7002.779298231367,0.0025157140532472313,0.005291727275571174
7002.780298003582,0.0024999564056370806,0.005137307484053001
7002.781297775797,0.002490223549208122,0.005006719793906178
7002.782297548012,0.0024865798604877085,0.004900527995770887
7002.783297320228,0.0024891378251409857,0.004819080399893124
7002.784297092443,0.00249805966837025,0.004762511735928357
7002.785296864658,0.002513557265027827,0.004730748308386251
7002.786296636874,0.0025358902065775843,0.004723516152625364
7002.787296409088,0.002565361909001597,0.004740351755013882
7002.788296181304,0.0026023136702803145,0.004780614720800434
7002.789295953519,0.0026471166424762394,0.0048435016455505445
7002.790295725735,0.002700161758613147,0.0049280604133766295
7002.791295497949,0.002761847733353318,0.005033204217361286
7002.792295270165,0.002832567338242443,0.005157724759398275
7002.79329504238,0.002912692234043825,0.005300304315494147
7002.794294814596,0.0030025567158091814,0.005459526611763602
7002.795294586811,0.0031024407915087784,0.005633886680636684
7002.796294359026,0.003212553069633826,0.005821799992734499
7002.797294131242,0.0033330139533213053,0.006021611177976245
7002.798293903456,0.0034638396147560653,0.006231602596418628
7002.799293675672,0.0036049271770133067,0.006450002941269903
7002.800293447887,0.0037560414960031156,0.006674996015843987
7002.801293220103,0.003916803918119686,0.006904729882581109
7002.802292992317,0.004086683370437578,0.00713732670444446
7002.803292764533,0.004264990113597872,0.007370893653276447
7002.804292536748,0.004450872465115542,0.007603535143410641
7002.805292308964,0.004643316785569632,0.007833366398935289
7002.806292081179,0.004841150998301153,0.008058528111659632
7002.807291853394,0.005043051868734584,0.008277201803814199
7002.808291625609,0.005247556187604008,0.008487625490940493
7002.809291397824,0.0054530758760826786,0.008688109278854411
7002.81029117004,0.005657916876816748,0.008877050534172109
7002.811290942255,0.0058603015481054664,0.009052948195358686
7002.812290714471,0.006058394157569291,0.009214415685189983
7002.813290486685,0.006250328959034098,0.009360191874523192
7002.814290258901,0.006434240208467388,0.009489149747945303
7002.815290031116,0.006608293353951716,0.009600302805648246
7002.816289803332,0.006770716591402534,0.009692809627556384
7002.817289575547,0.006919832057162411,0.009765977260914029
7002.818289347762,0.007054086078315573,0.009819264124331402
7002.819289119977,0.007172078006647435,0.009852282984450508
7002.820288892192,0.007272587157651051,0.009864804320485459
7002.821288664408,0.007354597288948219,0.009856760118633037
7002.822288436623,0.0074173179462694175,0.009828247887237735
7002.823288208839,0.007460201941854473,0.009779534491016364
7002.824287981053,0.007482958270126032,0.009711059286258017
7002.825287753269,0.007485559930747712,0.009623435973510508
7002.826287525484,0.0074682463677904105,0.009517452538466144
7002.8272872977,0.007431520457117743,0.009394068671871078
7002.828287069915,0.007376140123625217,0.00925441022955732
7002.82928684213,0.0073031047474324115,0.009099760588430587
7002.830286614345,0.007213636575548399,0.008931549016171736
7002.83128638656,0.007109157456417009,0.00875133626603062
7002.832286158776,0.006991261394552133,0.00856079755151442
7002.833285930991,0.006861683672668096,0.008361702995535163
7002.834285703207,0.006722267550949544,0.008155895716851446
7002.835285475421,0.006574929731636955,0.007945267913616551
7002.836285247637,0.0064216257979922645,0.007731735519152616
7002.837285019852,0.006264316708754445,0.007517212132035894
7002.838284792068,0.006104937231472211,0.007303582933668974
7002.839284564283,0.005945367006769294,0.007092679243141994
7002.840284336498,0.0057874047692608776,0.006886254282771681
7002.841284108713,0.0056327460796835715,0.006685960674424252
7002.842283880928,0.005482964713744639,0.006493330140079198
7002.843283653144,0.005339497602745278,0.006309755790417027
7002.844283425359,0.005203632969337841,0.00613647723987046
7002.845283197575,0.005076501133110968,0.005974568648759765
7002.846282969789,0.004959067458743457,0.00582492973766719
7002.847282742005,0.00485212707964256,0.005688279832927729
7002.84828251422,0.004756301233994192,0.005565154987799606
7002.849282286436,0.004672035169447411,0.005455908118593239
7002.850282058651,0.004599597580981409,0.005360711950450118
7002.851281830866,0.004539081506467645,0.005279564484766889
7002.852281603081,0.004490406585486885,0.005212296706683572
7002.853281375296,0.004453322626747578,0.005158582276858079
7002.854281147512,0.004427414529052164,0.00511794892436466
7002.855280919727,0.004412108720236763,0.005089791182861249
7002.856280691943,0.004406681359747602,0.005073384057610386
7002.857280464157,0.004410268561576438,0.005067897229858137
7002.858280236373,0.0044218788428043235,0.005072409484849824
7002.859280008588,0.0044404079145694735,0.00508592313314834
7002.860279780804,0.004464655829632066,0.005107378241225505
7002.861279553019,0.004493346395723941,0.005135666495860531
7002.862279325234,0.0045251486589374485,0.005169644518548763
7002.863279097449,0.0045587001559955894,0.005208146452880616
7002.864278869664,0.004592631527941359,0.005249995707044405
7002.86527864188,0.004625591980613983,0.005294015856312244
7002.866278414095,0.00465627496845603,0.005339040852716816
7002.86727818631,0.00468344336593784,0.005383924779379906
7002.868277958525,0.004705953293301117,0.005427551393120982
7002.869277730741,0.0047227757395839004,0.005468843658992393
7002.870277502956,0.0047330152280854396,0.005506773450812145
7002.871277275171,0.00473592496137906,0.00554037157425068
7002.872277047387,0.00473091806844651,0.005568738210672617
7002.873276819601,0.004717574722447568,0.0055910537438732975
7002.874276591817,0.004695645065638197,0.005606589747059509
7002.875276364032,0.004665048116875474,0.005614719747708024
7002.876276136248,0.00462586709518866,0.005614929310246151
7002.877275908463,0.0045783417632912545,0.005606824986604834
7002.878275680678,0.0045228584300236714,0.005590141757754515
7002.879275452893,0.004459938200933507,0.005564748691717252
7002.880275225109,0.004390224006582533,0.005530652632243917
7002.881274997324,0.004314466893780756,0.005487999779064303
7002.882274769539,0.004233512020252033,0.005437075038861529
7002.883274541755,0.004148284732708121,0.005378299046368715
7002.884274313969,0.004059777021273858,0.0053122227989629844
7002.885274086185,0.003969034524181239,0.00523951993630117
7002.8862738584,0.0038771441299272824,0.005160976829076619
7002.887273630616,0.0037852221359446513,0.0050774807717116335
7002.888273402831,0.0036944028852927695,0.004990006649273755
7002.889273175046,0.003605827778364753,0.004899602458388768
7002.890272947261,0.003520634519083046,0.004807374021830211
7002.891272719477,0.0034399464342893937,0.00471446915725358
7002.892272491692,0.0033648617434956646,0.004622061459708477
7002.893272263907,0.0032964427422089346,0.0045313337898906444
7002.894272036123,0.0032357049395651985,0.004443461592994081
7002.895271808337,0.003183606227386923,0.004359596303871215
7002.896271580553,0.003141036166763585,0.004280849224054445
7002.897271352768,0.0031088054847124695,0.00420827628607268
7002.898271124984,0.003087635892267959,0.004142864049525418
7002.899270897199,0.0030781503705466064,0.004085517178060895
7002.900270669414,0.0030808641060584186,0.004037047591150933
7002.901270441629,0.0030961762619758503,0.0039981654680551785
7002.9022702138445,0.0031243627437884344,0.003969472256717157
7002.90326998606,0.0031655700818997655,0.003951455773837823
7002.904269758275,0.0032198105332396127,0.003944487380614131
7002.905269530491,0.0032869585033651018,0.003948821107234691
7002.906269302705,0.0033667484089362305,0.00396459450378215
7002.907269074921,0.003458774130129046,0.0039918309391564
7002.908268847136,0.003562490219864428,0.004030443062401106
7002.909268619352,0.0036772150191563438,0.004080237165032383
7002.910268391567,0.0038021357724748804,0.004140918207256609
7002.911268163782,0.003936315753834402,0.004212095281559412
7002.912267935997,0.004078703321886553,0.004293287303638173
7002.9132677082125,0.00422814275046261,0.00438392877125359
7002.914267480428,0.004383386653011393,0.004483375520585547
7002.915267252643,0.004543109827807918,0.004590910517794666
7002.916267024859,0.004705924360446363,0.00470574981551711
7002.917266797073,0.004870395793554611,0.004827048830313715
7002.918266569289,0.005035060099072388,0.004953909027895662
7002.919266341504,0.005198441088943246,0.005085384976279836
7002.92026611372,0.005359067818607775,0.005220491635067476
7002.921265885935,0.005515491520590894,0.005358211758084668
7002.92226565815,0.005666301690324337,0.005497503374845035
7002.923265430365,0.005810141134523098,0.005637307399432468
7002.9242652025805,0.005945720024650734,0.005776555427356104
7002.925264974796,0.006071829177024636,0.005914177722131328
7002.926264747011,0.006187352835737905,0.006049111316729817
7002.927264519227,0.0062912811597947696,0.00618030811733836
7002.928264291441,0.006382722452170313,0.00630674291384599
7002.929264063657,0.006460914966385585,0.006427421244242088
7002.930263835872,0.0065252379384789115,0.006541387095975356
7002.931263608088,0.006575221368662503,0.006647730459479238
7002.932263380302,0.0066105540437499865,0.006745594807004033
7002.933263152518,0.006631089345901992,0.00683418465927139
7002.934262924733,0.006636848517777262,0.006912773475432572
7002.9352626969485,0.00662802121516056,0.006980712087848434
7002.936262469164,0.006604963310574864,0.007037437769249047
7002.937262241379,0.006568191945807865,0.007082483798727989
7002.938262013594,0.006518377770958944,0.007115489163350694
7002.939261785809,0.006456334261988631,0.007136207871155184
7002.940261558025,0.00638300410560436,0.007144517286952251
7002.94126133024,0.0062994428874984295,0.0071404249150929305
7002.942261102456,0.0062068005833222075,0.007124073132756631
7002.94326087467,0.006106301492533247,0.00709574152534193
7002.944260646886,0.005999223256155341,0.007055846644061574
7002.945260419101,0.005886875536385983,0.007004939110986607
7002.9462601913165,0.005770578875490492,0.006943698012055484
7002.947259963532,0.005651644206112079,0.006872922502243891
7002.948259735747,0.005531353431108115,0.0067935205808412474
7002.949259507962,0.005410941406429744,0.006706495108309434
7002.950259280177,0.005291579560640311,0.006612927287572385
7002.951259052393,0.005174361320129751,0.006513957970126915
7002.952258824608,0.005060289517430682,0.0064107672581940325
7002.953258596824,0.004950266015012559,0.006304552955382037
7002.954258369038,0.004845083797338523,0.0061965084674849005
7002.955258141254,0.004745421705759218,0.006087800795041481
7002.956257913469,0.0046518418256754875,0.005979549303771583
7002.957257685684,0.0045647893543500654,0.005872805971683301
7002.9582574579,0.004484594649307482,0.005768537752476739
7002.959257230115,0.004411477103340818,0.005667611574291466
7002.96025700233,0.0043455504934750075,0.0055707823546433536
7002.961256774545,0.004286829483986984,0.00547868429055913
7002.962256546761,0.004235237014369736,0.005391825578522867
7002.963256318976,0.004190612353630934,0.00531058660645089
7002.964256091192,0.004152719632047394,0.005235221521514133
7002.965255863406,0.0041212566744449845,0.005165862925357957
7002.966255635622,0.0040958639832375425,0.0051025293112531185
7002.967255407837,0.004076133771373669,0.0050451347649848426
7002.968255180052,0.004061619007899693,0.004993500422120085
7002.969254952268,0.004051842474933958,0.004947367197933593
7002.970254724483,0.004046305817626009,0.004906409339386575
7002.971254496698,0.004044498506914436,0.0048702483545469966
7002.972254268913,0.00404590657312096,0.004838466854118233
7002.973254041129,0.004050020948393478,0.004810621820123701
7002.974253813344,0.004056345269491856,0.004786256837547401
7002.97525358556,0.004064402987991752,0.0047649129115517495
7002.976253357774,0.004073743586053353,0.00474613761815483
7002.97725312999,0.004083947649160669,0.004729492434733833
7002.978252902205,0.004094630586254573,0.004714558145987254
7002.97925267442,0.004105444946211971,0.004700938270101926
7002.980252446636,0.004116081498529029,0.004688260552256349
7002.981252218851,0.004126269421135281,0.004676176716904666
7002.982251991066,0.004135776001814195,0.00466436078888924
7002.983251763281,0.004144406211963738,0.004652506340996292
7002.984251535497,0.004152002398382671,0.004640323043247204
7002.985251307712,0.004158444220155351,0.004627532958033531
7002.986251079928,0.004163648874251285,0.004613867151625843
7002.987250852142,0.0041675715964914085,0.004599063285249623
7002.9882506243575,0.004170206347074888,0.004582864819425003
7002.989250396573,0.00417158646712351,0.004565022310125171
7002.990250168788,0.004171784962090586,0.004545297051534917
7002.991249941004,0.0041709139946607314,0.004523467085546708
7002.992249713219,0.004169123187864884,0.004499335391050123
7002.993249485434,0.004166596442689703,0.00447273991054769
7002.994249257649,0.00416354714272064,0.0044435649782549515
7002.995249029865,0.004160211813223957,0.004411753678231378
7002.99624880208,0.0041568424599529455,0.004377320661231041
7002.997248574295,0.004153697882633031,0.00434036494507541
7002.99824834651,0.004151034249166019,0.004301082176719584
7002.9992481187255,0.004149095193866384,0.004259775740864836
7003.000247890941,0.004148101727494996,0.004216866007411069
7003.001247663156,0.004148242317737708,0.004172896993430664
7003.002247435372,0.004149663557916462,0.004128539816830673
7003.003247207586,0.0041524618402918895,0.004084592497005329
7003.004246979802,0.0041566763959656,0.004041975818565592
7003.005246752017,0.004162283997258699,0.004001725069331671
7003.006246524233,0.004169195568196738,0.0039649775364025905
7003.007246296448,0.004177254912659768,0.0039329557620747186
7003.008246068663,0.004186239732707363,0.003906946731958635
7003.009245840878,0.004195865061696668,0.0038882773444533147
7003.0102456130935,0.004205789172752571,0.0038782866579789225
7003.011245385309,0.004215621933210536,0.003878295528438674
7003.012245157524,0.00422493545685366,0.0038895743529297993
7003.01324492974,0.004233276778101112,0.003913309755998481
7003.014244701954,0.004240182159904403,0.003950571199799454
7003.01524447417,0.004245192550056097,0.00400227861882176
7003.016244246385,0.004247869614415097,0.004069172202162103
7003.017244018601,0.004247811728829338,0.004151785358495878
7003.018243790816,0.0042446693484143,0.004250421750581843
7003.019243563031,0.004238159291902275,0.0043651371280728265
7003.020243335246,0.004228077614682592,0.004495726536105996
7003.0212431074615,0.004214310824986898,0.0046417173287129
7003.022242879677,0.00419684520692378,0.004802368264437821
7003.023242651892,0.004175773988674302,0.00497667479889807
7003.024242424108,0.004151302082151476,0.00516338050979451
7003.025242196322,0.004123748152912239,0.005360994406370011
7003.026241968538,0.004093543868970547,0.005567813715199917
7003.027241740753,0.0040612303180099065,0.005781951610789207
7003.028241512969,0.004027451734389405,0.006001369257300662
7003.029241285184,0.003992946778251294,0.00622391142930241
7003.030241057399,0.00395853762583002,0.006447344888003163
7003.031240829614,0.003925117082796891,0.00666939860972495
7003.0322406018295,0.003893633865749372,0.006887804883406344
7003.033240374045,0.0038650761517132403,0.00710034021095147
7003.03424014626,0.0038404534987961435,0.007304864894338567
7003.035239918476,0.003820777295739773,0.007499360236474404
7003.03623969069,0.0038070399895906858,0.007681962446914374
7003.037239462906,0.003800193460581888,0.007850992575681419
7003.038239235121,0.003801127054548075,0.008004981992371455
7003.039239007337,0.0038106459142343303,0.008142693028599532
7003.040238779552,0.003829450325383164,0.008263134457499521
7003.041238551767,0.003858116791351447,0.008365571571924751
7003.042238323982,0.0038970814883519528,0.008449530766549947
7003.0432380961975,0.003946626656700376,0.008514798706873519
7003.044237868413,0.004006870361250861,0.00856141635571386
7003.045237640628,0.004077759912045718,0.008589668299115562
7003.046237412844,0.00415906909121382,0.008600067936805855
7003.047237185058,0.004250399205899155,0.008593339163773072
7003.048236957274,0.004351183887024204,0.008570395188564648
7003.049236729489,0.004460697468320235,0.008532315141829965
7003.050236501705,0.004578066692355517,0.00848031913882232
7003.05123627392,0.004702285397505634,0.00841574245696405
7003.052236046135,0.004832231756893307,0.00834000943850833
7003.05323581835,0.004966687582125385,0.008254607599584886
7003.054235590565,0.005104359175156242,0.008161062240611538
7003.055235362781,0.0052438992148148835,0.008060911686010227
7003.056235134996,0.005383929198681868,0.007955683203875729
7003.057234907212,0.005523061990796111,0.007846869674117631
7003.058234679426,0.005659923997764983,0.007735907144949727
7003.059234451642,0.005793176405143251,0.007624153496273128
7003.060234223857,0.0059215348288786315,0.007512868480981907
7003.061233996073,0.006043786780011386,0.007403195439702611
7003.062233768287,0.0061588065458001015,0.00729614501741742
7003.063233540503,0.006265567385229397,0.007192581281916938
7003.064233312718,0.006363151191446913,0.0070932107259759425
7003.065233084933,0.006450755894630818,0.006998574650125593
7003.066232857149,0.006527700859297994,0.006909045312952275
7003.067232629364,0.00659343044343444,0.006824826026706853
7003.068232401579,0.006647515831001532,0.006745955170401536
7003.069232173794,0.006689655269936551,0.006672313987025788
7003.07023194601,0.006719672913609611,0.006603638025422412
7003.071231718225,0.006737516515418429,0.006539532083644115
7003.072231490441,0.0067432542283944645,0.006479488415386014
7003.073231262655,0.006737070708297925,0.006422907759534626
7003.074231034871,0.006719262611875473,0.0063691224941237416
7003.075230807086,0.0066902334261094406,0.006317420974984628
7003.076230579301,0.006650487379920305,0.006267071978580676
7003.077230351517,0.006600622027529586,0.006217348192746739
7003.078230123732,0.006541319034011694,0.006167547894494186
7003.079229895947,0.006473332816053604,0.006117014241989951
7003.080229668162,0.006397476998419864,0.006065151861157722
7003.081229440378,0.00631460903451853,0.0060114405432761964
7003.082229212593,0.006225613651343199,0.00595544590811563
7003.083228984809,0.006131385910462926,0.005896826919166338
7003.084228757023,0.006032814636629709,0.005835340242024162
7003.085228529239,0.0059307668472413045,0.005770841601890629
7003.086228301454,0.005826073712015963,0.0057032844264796835
7003.087228073669,0.005719518512109116,0.005632716083665664
7003.088227845885,0.005611827014026758,0.005559271962314067
7003.0892276181,0.0055036605670799685,0.005483167574149031
7003.090227390315,0.005395612051881923,0.005404688815411352
7003.09122716253,0.005288204589736881,0.005324180510607686
7003.092226934746,0.0051818927414564245,0.005242033359301826
7003.093226706961,0.005077065839226107,0.005158669448068224
7003.0942264791765,0.004974053110387596,0.00507452659341891
7003.095226251391,0.004873130305174055,0.004990041913071261
7003.096226023607,0.004774527549336062,0.004905635125793321
7003.097225795822,0.004678438070156288,0.004821692135322401
7003.098225568037,0.004585027319720752,0.0047385494839298405
7003.099225340253,0.004494441904317256,0.004656480291236287
7003.100225112468,0.004406817676441144,0.00457568231767446
7003.101224884683,0.004322286388073676,0.00449626877078967
7003.102224656898,0.004240980456752928,0.004418262374006842
7003.103224429114,0.004163035648538495,0.00434159305440653
7003.104224201329,0.004088591771647777,0.004266099425929574
7003.1052239735445,0.00401779170212886,0.004191534085934235
7003.106223745759,0.003950779163634565,0.004117572610869495
7003.107223517975,0.0038876956729496227,0.004043826014686743
7003.10822329019,0.003828676999071223,0.0039698563130424564
7003.109223062405,0.003773849400697099,0.003895194723014462
7003.110222834621,0.003723325808855531,0.0038193619302317144
7003.111222606836,0.0036772020280425167,0.0037418897928986473
7003.112222379051,0.0036355529920134347,0.0036623438542535487
7003.113222151266,0.0035984291563948513,0.0035803460867459363
7003.114221923482,0.0035658531976604647,0.0034955973181282265
7003.115221695697,0.003537817246290884,0.00340789874052475
7003.1162214679125,0.0035142808770888896,0.0033171718192039536
7003.117221240127,0.003495170022188478,0.0032234758857654865
7003.118221012343,0.0034803768856040748,0.0031270227628545227
7003.119220784558,0.003469760843174711,0.003028187894973769
7003.120220556773,0.003463150237103972,0.0029275176010348995
7003.121220328989,0.0034603449521235807,0.0028257321908520183
7003.122220101204,0.003461119692720958,0.002723724795680047
7003.123219873419,0.0034652279247855667,0.0026225558585888913
7003.124219645634,0.0034724064496223835,0.0025234433213398417
7003.12521941785,0.0034823805351123934,0.0024277486336250114
7003.126219190065,0.0034948694782405533,0.002336958807713537
7003.12721896228,0.0035095924634866394,0.0022526648629740222
7003.128218734495,0.0035262746248731274,0.0021765371377399103
7003.129218506711,0.0035446532837973364,0.0021102980389345358
7003.130218278926,0.0035644843699210874,0.002055692815591517
7003.131218051141,0.0035855490066443634,0.002014458899487089
7003.132217823357,0.0036076601648157487,0.001988294305940824
7003.133217595571,0.0036306691944337412,0.0019788255690954553
7003.134217367787,0.0036544719600792386,0.0019875756995360577
7003.135217140002,0.0036790142254232894,0.0020159326688580915
7003.136216912218,0.0037042958337107786,0.002065118920390877
7003.137216684433,0.003730373117995725,0.0021361623796198113
7003.138216456648,0.003757358904773165,0.0022298694095224023
7003.139216228863,0.0037854195387502826,0.00234680013490542
7003.140216001078,0.0038147685996950957,0.002487246542741861
7003.141215773294,0.0038456573378367396,0.002651213747643794
7003.142215545509,0.0038783621858054025,0.0028384047985060964
7003.143215317725,0.003913169917885055,0.003048209408925775
7003.144215089939,0.003950361120347704,0.0032796970253986947
7003.145214862155,0.003990192663004861,0.003531614680422662
7003.14621463437,0.004032879872203878,0.0038023900708758413
7003.147214406586,0.004078579118625203,0.004090140230280192
7003.148214178801,0.004127371534723944,0.004392686043407856
7003.149213951016,0.0041792485401021305,0.004707572726164007
7003.150213723231,0.004234099773340815,0.005032096288146769
7003.151213495446,0.00429170392540737,0.005363335894500489
7003.152213267662,0.004351722862995135,0.005698191915662051
7003.153213039877,0.00441369933137092,0.006033429284179196
7003.154212812093,0.0044770584385871864,0.0063657255723741
7003.155212584307,0.004541113033039174,0.006691722968459304
7003.156212356523,0.004605072974325353,0.0070080830640646035
7003.157212128738,0.0046680581656008795,0.007311543090659472
7003.158211900954,0.0047291150902579945,0.007598971996793886
7003.159211673169,0.004787236494398768,0.00786742459485754
7003.160211445384,0.004841383765950083,0.008114191988055963
7003.161211217599,0.004890511452340164,0.00833684667849404
7003.162210989814,0.00493359322546455,0.008533281144701156
7003.16321076203,0.004969648481076302,0.008701739123346286
7003.164210534245,0.004997768698300213,0.008840839180908456
7003.165210306461,0.005017142701237069,0.008949590415390656
7003.166210078675,0.005027080033978811,0.009027400411645372
7003.167209850891,0.005027031738566944,0.009074075936639408
7003.168209623106,0.005016607875652884,0.009089817174847989
7003.169209395322,0.004995591134278838,0.009075206393056753
7003.170209167537,0.00496394585821248,0.00903119175096937
7003.171208939752,0.004921821842416094,0.008959066659497637
7003.172208711967,0.004869552431531472,0.008860444793462324
7003.173208484182,0.004807646832756094,0.008737230723923968
7003.174208256398,0.0047367770405957995,0.008591586250717351
7003.175208028613,0.004657760167974936,0.008425892894231797
7003.176207800829,0.004571537168357054,0.008242711478549183
7003.177207573043,0.004479148951724557,0.008044740048777213
7003.178207345259,0.004381710837886208,0.007834771374254272
7003.179207117474,0.0042803861978491994,0.007615651067610552
7003.1802068896895,0.004176360007732339,0.007390237086939443
7003.181206661905,0.004070812893885397,0.007161361238048571
7003.18220643412,0.003964896125067372,0.006931793282752643
7003.183206206335,0.0038597079495719206,0.006704208307891725
7003.18420597855,0.003756271690268539,0.006481158022206434
7003.185205750766,0.0036555160628821636,0.006265046575117437
7003.186205522981,0.0035582582181731414,0.006058111330271885
7003.187205295197,0.003465189994608443,0.0058624087982266015
7003.188205067411,0.003376867806480781,0.005679805664441061
7003.189204839627,0.0032937064985637944,0.005511974565982059
7003.190204611842,0.003215977381927431,0.005360393992888421
7003.1912043840575,0.003143810530117409,0.005226351444976622
7003.192204156272,0.003077201265045125,0.005110948820583726
7003.193203928488,0.0030160206074818694,0.005015109023644201
7003.194203700703,0.002960029321473581,0.0049395829538925635
7003.195203472918,0.002908895051873634,0.0048849562919622905
7003.196203245134,0.0028622119338209276,0.0048516556981442055
7003.197203017349,0.0028195219415287852,0.004839954182282912
7003.198202789564,0.002780337163761795,0.0048499754932267046
7003.199202561779,0.002744162170843143,0.004881697440309484
7003.200202333995,0.002710515662297661,0.004934954119994724
7003.20120210621,0.0026789506176540176,0.00500943709213298
7003.2022018784255,0.002649072212768133,0.005104695623931286
7003.20320165064,0.00262055285902285,0.005220136187437924
7003.204201422856,0.0025931439014947573,0.005355021448516105
7003.205201195071,0.002566683729381935,0.005508468993796426
7003.206200967286,0.002541102242140303,0.0056794500034469605
7003.207200739502,0.0025164217687109057,0.005866788057201304
7003.208200511717,0.0024927546839581365,0.006069158332732167
7003.209200283932,0.0024702981042778595,0.006285087603137607
7003.210200056147,0.002449326134495557,0.006512955571169067
7003.211199828363,0.0024301801554093456,0.006750998125612499
7003.212199600578,0.002413257599400638,0.0069973130714050214
7003.2131993727935,0.0023989995953613064,0.007249868795974388
7003.214199145008,0.0023878778078767317,0.007506516217148409
7003.215198917224,0.002380380771524232,0.007765004244699453
7003.216198689439,0.002377000027826193,0.008022998897798811
7003.217198461654,0.002378216381510444,0.008278106155598723
7003.21819823387,0.002384486576416088,0.008527898580530968
7003.219198006085,0.0023962306544890663,0.008769945736707592
7003.2201977783,0.0024138202325899995,0.009001848385076196
7003.221197550515,0.0024375679261022,0.00922127631511378
7003.222197322731,0.002467718151989559,0.00942600944375721
7003.223197094946,0.002504439534015214,0.009613981498370923
7003.2241968671615,0.0025478190952194003,0.009783325270898554
7003.225196639376,0.002597858356660725,0.009932418166424206
7003.226196411591,0.0026544713799797584,0.010059926604032482
7003.227196183807,0.00271748471456302,0.010164847746308511
7003.228195956022,0.0027866391492799808,0.010246547042632902
7003.229195728238,0.002861593121838448,0.010304790204002616
7003.230195500453,0.002941927600519482,0.01033976846899735
7003.231195272668,0.0030271522205979904,0.01035211629659116
7003.232195044883,0.003116712426583084,0.010342920858827183
7003.233194817099,0.0032099973377459137,0.010313722860287306
7003.234194589314,0.003306348028266842,0.010266508262937391
7003.2351943615295,0.0034050659222331714,0.010203690470124897
7003.236194133744,0.0035054210678866437,0.010128082489632952
7003.237193905959,0.0036066601533037306,0.010042858630656465
7003.238193678175,0.0037080142035514937,0.009951505472172375
7003.23919345039,0.0038087059317503205,0.009857762238247395
7003.240193222606,0.003907956735069068,0.009765551319380096
7003.241192994821,0.004004993373397095,0.009678900338513912
7003.242192767036,0.004099054437949449,0.009601857665706134
7003.243192539251,0.004189396762537068,0.00953840354447575
7003.244192311467,0.004275301915235562,0.00949235907453891
7003.245192083682,0.004356082837427629,0.009467295298098075
7003.246191855897,0.00443109060140945,0.009466444599918241
7003.247191628112,0.004499721165773312,0.009492616559856549
7003.248191400327,0.004561421938850184,0.009548120286875857
7003.249191172543,0.004615697932154794,0.009634695127325012
7003.250190944758,0.004662117309161924,0.009753451519422052
7003.251190716974,0.004700316193498798,0.009904823678011572
7003.252190489189,0.0047300026495713686,0.010088535678678583
7003.253190261404,0.004750959751425391,0.010303582289520151
7003.254190033619,0.004763047626615174,0.010548225568134185
7003.255189805835,0.004766204357217873,0.010820007864271524
7003.25618957805,0.004760445675593607,0.011115781490300456
7003.2571893502645,0.0047458634848245316,0.011431754928265125
7003.25818912248,0.004722623317839636,0.011763555015169928
7003.259188894695,0.004690960909101839,0.012106304114747038
7003.260188666911,0.004651178099223148,0.012454710881510712
7003.261188439126,0.004603638331993341,0.012803172843291032
7003.262188211342,0.004548762023563316,0.013145888629925337
7003.263187983556,0.004487022066045134,0.013476977236012475
7003.264187755772,0.004418939664499413,0.013790601272250281
7003.265187527987,0.004345080614358363,0.014081090870451785
7003.266187300203,0.004266052040282257,0.01434306491544944
7003.267187072418,0.004182499559198584,0.014571546586809984
7003.2681868446325,0.0040951047956407855,0.014762070589753056
7003.269186616848,0.004004583151822096,0.014910779695946903
7003.270186389063,0.003911681703177101,0.015014508300727553
7003.271186161279,0.0038171770350512117,0.015070850865011521
7003.272185933494,0.0037218727514525584,0.015078213527342592
7003.27318570571,0.0036265963007138446,0.015035847799215778
7003.274185477924,0.003532194735433011,0.014943865936360655
7003.27518525014,0.003439529101948141,0.014803238178483571
7003.276185022355,0.0033494673265557534,0.014615772467557854
7003.2771847945705,0.0032628756685517887,0.014384077448232106
7003.278184566786,0.0031806089727869184,0.014111509636059151
7003.2791843390005,0.0031035000295256813,0.013802105805391669
7003.280184111216,0.0030323483303764717,0.013460501979029543
7003.281183883431,0.002967908442014014,0.01309184081959808
7003.282183655647,0.002910878181451841,0.012701669599769854
7003.283183427862,0.002861886814291024,0.012295831156756086
7003.284183200078,0.0028214835861950674,0.0118803502872517
7003.285182972292,0.0027901269700069753,0.01146131800370473
7003.286182744508,0.002768175015511372,0.011044776066485296
7003.287182516723,0.0027558771228687945,0.010636604232239453
7003.2881822889385,0.0027533674618468776,0.010242412634585708
7003.289182061154,0.0027606601809852627,0.009867441585759213
7003.2901818333685,0.0027776465273233438,0.009516470855595422
7003.291181605584,0.002804094010383871,0.009193740164202569
7003.292181377799,0.002839647740417032,0.008902882242813564
7003.293181150015,0.002883834017648659,0.008646869414730154
7003.29418092223,0.0029360661598802256,0.008427974279066656
7003.295180694446,0.002995652460851281,0.008247744790053546
7003.29618046666,0.003061806088617947,0.00810699380825656
7003.297180238876,0.003133656669057599,0.008005802985288081
7003.298180011091,0.00321026326590827,0.00794354055413715
7003.2991797833065,0.0032906284766621814,0.00791889222878803
7003.300179555522,0.0033737133988182948,0.007929904036330758
7003.3011793277365,0.0034584532348914104,0.007974035595763757
7003.302179099952,0.0035437732551508753,0.008048222179280324
7003.303178872167,0.0036286047361574927,0.008148943858530405
7003.304178644383,0.003711900400276533,0.008272300119587923
7003.305178416598,0.003792648864374056,0.008414088476192502
7003.306178188814,0.003869887708359617,0.008569885768404945
7003.307177961028,0.003942714983642087,0.008735130946310336
7003.308177733244,0.00401029921760203,0.00890520817194353
7003.309177505459,0.004071888132946822,0.00907552904783696
7003.3101772776745,0.004126816340928276,0.009241612741242885
7003.31117704989,0.004174512198875602,0.009399162736654558
7003.312176822104,0.004214503884281017,0.009544138925150186
7003.31317659432,0.004246424567811444,0.009672823759294106
7003.314176366535,0.004270016407167406,0.009781881271992329
7003.315176138751,0.004285132983079135,0.009868407808990646
7003.316175910966,0.004291739805089157,0.009929973305917297
7003.317175683182,0.004289912641468401,0.009964651937460055
7003.318175455396,0.00427983363106281,0.00997104114142811
7003.319175227612,0.004261785332953978,0.00994826842150974
7003.320174999827,0.0042361430001934906,0.009895985837922104
7003.3211747720425,0.004203365423615418,0.009814352585345612
7003.322174544257,0.004163984709147322,0.009704006554421664
7003.323174316472,0.0041185953376613495,0.00956602633255876
7003.324174088688,0.004067842810724285,0.00940188563908121
7003.325173860903,0.004012412131749967,0.0092134025285487
7003.326173633119,0.003953016341046838,0.009002685736572936
7003.327173405334,0.0038903853247628573,0.008772080336517642
7003.328173177549,0.0038252551448919384,0.008524114539094947
7003.329172949764,0.003758358169946177,0.00826144908335834
7003.33017272198,0.0036904142831159317,0.007986830273739346
7003.331172494195,0.0036221233734775155,0.007703047339231924
7003.33217226641,0.0035541591855798877,0.0074128944508669034
7003.333172038625,0.0034871644545374516,0.007119137435502985
7003.33417181084,0.0034217471299859193,0.006824484956864103
7003.335171583056,0.003358477429874899,0.006531563707061151
7003.336171355271,0.0032978854861545085,0.006242897013333578
7003.337171127487,0.003240459429957833,0.005960886280536461
7003.338170899702,0.0031866438553760637,0.0056877948627667325
7003.339170671917,0.0031368386485734023,0.005425734178503326
7003.340170444132,0.003091398174059157,0.005176652008581401
7003.341170216348,0.0030506308097210527,0.004942322905005395
7003.342169988563,0.0030147988412295656,0.004724340576555955
7003.343169760778,0.0029841187561466076,0.004524112098956104
7003.344169532993,0.002958761997109063,0.004342853835980264
7003.345169305208,0.002938856228471543,0.004181589009196582
7003.346169077424,0.0029244871392551117,0.004041146883219439
7003.347168849639,0.00291570075644724,0.00392216354102068
7003.348168621855,0.002912506201100292,0.003825084223596336
7003.34916839407,0.0029148788088257877,0.0037501671919313363
7003.350168166285,0.0029227635478689734,0.0036974890095564815
7003.3511679385,0.002936078663816934,0.003666951033295767
7003.352167710716,0.002954719436340623,0.0036582867690705687
7003.353167482931,0.0029785618678082825,0.003671069658841515
7003.354167255146,0.0030074660770525634,0.0037047208753715173
7003.355167027361,0.0030412791784020145,0.0037585168214631045
7003.356166799576,0.0030798374923646297,0.0038315961913698445
7003.357166571792,0.0031229680317689077,0.003922966583982974
7003.358166344007,0.0031704892952831684,0.004031510765829751
7003.359166116223,0.003222211455035415,0.004155992808203505
7003.360165888438,0.003277936045384017,0.004295064453892508
7003.361165660653,0.00333745525729672,0.004447272142374286
7003.362165432868,0.0034005509249344767,0.004611065105047268
7003.363165205084,0.003466993251586166,0.0047848048574099305
7003.364164977299,0.003536539258155988,0.004966776303537216
7003.365164749514,0.003608930881568534,0.005155200560340512
7003.366164521729,0.0036838926694814774,0.005348249521531018
7003.367164293944,0.0037611291538351176,0.00554406211040005
7003.36816406616,0.0038403221922281173,0.005740762098538025
7003.369163838375,0.003921128727094501,0.00593647728437993
7003.370163610591,0.004003179446902874,0.006129359747495987
7003.371163382806,0.004086078758562816,0.006317606862870772
7003.372163155021,0.004169406366624275,0.00649948280029167
7003.373162927236,0.004252720649518821,0.0066733403074156995
7003.374162699452,0.004335563928596406,0.006837642585551019
7003.375162471667,0.004417469629323268,0.0069909849443000535
7003.376162243882,0.004497971233783715,0.0071321156855401755
7003.377162016097,0.004576612829006864,0.007259955426428182
7003.378161788312,0.004652960980205599,0.007373613960411687
7003.379161560528,0.004726617612520617,0.007472403854775968
7003.380161332743,0.004797233564053407,0.007555850260881407
7003.381161104959,0.004864522458327107,0.0076236967364010436
7003.382160877174,0.004928274523974459,0.007675907090594888
7003.383160649389,0.004988369953736007,0.007712663284586718
7003.384160421604,0.00504479132218425,0.007734359318902444
7003.38516019382,0.005097634468194984,0.007741591006026701
7003.386159966035,0.00514711714648505,0.007735141704616427
7003.3871597382495,0.0051935847384237815,0.007715964452252589
7003.388159510465,0.005237512410563316,0.007685161290783368
7003.38915928268,0.005279503276946925,0.007643960759135886
7003.390159054896,0.0053202822889784895,0.00759369447716439
7003.391158827111,0.005360685688566016,0.007535773504265772
7003.392158599327,0.005401645915912157,0.007471664824063177
7003.393158371541,0.005444171939542364,0.007402867996345655
7003.394158143757,0.005489325162438923,0.007330891818959154
7003.395157915972,0.005538191358631094,0.007257230783524871
7003.396157688188,0.0055918494158950305,0.007183341159573744
7003.397157460403,0.005651337888134028,0.007110616647762459
7003.398157232617,0.005717620441660136,0.007040363675345002
7003.399157004833,0.0057915512481479005,0.006973776584660946
7003.400156777048,0.005873841322182657,0.0069119132055679555
7003.401156549264,0.005965026791305307,0.006855671561382224
7003.402156321479,0.006065440118541187,0.006805768647600108
7003.403156093695,0.006175185312725178,0.006762722279675879
7003.404155865909,0.006294118102682135,0.006726836929381073
7003.405155638125,0.006421831908762654,0.006698194309520661
7003.40615541034,0.006557650257463156,0.006676649280110589
7003.407155182556,0.0067006260911178514,0.006661831461887402
7003.408154954771,0.006849548239100287,0.006653152755675495
7003.409154726985,0.007002955140881869,0.006649820768575773
7003.410154499201,0.007159155736048719,0.0066508579339572835
7003.411154271416,0.007316257237665008,0.006655125898336454
7003.412154043632,0.007472199264201522,0.006661354575063908
7003.413153815847,0.00762479353750401,0.0066681751654408825
7003.414153588063,0.0077717681121916736,0.006674156409079786
7003.415153360277,0.007910814938444151,0.006677843287159127
7003.416153132493,0.008039639476597625,0.006677797307153562
7003.417152904708,0.008156011015357846,0.0066726373399270435
7003.418152676924,0.008257812229817259,0.00666107981060547
7003.419152449139,0.008343086362973219,0.006641976930223683
7003.420152221353,0.008410080333698175,0.006614351628017008
7003.421151993569,0.008457282203401932,0.00657742789670448
7003.422151765784,0.008483451833040272,0.006530655393888015
7003.423151538,0.008487644139128349,0.00647372736780276
7003.424151310215,0.008469224900009691,0.006406591274050623
7003.425151082431,0.008427879391950477,0.0063294517633222
7003.426150854645,0.008363614244020047,0.006242766031489194
7003.427150626861,0.008276752930433964,0.0061472318626925
7003.428150399076,0.008167925380602074,0.006043769058471156
7003.429150171291,0.008038052271244104,0.005933495268849677
7003.430149943507,0.007888324617197032,0.005817697455619635
7003.431149715721,0.007720179296846678,0.005697800290498898
7003.432149487937,0.00753527117921713,0.005575332728690026
7003.433149260152,0.007335442586450152,0.005451893833870461
7003.434149032368,0.007122690898054036,0.005329118712163281
7003.435148804583,0.0068991351237494445,0.005208645208291229
7003.436148576799,0.0066669822035106035,0.005092081891792987
7003.437148349013,0.006428493650790026,0.004980977822762964
7003.438148121229,0.006185952989074355,0.004876794579508862
7003.439147893444,0.005941634294254386,0.0047808810051036465
7003.440147665659,0.005697772074983951,0.004694451086344148
7003.441147437875,0.005456532710655268,0.004618565325533905
7003.442147210089,0.005219987718879636,0.004554115882868524
7003.443146982305,0.004990089213455935,0.00450181564074742
7003.44414675452,0.004768647980919195,0.0044621911922819715
7003.445146526736,0.004557314590217335,0.004435579618941085
7003.446146298951,0.00435756384502457,0.0044221288268213475
7003.447146071167,0.0041706827366684825,0.004421801187185763
7003.448145843381,0.00399776191053114,0.004434380280107365
7003.4491456155965,0.0038396905326627626,0.0044594806229882105
7003.450145387812,0.0036971543197688015,0.004496560311444858
7003.451145160027,0.0035706363763664114,0.004544936484684992
7003.452144932242,0.003460420400670351,0.004603803475893619
7003.453144704457,0.00336659581252706,0.00467225344582015
7003.454144476673,0.0032890644382207127,0.004749299224817957
7003.455144248888,0.00322754853920828,0.00483389899314402
7003.456144021104,0.003181600137227681,0.004924982302821487
7003.457143793319,0.003150611698963163,0.005021476796708957
7003.458143565534,0.0031338282663719488,0.005122334856025677
7003.459143337749,0.003130361065154949,0.0052265593632662794
7003.4601431099645,0.003139202530598279,0.00533322781833713
7003.46114288218,0.0031592426083400056,0.005441514149281182
7003.462142654395,0.0031892861625122527,0.005550707652800247
7003.46314242661,0.0032280713568827494,0.005660228543354735
7003.464142198825,0.0032742889210485597,0.005769639587149458
7003.465141971041,0.0033266022244498035,0.005878653291707099
7003.466141743256,0.0033836680373093373,0.005987134150256039
7003.467141515472,0.0034441577683374976,0.0060950955153310634
7003.468141287687,0.0035067788534211236,0.006202690823761422
7003.469141059902,0.0035702958473850226,0.006310199160165263
7003.470140832117,0.0036335506631620432,0.006418005526657683
7003.4711406043325,0.003695481331855481,0.006526576591247058
7003.472140376548,0.0037551386388796214,0.006636432980797463
7003.473140148763,0.003811700032474625,0.006748119290490351
7003.474139920978,0.0038644803117283337,0.006862172943403785
7003.475139693193,0.003912938793223141,0.006979092961695617
7003.476139465409,0.003956682910754937,0.007099309684702099
7003.477139237624,0.003995468452879408,0.0072231564941739506
7003.47813900984,0.004029196801583007,0.007350844631931163
7003.479138782055,0.00405790956908732,0.007482442153496017
7003.48013855427,0.004081780992393624,0.007617857914098761
7003.481138326485,0.0041011084209679385,0.007756831246851328
7003.4821380987005,0.00411630124930983,0.00789892771492217
7003.483137870916,0.004127868656798428,0.008043541032798461
7003.484137643131,0.0041364064717133164,0.008189900964621525
7003.485137415346,0.004142583381588879,0.008337086734062747
7003.486137187561,0.004147126612790592,0.008484045249714934
7003.487136959777,0.0041508071262651115,0.008629613286457751
7003.488136731992,0.004154424326880623,0.00877254267371511
7003.489136504208,0.004158790269356249,0.008911527528598301
7003.490136276423,0.0041647133784947265,0.009045232632986665
7003.491136048638,0.00417298176965629,0.009172322153744214
7003.492135820853,0.004184346317650657,0.009291487986718453
7003.4931355930685,0.004199503675188982,0.009401477053227112
7003.494135365284,0.0042190795319893126,0.009501116946190609
7003.495135137499,0.004243612552620541,0.009589339459518644
7003.496134909714,0.004273539576049413,0.009665201704482027
7003.497134681929,0.004309182716977641,0.009727904633510212
7003.498134454145,0.004350738948266882,0.0097768087951396
7003.49913422636,0.004398272600805298,0.00981144703544651
7003.500133998576,0.004451711043715306,0.009831533710091015
7003.501133770791,0.0045108436351852625,0.009836969906902672
7003.502133543006,0.004575323880098695,0.009827844319151131
7003.503133315221,0.0046446746137377305,0.009804429739589211
7003.5041330874365,0.004718295966793723,0.00976717549070481
7003.505132859652,0.00479547585803903,0.009716696268832306
7003.506132631867,0.004875402789233405,0.009653757818371087
7003.507132404082,0.004957180746082972,0.009579259716894776
7003.508132176297,0.005039846006530983,0.009494215512371989
7003.509131948513,0.005122385608236436,0.009399730526211342
7003.510131720728,0.0052037571257034215,0.009296977724442086
7003.511131492944,0.00528290926681725,0.009187172127658306
7003.512131265159,0.00535880267122464,0.00907154432475634
7003.513131037374,0.0054304302512296855,0.008951313772026263
7003.514130809589,0.005496836488083846,0.008827662615060617
7003.515130581804,0.005557135237912155,0.00870171072596836
7003.51613035402,0.005610525736437548,0.008574492558444335
7003.517130126234,0.005656306572792663,0.008446936363031333
7003.51812989845,0.005693887425083613,0.008319846292900834
7003.519129670665,0.005722798333174306,0.008193887919086346
7003.520129442881,0.005742696262332322,0.008069577590587358
7003.521129215096,0.005753368740175656,0.007947275893357794
7003.522128987312,0.005754734488615131,0.007827185234068924
7003.523128759526,0.005746841231701462,0.007709351373708084
7003.524128531742,0.00572986115194562,0.0075936686071757945
7003.525128303957,0.005704084651251825,0.00747988825507591
7003.526128076172,0.005669913071725184,0.00736763021915544
7003.527127848388,0.005627850885110355,0.007256397521648311
7003.528127620602,0.005578497648906884,0.007145593915002642
7003.529127392818,0.005522539800823733,0.007034544728587161
7003.530127165033,0.005460742150864171,0.0069225210792777485
7003.531126937249,0.005393938778768946,0.006808767423456491
7003.532126709464,0.0053230230019631255,0.00669253220121314
7003.53312648168,0.005248936159543148,0.006573101065982874
7003.534126253894,0.005172655129562716,0.006449831953998155
7003.5351260261095,0.005095178693555506,0.006322191054233816
7003.536125798325,0.005017513014800463,0.006189788580762844
7003.53712557054,0.004940656570156009,0.006052413102839503
7003.538125342756,0.004865584869728466,0.005910063064177061
7003.53912511497,0.004793235236978928,0.00576297409216781
7003.540124887186,0.004724491861567088,0.005611640851661106
7003.541124659401,0.004660171357109017,0.005456832546521049
7003.542124431617,0.004601009181041639,0.005299601590431485
7003.543124203832,0.004547647431713473,0.005141285290102408
7003.544123976048,0.0045006246236127066,0.004983500548497797
7003.545123748262,0.004460368011050305,0.004828131676625308
7003.5461235204775,0.004427188913643451,0.004677311510917454
7003.547123292693,0.0044012813416050905,0.004533396218389614
7003.548123064908,0.004382724048390784,0.004398934402936825
7003.549122837124,0.004371485957753818,0.004276631338990303
7003.550122609338,0.004367434734990119,0.004169309298184928
7003.551122381554,0.004370348124743783,0.0040798649727538175
7003.552122153769,0.004379927577609553,0.004011224946593919
7003.553121925985,0.00439581362808902,0.003966300065346192
7003.5541216982,0.004417602450839773,0.003947939461159134
7003.555121470416,0.004444862999203264,0.003958884930220282
7003.55612124263,0.004477154107874589,0.004001726345211701
7003.5571210148455,0.0045140409118434865,0.004078858779279981
7003.558120787061,0.004555109912153455,0.00419244198145412
7003.559120559276,0.0045999820424916914,0.004344362761098155
7003.560120331492,0.004648323176750471,0.004536200722817503
7003.561120103706,0.004699851638717977,0.004769197652236076
7003.562119875922,0.00475434239525256,0.005044230696424515
7003.563119648137,0.004811627748071009,0.0053617893520374075
7003.564119420353,0.004871594535546135,0.005721956229809404
7003.565119192568,0.004934178117000761,0.006124391618601541
7003.566118964784,0.004999353660049774,0.006568321965853833
7003.567118736998,0.00506712539199205,0.007052532452070893
7003.5681185092135,0.005137514482792455,0.0075753638381007024
7003.569118281429,0.005210546152817994,0.008134713714504005
7003.570118053644,0.0052862365169277685,0.008728042203917114
7003.57111782586,0.005364579639382673,0.009352382091580574
7003.572117598074,0.005445535305460687,0.010004353310722795
7003.57311737029,0.0055290180952992495,0.01068018168471658
7003.574117142505,0.005614888398543248,0.011375721813329288
7003.575116914721,0.0057029459568076705,0.012086484004897471
7003.576116686936,0.005792926351534016,0.012807665261973071
7003.577116459152,0.0058845006210499215,0.013534184570888529
7003.578116231366,0.005977277960185942,0.014260723067588492
7003.5791160035815,0.006070811279365988,0.01498176989854986
7003.580115775797,0.00616460531870791,0.01569167464489627
7003.581115548012,0.006258127041395243,0.016384707021232136
7003.582115320227,0.006350818112080182,0.017055124241627747
7003.583115092442,0.006442109288902758,0.01769724599399161
7003.584114864658,0.006531436457785389,0.018305536418783856
7003.585114636873,0.006618257862801629,0.01887469190384833
7003.586114409089,0.006702071949362374,0.019399732912652814
7003.587114181304,0.006782435215053887,0.019876097464763983
7003.58811395352,0.006858979544510828,0.020299733339033885
7003.589113725734,0.006931428626138868,0.02066718567672847
7003.5901134979495,0.0069996131577260996,0.020975676490847153
7003.591113270165,0.007063484610865545,0.021223172634941324
7003.59211304238,0.007123127309767203,0.02140843905468678
7003.593112814595,0.007178768487396942,0.02153107472036438
7003.59411258681,0.007230785856490609,0.021591529599678746
7003.595112359026,0.007279712119785882,0.021591102285150526
7003.596112131241,0.007326235741719042,0.021531919113446114
7003.597111903457,0.007371197195606039,0.021416896417353014
7003.598111675672,0.007415579816381394,0.021249687759871076
7003.599111447887,0.00746049442172926,0.021034617808957535
7003.600111220102,0.007507157112639857,0.020776604353980873
7003.601110992317,0.00755686014910229,0.02048107016013117
7003.602110764533,0.0076109364139304685,0.020153846860382824
7003.603110536748,0.0076707185417496555,0.019801073580449205
7003.604110308963,0.007737494159156658,0.019429093188230207
7003.605110081178,0.007812458859441937,0.019044348866931966
7003.606109853394,0.007896668623153332,0.018653283223557002
7003.607109625609,0.00799099345663367,0.018262241545028195
7003.608109397825,0.00809607403074063,0.017877380292354434
7003.60910917004,0.008212283022792597,0.0175045815952803
7003.610108942255,0.008339692696794914,0.017149374363938773
7003.61110871447,0.008478050022802405,0.016816862549692026
7003.612108486685,0.008626760353590045,0.01651166095257539
7003.613108258901,0.008784880357147308,0.016237838807523237
7003.614108031116,0.008951120564114495,0.015998871310761893
7003.615107803331,0.009123857559819395,0.015797599330948174
7003.616107575546,0.009301155565023375,0.015636197686972872
7003.617107347762,0.009480796931987787,0.015516152421718268
7003.618107119977,0.009660320941081798,0.015438247426422845
7003.619106892193,0.009837070204731135,0.015402560642695589
7003.620106664408,0.010008243927535795,0.01540846995074616
7003.621106436623,0.01017095716884536,0.01545466875543114
7003.622106208838,0.010322305051939488,0.015539191177589192
7003.623105981053,0.010459430551043968,0.015659446594531716
7003.624105753269,0.010579594097186423,0.01581226302837826
7003.625105525484,0.010680242831836034,0.015993938609197192
7003.626105297699,0.01075907697170563,0.01620030013404918
7003.627105069914,0.01081411051773356,0.016426767646515277
7003.62810484213,0.010843723558529689,0.016668423948375498
7003.629104614345,0.010846703786939986,0.016920087985164874
7003.630104386561,0.010822275566935121,0.01717639109650693
7003.631104158776,0.010770115769610653,0.01743185515517613
7003.632103930991,0.010690356350666662,0.017680971567533257
7003.633103703206,0.010583574101630544,0.01791827993628096
7003.634103475421,0.010450768266681766,0.018138444998116548
7003.635103247637,0.010293327001650324,0.018336330442652284
7003.636103019852,0.010112984076624197,0.018507068472679036
7003.637102792067,0.0099117677060028,0.01864612433140791
7003.638102564282,0.009691943769958382,0.018749355282701986
7003.639102336498,0.00945595587532649,0.018813063622374893
7003.640102108713,0.009206364692162523,0.018834043347522755
7003.6411018809285,0.008945788839232636,0.018809620247337344
7003.642101653144,0.008676849319259454,0.01873768538764211
7003.643101425359,0.008402119151159201,0.018616722151556304
7003.644101197574,0.008124079451197629,0.018445827114970493
7003.645100969789,0.007845082834801202,0.018224725016087778
7003.646100742005,0.007567324673953856,0.017953777820263153
7003.647100514219,0.007292822424161184,0.01763398736700737
7003.648100286435,0.00702340289814944,0.017266990501730976
7003.64910005865,0.006760697031963702,0.016855045259762252
7003.650099830866,0.006506141417015229,0.016401006830045042
7003.651099603081,0.006260985687781688,0.01590829266707835
7003.6520993752965,0.006026304740598314,0.015380836937000389
7003.653099147512,0.005803014669872551,0.014823035080687741
7003.654098919727,0.00559189122030521,0.014239679474743555
7003.655098691942,0.005393589501573216,0.013635887125880987
7003.656098464157,0.0052086637555736615,0.013017020345106014
7003.657098236373,0.005037586108181909,0.012388601594898593
7003.658098008587,0.004880763412713409,0.011756224147084013
7003.659097780803,0.004738551456303814,0.01112546064518127
7003.660097553018,0.004611265966318825,0.010501771944848894
7003.661097325234,0.004499190025189489,0.009890418654725529
7003.662097097449,0.0044025776413275115,0.0092963776946694
7003.6630968696645,0.004321653320188991,0.008724266001414143
7003.664096641879,0.0042566075875456,0.008178273237738839
7003.665096414095,0.0042075885979658625,0.007662104992229241
7003.66609618631,0.00417469022020584,0.007178937541070051
7003.667095958525,0.004157937275459279,0.006731384840371621
7003.668095730741,0.0041572688424548875,0.006321478048334197
7003.669095502955,0.004172520683288193,0.005950657540355631
7003.670095275171,0.004203407874781617,0.005619777081729
7003.671095047386,0.004249508675260086,0.005329119565260982
7003.672094819602,0.004310250550457587,0.00507842349848601
7003.673094591817,0.004384899152810299,0.004866919233025773
7003.6740943640325,0.004472550911003367,0.0046933737649736875
7003.675094136247,0.004572129747685204,0.00455614278091192
7003.676093908463,0.00468238830582789,0.004453228453179925
7003.677093680678,0.004801913929450432,0.0043823413098601684
7003.678093452893,0.00492913951354416,0.0043409643786819375
7003.679093225109,0.005062359214265778,0.004326417793425349
7003.680092997323,0.0051997488889555755,0.0043359221636864636
7003.681092769539,0.00533939099514506,0.004366659180611603
7003.682092541754,0.0054793034991610845,0.004415828087952274
7003.68309231397,0.005617472133215131,0.004480696783064994
7003.684092086185,0.005751885118842147,0.004558646486667477
7003.6850918584005,0.0058805692726733565,0.004647209176713909
7003.686091630615,0.006001626263710969,0.004744097297959096
7003.68709140283,0.006113267742562557,0.004847225578767179
7003.688091175046,0.006213848132405764,0.004954725056424462
7003.689090947261,0.006301894030616638,0.005064949592111761
7003.690090719477,0.0063761293746038665,0.005176475260856534
7003.691090491691,0.006435495756404137,0.0052880931127756384
7003.692090263907,0.0064791675087377,0.0053987959900390235
7003.693090036122,0.0065065613755920714,0.005507760321146969
7003.694089808338,0.0065173406845242705,0.005614324007903045
7003.695089580553,0.006511414006764812,0.005717961624475335
7003.6960893527685,0.006488928425779852,0.005818258196324929
7003.697089124983,0.0064502577734454674,0.00591488285359641
7003.698088897198,0.006395986476592013,0.006007563628881428
7003.699088669414,0.006326889893224974,0.006096064542746492
7003.700088441629,0.006243912143795434,0.006180165890519623
7003.701088213845,0.006148142438090069,0.0062596483589455075
7003.702087986059,0.0060407907758174935,0.006334281314392269
7003.703087758275,0.005923163699780394,0.006403815346433158
7003.70408753049,0.005796640576568189,0.006467978941015457
7003.705087302706,0.005662650751864609,0.006526479009428685
7003.706087074921,0.0055226519008541725,0.00657900490668462
7003.707086847136,0.005378109904663509,0.006625235521747761
7003.708086619351,0.005230480540875585,0.006664849015160526
7003.709086391566,0.005081193149188003,0.006697534804440224
7003.710086163782,0.004931636256530051,0.006723007390911257
7003.711085935997,0.004783144968494473,0.006741021525132588
7003.712085708212,0.004636989795801524,0.006751388039883246
7003.713085480427,0.004494366522570581,0.006753989516792572
7003.714085252643,0.004356386758790938,0.006748794863861996
7003.715085024858,0.004224068925364381,0.0067358718799513904
7003.716084797074,0.004098329525934038,0.006715396938210342
7003.717084569289,0.003979974622901618,0.006687661031979104
7003.718084341504,0.0038696914967845364,0.006653071653264495
7003.719084113719,0.003768040602884526,0.00661215033965899
7003.720083885934,0.003675448152657275,0.006565526127333459
7003.72108365815,0.0035921998547877834,0.006513925425201395
7003.722083430365,0.0035184364574256883,0.006458158910461075
7003.72308320258,0.00345415170629635,0.006399106009261675
7003.724082974795,0.0033991932050986442,0.006337697491521674
7003.725082747011,0.00335326648680446,0.00627489674340061
7003.726082519226,0.0033159424186502873,0.006211680369560812
7003.727082291442,0.003286667896641958,0.006149018869886636
7003.728082063657,0.003264779652345133,0.006087858183902044
7003.729081835872,0.0032495208928821216,0.006029102861005316
7003.730081608087,0.0032400604035660655,0.005973601478385178
7003.731081380302,0.0032355136440533412,0.005922134710318256
7003.732081152518,0.003234965272750609,0.005875406193660598
7003.733080924733,0.0032374924685192037,0.005834036083424478
7003.734080696948,0.0032421883930333836,0.0057985570087295095
7003.735080469163,0.0032481851259013816,0.00576941206481176
7003.736080241379,0.0032546753858922754,0.005746954479143542
7003.737080013594,0.0032609323507636068,0.005731448577026167
7003.7380797858095,0.0032663269517016285,0.005723071587711765
7003.739079558025,0.0032703421513223026,0.005721915715349079
7003.74007933024,0.0032725838807336114,0.005727989850757742
7003.741079102455,0.003272788488123532,0.005741220402429906
7003.74207887467,0.0032708267341489752,0.005761450973639231
7003.743078646886,0.0032667045302835498,0.0057884409075379395
7003.744078419101,0.0032605607108430294,0.005821862936686912
7003.745078191316,0.003252662152105007,0.005861300248686272
7003.746077963531,0.003243396543187625,0.005906243271137032
7003.747077735747,0.0032332631023306267,0.005956086507420555
7003.748077507962,0.0032228615037919093,0.00601012589152166
7003.7490772801775,0.003212879213154098,0.006067557327373188
7003.750077052393,0.0032040773404178047,0.006127477210801073
7003.751076824608,0.0031972750562695488,0.006188885711775832
7003.752076596823,0.003193332613811353,0.00625069344091162
7003.753076369038,0.003193133093991319,0.006311731924196728
7003.754076141254,0.0031975631387723743,0.006370768121478204
7003.755075913469,0.0032074930969894755,0.006426523033472327
7003.756075685684,0.0032237571127742143,0.006477694207910076
7003.757075457899,0.003247133708125383,0.006522981665647185
7003.758075230115,0.0032783273726383986,0.006561116445640467
7003.75907500233,0.0033179516064127503,0.006590890654930561
7003.7600747745455,0.003366513786400463,0.006611187666355131
7003.761074546761,0.003424402154603041,0.006621011014388378
7003.762074318976,0.003491875166731423,0.00661951066198185
7003.763074091191,0.0035690533942992347,0.00660600562617577
7003.764073863406,0.003655914139462455,0.006580002328208572
7003.765073635622,0.0037522888937793625,0.006541208315853247
7003.766073407837,0.0038578637395558484,0.006489541125402965
7003.767073180052,0.003972182752679874,0.0064251320755675505
7003.768072952267,0.004094654424392975,0.006348324836945521
7003.769072724483,0.004224561071853024,0.006259668778806321
7003.770072496698,0.004361071134534987,0.006159907360262714
7003.7710722689135,0.004503254141287313,0.006049962124975557
7003.772072041129,0.004650097983073525,0.005930913065393193
7003.773071813343,0.004800527957346169,0.005803976191825139
7003.774071585559,0.0049534268991950235,0.0056704791089542544
7003.775071357774,0.005107655628438544,0.005531835333722369
7003.77607112999,0.005262072945507176,0.00538951802849252
7003.777070902204,0.005415554480238348,0.005245033790826736
7003.77807067442,0.005567009783316322,0.005099897138878848
7003.779070446635,0.005715397125149381,0.0049556063423057345
7003.780070218851,0.005859735572656796,0.004813621232401534
7003.781069991066,0.005999114107396903,0.0046753435417284
7003.7820697632815,0.0061326978109019995,0.0045421001656554315
7003.783069535497,0.0062597313767565835,0.004415129530780214
7003.784069307711,0.006379540338671767,0.004295571030749863
7003.785069079927,0.0064915304589142344,0.004184457278783421
7003.786068852142,0.006595185780251741,0.0040827087587251756
7003.787068624358,0.006690065921680594,0.003991130360413408
7003.788068396572,0.006775803233626516,0.003910409277523759
7003.789068168788,0.006852100375827631,0.003841113825901983
7003.790067941003,0.006918728756966347,0.003783692885241112
7003.791067713219,0.006975528113496269,0.0037384758347574856
7003.792067485434,0.007022407312445824,0.003705672994909516
7003.793067257649,0.00705934624179249,0.003685376670129577
7003.794067029864,0.007086398431592526,0.0036775629103935606
7003.795066802079,0.007103693862006553,0.003682094086913637
7003.796066574295,0.007111441279865929,0.0036987223334632798
7003.79706634651,0.00710992930309476,0.0037270938786215517
7003.798066118726,0.007099525703128595,0.0037667543082831123
7003.79906589094,0.0070806745228703125,0.0038171548215595527
7003.800065663156,0.007053891007487224,0.0038776595282914153
7003.801065435371,0.007019754561231765,0.003947553785179469
7003.802065207587,0.00697890005078375,0.004026053530321628
7003.803064979802,0.0069320078228908245,0.004112315581000448
7003.804064752017,0.0068797928695260935,0.0042054488743023186
7003.805064524232,0.0068229936523007545,0.004304526605669629
7003.806064296447,0.006762361128505866,0.004408599158908722
7003.807064068663,0.00669864846955003,0.004516707670826123
7003.808063840878,0.006632601843692427,0.004627898060345069
7003.809063613094,0.006564952481672428,0.004741235344682896
7003.810063385308,0.006496410082073745,0.004855818015995593
7003.811063157524,0.006427657456609347,0.004970792147011504
7003.812062929739,0.0063593461726211544,0.005085364760243014
7003.813062701955,0.006292092838294958,0.005198815876127851
7003.81406247417,0.006226475617913296,0.00531050859071737
7003.815062246385,0.006163030572886236,0.00541989654961042
7003.8160620186,0.006102247505560786,0.005526528294989491
7003.817061790815,0.006044565133359253,0.005630048159943933
7003.818061563031,0.005990365604669019,0.005730193625167698
7003.819061335246,0.005939968535299221,0.00582678928010512
7003.820061107462,0.005893624883522879,0.005919737722870001
7003.821060879676,0.005851511106471478,0.0060090078939119855
7003.822060651892,0.005813724131883471,0.006094621449293182
7003.823060424107,0.005780277692685369,0.006176637824914923
7003.8240601963225,0.0057511004978885606,0.006255138645288573
7003.825059968538,0.00572603659082325,0.006330212119089624
7003.826059740753,0.0057048481248399745,0.006401938047274728
7003.827059512968,0.005687220693592387,0.0064703740457741
7003.828059285183,0.0056727712753252835,0.006535543542920528
7003.829059057399,0.005661058745302726,0.006597426034051097
7003.830058829614,0.005651596743459311,0.00665594996225342
7003.83105860183,0.005643868465198679,0.006710988472372289
7003.832058374044,0.005637342722806169,0.006762358181658233
7003.83305814626,0.005631490475258046,0.006809821023647024
7003.834057918475,0.005625801011953484,0.00685308912880233
7003.8350576906905,0.005619797114954991,0.006891832589789176
7003.836057462906,0.005613048742173547,0.0069256898309220695
7003.837057235121,0.005605184950414684,0.00695428018574464
7003.838057007336,0.00559590384744852,0.006977218205344091
7003.839056779551,0.005584980382079747,0.006994129189787622
7003.840056551767,0.005572271856915312,0.007004665468009678
7003.841056323982,0.00555772119964172,0.007008523028628138
7003.842056096197,0.005541358164432631,0.007005458157813979
7003.843055868412,0.005523298672661885,0.0069953037016330455
7003.844055640628,0.005503742462591766,0.006977984445485119
7003.845055412843,0.005482969189791885,0.006953530972718102
7003.8460551850585,0.005461333150274775,0.006922091306356918
7003.847054957274,0.005439256844672417,0.006883939692544919
7003.848054729489,0.0054172236027834435,0.006839482075881594
7003.849054501704,0.0053957694430588465,0.006789258130995805
7003.850054273919,0.005375474289821572,0.006733940050177764
7003.851054046135,0.005356952626356098,0.006674328502292962
7003.85205381835,0.005340843621003905,0.006611346202801788
7003.853053590565,0.005327800742654165,0.006546029405881607
7003.85405336278,0.005318480903690913,0.006479517437655626
7003.855053134996,0.0053135332305741445,0.006413040209498752
7003.856052907211,0.0053135876389329185,0.0063479035252977205
7003.8570526794265,0.005319243444035989,0.006285471969355077
7003.858052451642,0.005331058247497889,0.006227149273652138
7003.859052223856,0.005349537327490724,0.006174356289271435
7003.860051996072,0.005375123755213429,0.00612850692470256
7003.861051768287,0.005408189461416953,0.0060909825728316155
7003.862051540503,0.005449027454302748,0.006063105605291451
7003.863051312718,0.005497845328700763,0.006046112488454206
7003.864051084933,0.005554760108350708,0.0060411270248944635
7003.865050857148,0.005619794335850793,0.006049134229900875
7003.866050629364,0.00569287318468283,0.00607095545337363
7003.867050401579,0.00577382224568699,0.0061072254929123385
7003.8680501737945,0.005862365581397209,0.006158372511819947
7003.86904994601,0.00595812369232067,0.006224601527844108
7003.870049718224,0.006060611208527373,0.006305882097142271
7003.87104949044,0.0061692343481458975,0.006401940631141269
7003.872049262655,0.0062832883815902955,0.006512257585960164
7003.873049034871,0.0064019554630423475,0.006636069558610445
7003.874048807086,0.00652430326079377,0.006772376105916818
7003.875048579301,0.006649284871288256,0.006919950905272273
7003.876048351516,0.00677574054485267,0.007077356766322789
7003.877048123732,0.006902401765249029,0.007242963996517212
7003.878047895947,0.007027898181361297,0.007414971664419436
7003.8790476681625,0.007150767765991604,0.007591431340026444
7003.880047440378,0.0072694703873107235,0.007770272925776951
7003.881047212592,0.007382404777767962,0.00794933224471886
7003.882046984808,0.007487928737354661,0.008126380114260296
7003.883046757023,0.007584382346007217,0.008299152682688824
7003.884046529239,0.007670113958536396,0.008465382824662193
7003.885046301454,0.007743508734960945,0.008622832376642424
7003.886046073669,0.0078030193409521975,0.008769324956497527
7003.887045845884,0.007847198237044497,0.008902779057042095
7003.8880456181,0.007874730750727385,0.009021241004023597
7003.889045390315,0.00788446798765064,0.009122917216921766
7003.89004516253,0.007875458601157116,0.00920620505859823
7003.891044934746,0.007846978447092489,0.009269721464354641
7003.89204470696,0.007798557155234189,0.009312328499442961
7003.893044479176,0.007730000655853366,0.009333154957655401
7003.894044251391,0.0076414087442994195,0.009331613040722764
7003.895044023607,0.0075331868460683325,0.009307409081758426
7003.896043795822,0.007406051203495166,0.00926054734624882
7003.897043568037,0.0072610267273580265,0.009191326329321771
7003.898043340252,0.007099436865592975,0.009100327641927735
7003.899043112468,0.006922885209463771,0.008988398274451576
7003.900042884683,0.006733229180286707,0.008856627480683691
7003.901042656898,0.006532546769909241,0.008706319700385127
7003.902042429114,0.006323097669403821,0.008538964939712955
7003.903042201328,0.006107280146488379,0.008356207909320297
7003.904041973544,0.005887584870514958,0.00815981697452734
7003.905041745759,0.005666546734433327,0.007951653638051654
7003.906041517975,0.00544669570564628,0.007733642950553461
7003.907041290189,0.005230507839414036,0.007507745024847767
7003.908041062405,0.005020357691537006,0.007275927765249753
7003.90904083462,0.00481847335850561,0.007040140999597748
7003.910040606836,0.004626895242064036,0.00680229234746404
7003.911040379051,0.004447439451098841,0.006564225279467587
7003.912040151266,0.004281666578861318,0.006327699859145464
7003.913039923482,0.004130856438573298,0.0060943766256654555
7003.914039695696,0.003995989187521433,0.0058658040234683545
7003.915039467912,0.0038777331068541396,0.005643409723911127
7003.916039240127,0.00377643913816942,0.005428496090461202
7003.917039012343,0.003692142125218847,0.005222239921139393
7003.918038784557,0.0036245685805609117,0.005025696495095434
7003.919038556773,0.003573150692839772,0.00483980785292466
7003.920038328988,0.003537046204943057,0.004665415109858774
7003.921038101204,0.0035151637153656924,0.0045032744119304635
7003.922037873419,0.003506192866655357,0.004354075918560132
7003.923037645634,0.003508638775993113,0.004218464972881071
7003.924037417849,0.003520859946780948,0.004097064430293247
7003.925037190064,0.0035411087963497395,0.003990496952953596
7003.92603696228,0.0035675738453992923,0.0038994059327234353
7003.927036734495,0.0035984225307747514,0.003824473598278811
7003.928036506711,0.0036318435232465607,0.003766434840092356
7003.929036278925,0.003666087362179825,0.003726085375046786
7003.930036051141,0.003699504184647684,0.003704283073189403
7003.931035823356,0.0037305773839851415,0.003701941610455806
7003.932035595572,0.0037579522184644516,0.0037200161195192626
7003.933035367787,0.0037804586611974358,0.0037594811155139546
7003.934035140002,0.0037971280612044732,0.003821301527701761
7003.935034912217,0.0038072034550624937,0.003906398087633804
7003.936034684432,0.0038101436540156717,0.004015608615140505
7003.937034456648,0.0038056215188650598,0.004149646908663195
7003.938034228863,0.0037935170617218986,0.004309060966018773
7003.939034001079,0.003773906133620858,0.004494192151738613
7003.940033773293,0.0037470454860251945,0.004705136742949877
7003.941033545509,0.0037133549860313944,0.00494171107514336
7003.942033317724,0.00367339774770815,0.005203421296362162
7003.94303308994,0.0036278589036537754,0.00548943854217459
7003.944032862155,0.0035775236760905394,0.005798580188436125
7003.94503263437,0.0035232553337417416,0.006129297733676617
7003.946032406585,0.0034659735498648635,0.006479671780769925
7003.9470321788,0.0034066336012025873,0.006847414494466961
7003.948031951016,0.0033462067661392298,0.007229879812763403
7003.949031723231,0.003285662209922344,0.007624081609305378
7003.950031495447,0.003225950603051872,0.008026719932490786
7003.951031267661,0.0031679896982072676,0.008434215354218602
7003.952031039877,0.003112652059985417,0.008842751332696549
7003.953030812092,0.003060755076738222,0.009248324329358652
7003.954030584308,0.0030130532937036386,0.009646801217354029
7003.955030356523,0.002970233024348074,0.01003398327256346
7003.956030128738,0.0029329091455678213,0.010405675745468171
7003.957029900953,0.0029016239490827905,0.010757761679901329
7003.958029673168,0.0028768478711624773,0.011086278297035247
7003.959029445384,0.0028589818390783693,0.011387493960763323
7003.960029217599,0.0028483608734736106,0.01165798357058233
7003.961028989815,0.0028452585048044264,0.011894700217771153
7003.962028762029,0.002849891523823119,0.012095040995904773
7003.963028534245,0.0028624245966508317,0.012256904861199458
7003.96402830646,0.0028829743193256947,0.012378740419733731
7003.965028078676,0.0029116123386824537,0.012459581650645384
7003.966027850891,0.002948367223819718,0.01249906999748223
7003.967027623106,0.0029932248785182847,0.012497461923283089
7003.968027395321,0.0030461274767150603,0.012455621705817778
7003.969027167536,0.0031069711370327177,0.012374999741413838
7003.970026939752,0.003175602728990336,0.012257596922044754
7003.971026711967,0.003251816268603131,0.012105915922311852
7003.972026484182,0.0033353493420259462,0.011922900636326539
7003.973026256397,0.0034258799474586018,0.011711865529477698
7003.974026028613,0.0035230240994404654,0.011476417158175819
7003.975025800828,0.003626334500025985,0.011220370398888048
7003.976025573043,0.003735300537830824,0.01094766199296533
7003.977025345259,0.003849349817507572,0.010662263963767992
7003.978025117474,0.003967851345468267,0.010368099381895807
7003.979024889689,0.004090120407617894,0.010068962816242578
7003.980024661904,0.004215425090698083,0.009768447554143187
7003.98102443412,0.004342994352279705,0.009469881308772014
7003.982024206335,0.004472027544913601,0.009176271723378062
7003.98302397855,0.0046017053093368844,0.008890262605285705
7003.984023750765,0.004731201717789049,0.008614101515476976
7003.985023522981,0.00485969745395394,0.0083496190763093
7003.986023295196,0.004986393688742103,0.008098220078465645
7003.987023067411,0.005110526202572766,0.00786088613937448
7003.988022839627,0.005231379251446556,0.007638189319140158
7003.989022611841,0.005348298670503563,0.007430315783580861
7003.990022384057,0.005460703727960928,0.007237098343340377
7003.991022156272,0.00556809727779087,0.007058056496279265
7003.992021928488,0.005670073827385064,0.006892442438690915
7003.993021700703,0.005766325231162465,0.006739291365501894
7003.994021472918,0.005856643788615613,0.006597474268904423
7003.995021245133,0.005940922510398606,0.006465751430400373
7003.9960210173485,0.006019152239471787,0.006342824906226609
7003.997020789564,0.006091415280521363,0.006227388475635814
7003.998020561779,0.00615787530977417,0.0061181737095972084
7003.999020333995,0.00621876363777407,0.006013991065486466
7004.000020106209,0.006274362302211108,0.005913765275694525
7004.001019878425,0.006324984841892194,0.005816564721825364
7004.00201965064,0.006370955838125211,0.005721624837586516
7004.003019422856,0.006412590373995457,0.005628365795593944
7004.004019195071,0.006450174488148259,0.005536404866089132
7004.005018967286,0.006483947544340004,0.005445563965865575
7004.006018739501,0.00651408724487793,0.005355873024079761
7004.0070185117165,0.0065406978080378275,0.005267569810088128
7004.008018283932,0.006563801629988629,0.005181096789115328
7004.009018056147,0.006583334590839547,0.005097095440495475
7004.010017828363,0.006599145050714468,0.005016398318500851
7004.011017600577,0.006610996490647616,0.004940018962033567
7004.012017372793,0.0066185736622330705,0.004869139585831744
7004.013017145008,0.00662149203373195,0.004805096357143983
7004.014016917224,0.006619310290892723,0.004749362032727245
7004.015016689439,0.006611545659477993,0.004703525823675724
7004.016016461654,0.006597691794217591,0.004669270521981097
7004.017016233869,0.0065772388598637445,0.0046483470837450965
7004.0180160060845,0.006549695220143005,0.004642546980926255
7004.0190157783,0.006514609909549877,0.004653672703554943
7004.020015550515,0.006471594852270515,0.004683506808306147
7004.021015322731,0.0064203456702765765,0.004733779862642082
7004.022015094945,0.006360659955779735,0.004806137554515729
7004.023014867161,0.006292452114796597,0.004902107175976833
7004.024014639376,0.006215764283174949,0.005023063691833346
7004.025014411592,0.0061307732487813245,0.005170195690635124
7004.026014183807,0.006037793630970843,0.005344471650593691
7004.027013956022,0.005937277687514939,0.0055466070677253855
7004.028013728237,0.005829812070436328,0.005777033047117904
7004.0290135004525,0.005716111738463332,0.006035866973415643
7004.030013272668,0.00559701115232234,0.006322885896568217
7004.031013044883,0.005473452871797646,0.006637503304299916
7004.032012817099,0.005346473727062792,0.006978749990800843
7004.033012589313,0.005217188817575981,0.007345259776878878
7004.034012361529,0.005086773681378371,0.007735260901986619
7004.035012133744,0.004956445072552539,0.008146573957437809
7004.03601190596,0.0048274408666171414,0.00857661718912843
7004.037011678174,0.004700999646822025,0.009022419833425846
7004.03801145039,0.004578340492047964,0.009480643894478039
7004.039011222605,0.004460643406965739,0.009947614479078772
7004.0400109948205,0.00434903074056744,0.010419358523709905
7004.041010767036,0.004244549868588647,0.010891651513340742
7004.042010539251,0.004148157392377039,0.011360071597009812
7004.043010311467,0.004060705104943348,0.011820060291846535
7004.044010083681,0.0039829279362627295,0.012266988682541101
7004.045009855897,0.003915433991499586,0.012696227693199589
7004.046009628112,0.003858696671090754,0.013103220739832925
7004.047009400328,0.003813048768751298,0.013483556980747578
7004.048009172542,0.0037786784300142414,0.013833043499650604
7004.049008944758,0.003755626916588101,0.01414777498647326
7004.050008716973,0.0037437881927640275,0.014424199656631992
7004.0510084891885,0.003742910360825295,0.014659180145462794
7004.052008261404,0.003752598923512125,0.014850047945899636
7004.053008033619,0.003772321790456427,0.014994649789525355
7004.054007805834,0.003801415903915254,0.01509138440720926
7004.055007578049,0.003839095342633834,0.015139228437800538
7004.056007350265,0.003884460771874472,0.015137750801371917
7004.05700712248,0.0039365101383665065,0.015087115413054976
7004.058006894696,0.003994150544735808,0.014988072489336597
7004.05900666691,0.004056211268217263,0.014841938867544107
7004.060006439126,0.004121457924218056,0.014650567907800211
7004.061006211341,0.004188607819642224,0.014416309886146578
7004.062005983556,0.004256346556231896,0.014141964314835899
7004.063005755772,0.004323345885439394,0.01383072610663421
7004.064005527987,0.004388282689091412,0.013486127697661058
7004.065005300202,0.00444985882223767,0.013111979124030523
7004.066005072417,0.004506821469535299,0.012712307746192104
7004.067004844633,0.004557983657411358,0.012291298970847908
7004.068004616848,0.004602244597054823,0.011853239003529031
7004.069004389064,0.004638609548005446,0.011402460398502642
7004.070004161278,0.004666208854385284,0.010943290949938502
7004.071003933494,0.004684315721485315,0.010480006264921229
7004.072003705709,0.004692362199058643,0.010016786167140902
7004.073003477924,0.0046899527603651405,0.009557674926244533
7004.07400325014,0.004676874842000209,0.009106545233185064
7004.075003022355,0.004653105731060988,0.008667065861430142
7004.07600279457,0.004618815242930534,0.008242673014613794
7004.077002566785,0.004574363768938889,0.007836545363069079
7004.078002339001,0.004520295544560244,0.0074515826664607356
7004.079002111216,0.004457327358727616,0.007090387729388965
7004.080001883432,0.004386333263823974,0.006755251355760296
7004.081001655646,0.004308326043220594,0.006448140023729792
7004.0820014278615,0.004224436228578497,0.0061706861604768504
7004.083001200077,0.004135889382498952,0.005924181038395321
7004.084000972292,0.004043982240291447,0.005709570341845067
7004.085000744508,0.003950058181554505,0.005527452371867233
7004.086000516723,0.003855482400694226,0.005378078767801958
7004.087000288938,0.003761617095790897,0.00526135763707847
7004.088000061153,0.003669797026735549,0.005176859111620833
7004.088999833369,0.003581305887807208,0.00512382349522841
7004.089999605584,0.0034973540266228587,0.005101172215813134
7004.0909993778,0.003419058055982954,0.0051075217206263575
7004.091999150014,0.0033474228343203767,0.0051412003152140895
7004.0929989222295,0.0032833261662751005,0.005200267824199724
7004.093998694445,0.0032275064405136765,0.005282537874572874
7004.09499846666,0.003180553300555678,0.005385602570667244
7004.095998238876,0.003142901334153092,0.005506859346639382
7004.096998011091,0.003114826667708546,0.00564353983324265
7004.097997783306,0.003096446290642547,0.005792740613564006
7004.098997555521,0.0030877199411331827,0.005951455727045568
7004.099997327737,0.0030884544469531035,0.006116610723192274
7004.100997099952,0.003098310476752032,0.006285098009820363
7004.101996872167,0.0031168116711127857,0.0064538132187684704
7004.102996644382,0.0031433560858633463,0.006619692324946479
7004.1039964165975,0.0031772298118843017,0.006779749270666829
7004.104996188813,0.0032176225503719445,0.006931113818349338
7004.105995961028,0.0032636448322003737,0.007071069240843219
7004.106995733244,0.0033143464945991612,0.007197089251547462
7004.107995505459,0.0033687359909036173,0.007306873325782348
7004.108995277674,0.0034258001216286335,0.007398379389340829
7004.109995049889,0.0034845238221998466,0.007469852879507557
7004.110994822105,0.0035439096798361874,0.007519851433284507
7004.11199459432,0.003602996839457753,0.007547264773777568
7004.112994366535,0.00366087890080312,0.007551329549690692
7004.11399413875,0.0037167203466989492,0.007531638864245233
7004.1149939109655,0.0037697710092505074,0.007488146102732625
7004.115993683181,0.0038193780886595476,0.007421162601977871
7004.116993455396,0.0038649952978541736,0.007331348832730373
7004.117993227612,0.003906188826686418,0.007219699083671583
7004.118992999826,0.003942639995856881,0.00708751999693894
7004.119992772042,0.003974144672170353,0.006936403554588977
7004.120992544257,0.0040006097042863875,0.006768195220687007
7004.121992316473,0.004022046777197581,0.006584957989881019
7004.122992088688,0.004038564147007674,0.0063889331875554975
7004.123991860903,0.004050356695041873,0.006182499042440866
7004.124991633118,0.004057694656502962,0.005968128239640891
7004.1259914053335,0.004060911296620257,0.00574834575259331
7004.126991177549,0.004060389792661056,0.005525688191722639
7004.127990949764,0.004056549648206857,0.005302665717160579
7004.12899072198,0.004049833064676547,0.005081727303706852
7004.129990494194,0.00404069175290172,0.0048652298749753
7004.13099026641,0.004029574657485267,0.004655411577149427
7004.131990038625,0.004016917013261733,0.0044543692661745925
7004.132989810841,0.0040031310817918225,0.0042640401494117765
7004.133989583056,0.00398859882142454,0.004086187439652715
7004.134989355271,0.003973666621598928,0.003922389810119832
7004.135989127486,0.003958642110302737,0.003774034364930182
7004.1369888997015,0.003943792967050954,0.003642312776529638
7004.137988671917,0.003929347647725836,0.003528220210006225
7004.138988444132,0.003915497909663043,0.0034325566482847074
7004.139988216348,0.003902402973985185,0.0033559302308578346
7004.140987988562,0.003890195068599632,0.0032987622101635426
7004.141987760778,0.0038789859689424234,0.0032612931226023195
7004.142987532993,0.003868874017585127,0.0032435897883665694
7004.143987305209,0.0038599510137397423,0.0032455528040293874
7004.144987077424,0.003852308389908577,0.003266924249812456
7004.145986849639,0.0038460422515883743,0.0033072953763659085
7004.146986621854,0.0038412570703096204,0.003366114077399556
7004.147986394069,0.0038380679840302693,0.0034426920249455957
7004.148986166285,0.0038366017327460694,0.0035362114517446344
7004.1499859385,0.003836996273108809,0.0036457316857724333
7004.150985710716,0.0038393991101723264,0.0037701956356955444
7004.15198548293,0.0038439643810049607,0.003908436468418303
7004.152985255146,0.003850848760613016,0.004059184712990547
7004.153985027361,0.003860206356979546,0.004221075981844658
7004.154984799577,0.003872182876319857,0.00439265942725952
7004.155984571792,0.003886909395738011,0.004572406951484754
7004.156984344007,0.0039044960505282967,0.004758723087136583
7004.157984116222,0.003925025871341672,0.0049499554173184825
7004.158983888437,0.0039485489558396,0.005144405461279251
7004.159983660653,0.003975077158459444,0.005340340095605621
7004.160983432868,0.004004579512178237,0.005536003738212164
7004.161983205084,0.004036978617518912,0.00572963161386624
7004.162982977298,0.004072148220840528,0.005919464405012207
7004.163982749514,0.004109912158784313,0.006103764479779233
7004.164982521729,0.00415004477742935,0.006280833719634089
7004.165982293945,0.004192272844360175,0.006449032773723139
7004.166982066159,0.004236278872981842,0.0066068013694582615
7004.167981838375,0.004281705703687359,0.0067526791570707775
7004.16898161059,0.004328162157884223,0.00688532651036142
7004.169981382805,0.004375229589722403,0.007003544735483398
7004.170981155021,0.004422469176994072,0.00710629518266039
7004.171980927236,0.0044694297872635395,0.007192716757999596
7004.172980699452,0.004515656224266261,0.007262141298909293
7004.173980471666,0.004560697630536655,0.007314106241789852
7004.174980243882,0.00460411581334463,0.00734836400376772
7004.175980016097,0.004645493252835908,0.007364887527243869
7004.176979788313,0.004684440516651557,0.0073638714852511215
7004.177979560527,0.004720602747518981,0.007345728727527008
7004.178979332743,0.00475366484074154,0.007311081703097029
7004.179979104958,0.00478335492529622,0.007260748836763145
7004.180978877173,0.004809445837329542,0.007195726108575942
7004.181978649389,0.004831754443972421,0.007117164309860059
7004.182978421604,0.004850138921463327,0.007026342602443453
7004.183978193819,0.00486449435237625,0.006924639139952514
7004.184977966034,0.0048747471937366045,0.006813499675330623
7004.18597773825,0.004880849223991686,0.0066944052477404216
7004.186977510465,0.004882771521403509,0.006568840126473196
7004.187977282681,0.0048804989240733695,0.006438261138762219
7004.188977054895,0.004874025312256676,0.006304069340738881
7004.189976827111,0.004863349931776221,0.006167584757527518
7004.190976599326,0.004848474834083214,0.006030024679127986
7004.191976371541,0.004829403371888337,0.0058924858114949834
7004.192976143757,0.004806139618681865,0.005755930477309466
7004.193975915972,0.004778688610537718,0.0056211770112664
7004.194975688187,0.004747057399405352,0.005488894433019093
7004.195975460402,0.004711256974221645,0.005359601363286309
7004.196975232618,0.004671305101587073,0.005233668994971158
7004.197975004833,0.004627230075731775,0.005111327796224799
7004.1989747770485,0.004579075284720859,0.0049926775339284
7004.199974549263,0.004526904422780467,0.00487770014166016
7004.200974321479,0.004470807117431937,0.004766274884419655
7004.201974093694,0.004410904694402448,0.004658195203744487
7004.202973865909,0.004347355780899339,0.0045531866002535915
7004.203973638125,0.004280361466295735,0.004450924929936932
7004.20497341034,0.004210169788660092,0.004351054515342869
7004.205973182555,0.0041370793457739955,0.004253205492011923
7004.20697295477,0.004061441807514501,0.004157009879968895
7004.207972726986,0.003983663068027264,0.004062116037348602
7004.208972499201,0.0039042027828040844,0.003968201370685932
7004.2099722714165,0.003823572097334228,0.003874983333216969
7004.210972043631,0.003742329446835172,0.0037822287786794507
7004.211971815847,0.003661074365266438,0.0036897616960880454
7004.212971588062,0.003580439318768784,0.003597469316319752
7004.213971360277,0.0035010797184385767,0.003505306599143623
7004.214971132493,0.003423662451928077,0.0034132991623768696
7004.215970904708,0.0033488534194284288,0.0033215447650162717
7004.216970676923,0.0032773046039461934,0.0032302134905413476
7004.217970449138,0.0032096411658448865,0.0031395468054623713
7004.218970221354,0.0031464489865671726,0.0030498556959901906
7004.219969993569,0.003088263034624561,0.0029615181044518844
7004.2209697657845,0.0030355568946940754,0.002874975885767904
7004.221969537999,0.0029887337763843352,0.002790731473683158
7004.222969310215,0.0029481192826254312,0.002709344387130343
7004.22396908243,0.002913956153257662,0.002631427632727726
7004.224968854645,0.0028864011113628133,0.002557643983819684
7004.225968626861,0.0028655238504278744,0.002488702046639164
7004.226968399076,0.0028513081294078914,0.0024253519688963773
7004.227968171291,0.00284365488700461,0.002368380619186301
7004.228967943506,0.0028423872259764264,0.0023186060773001125
7004.229967715722,0.0028472570468843724,0.0022768713226923665
7004.230967487937,0.0028579530481255555,0.002244037066755311
7004.231967260152,0.002874109774596937,0.002220973706385796
7004.232967032367,0.002895317389827913,0.0022085523619020213
7004.233966804582,0.002921131861581643,0.002207634925885653
7004.234966576798,0.002951085292496467,0.0022190630463019066
7004.235966349013,0.0029846961872414548,0.002243646036713432
7004.236966121229,0.003021479495357486,0.002282147829522199
7004.237965893444,0.0030609562766318005,0.0023352731999963143
7004.238965665659,0.003102662812124547,0.0024036535413298394
7004.239965437874,0.003146158976490331,0.0024878324682135384
7004.24096521009,0.003191035738736262,0.0025882514946930497
7004.241964982305,0.0032369217543929464,0.002705235984379139
7004.24296475452,0.0032834890873133914,0.002838981515571307
7004.243964526735,0.0033304581032188277,0.0029895407638681998
7004.24496429895,0.0033776015133579968,0.0031568110042306113
7004.245964071166,0.0034247474559562243,0.0033405223708648903
7004.246963843381,0.0034717814360293578,0.0035402270676749936
7004.247963615597,0.0035186469406193986,0.0037552897922813167
7004.248963387811,0.0035653446050187857,0.003984879734898385
7004.249963160027,0.003611929877054247,0.004227964623113634
7004.250962932242,0.0036585091635529705,0.004483307349729919
7004.251962704458,0.0037052344471597636,0.004749465703659606
7004.252962476673,0.00375229636998627,0.005024795639470018
7004.253962248888,0.0037999158172278965,0.005307458406960475
7004.254962021103,0.0038483340887375686,0.005595431728592748
7004.255961793318,0.003897801801040807,0.005886525062780142
7004.256961565534,0.003948566719432922,0.0061783988671326485
7004.257961337749,0.004000860803460584,0.0064685877326953484
7004.258961109965,0.004054886875713311,0.006754527285332039
7004.259960882179,0.004110805466421604,0.007033584754101132
7004.260960654395,0.00416872247782163,0.007303093009678757
7004.26196042661,0.0042286783077698,0.0075603876766572415
7004.262960198826,0.004290638989653113,0.007802846677359221
7004.263959971041,0.004354489785752148,0.008027931337634773
7004.264959743256,0.004420031528917824,0.008233228029063335
7004.265959515471,0.004486979848418058,0.008416489267238024
7004.266959287686,0.004554967269326699,0.008575673239012559
7004.267959059902,0.004623548079994922,0.008708980868719152
7004.268958832117,0.004692205831808664,0.008814889688873617
7004.269958604333,0.0047603633445419714,0.008892183866373016
7004.270958376547,0.004827395089537047,0.00893997969886482
7004.271958148763,0.004892641764741386,0.00895774578742158
7004.272957920978,0.004955426747665264,0.008945317064213917
7004.273957693194,0.00501507394201528,0.008902902044325485
7004.274957465409,0.005070926364533046,0.00883108304549749
7004.275957237624,0.00512236469532498,0.008730809500052429
7004.276957009839,0.005168824988033058,0.00860338473995655
7004.277956782054,0.005209814844557404,0.00845044677887782
7004.27895655427,0.005244927583485609,0.00827394371092308
7004.279956326485,0.005273854178429603,0.008076104441237736
7004.280956098701,0.00529639290785144,0.007859405566719583
7004.281955870915,0.005312456711394708,0.007626535295689493
7004.282955643131,0.005322078242176412,0.007380355280839779
7004.283955415346,0.005325412609782212,0.007123861144874149
7004.2849551875615,0.005322737853568487,0.006860142376831946
