Time,Filtered_ECG
6836.677427426359,-0.0016542690481080816
6836.6784271982815,-0.001618741405537011
6836.679426970204,-0.001582978268143327
6836.680426742128,-0.0015469836685618158
6836.68142651405,-0.0015107617144845909
6836.682426285973,-0.0014743165878855183
6836.683426057895,-0.0014376525442169102
6836.684425829818,-0.00140077391157885
6836.685425601741,-0.0013636850898615049
6836.686425373664,-0.0013263905498607552
6836.6874251455865,-0.0012888948323674264
6836.688424917509,-0.0012512025472303536
6836.689424689432,-0.0012133183723934474
6836.690424461354,-0.0011752470529068498
6836.691424233278,-0.00113699339991222
6836.6924240052,-0.0010985622896021558
6836.693423777123,-0.0010599586621537404
6836.6944235490455,-0.0010211875206362255
6836.695423320968,-0.0009822539298928784
6836.696423092892,-0.0009431630153970607
6836.697422864814,-0.0009039199620826276
6836.698422636737,-0.0008645300131487671
6836.699422408659,-0.0008249984688394101
6836.700422180582,-0.0007853306851973593
6836.701421952505,-0.0007455320727932827
6836.702421724428,-0.0007056080954297256
6836.703421496351,-0.0006655642688202984
6836.704421268273,-0.0006254061592442016
6836.705421040196,-0.0005851393821762625
6836.706420812119,-0.0005447696008926883
6836.707420584042,-0.0005043025250527678
6836.708420355964,-0.0004637439092567871
6836.709420127887,-0.0004230995515804538
6836.7104198998095,-0.00038237529208615155
6836.711419671732,-0.00034157701131137645
6836.712419443656,-0.0003007106287347407
6836.713419215578,-0.00025978210121997334
6836.714418987501,-0.0002187974214384022
6836.715418759423,-0.00017776261627047016
6836.716418531346,-0.00013668374518691694
6836.717418303269,-9.556689861034262e-05
6836.718418075192,-5.441819625794999e-05
6836.7194178471145,-1.3243785466333627e-05
6836.720417619037,2.7950160500766796e-05
6836.72141739096,6.915744416080281e-05
6836.722417162882,0.00011037184553589097
6836.723416934806,0.00015158712389048675
6836.724416706728,0.00019279701948235288
6836.725416478651,0.0002339952553259601
6836.7264162505735,0.00027517553896750854
6836.727416022496,0.0003163315642708099
6836.72841579442,0.0003574570132133191
6836.729415566342,0.00039854555769164665
6836.730415338265,0.00043959086133591114
6836.731415110187,0.00048058658133230464
6836.73241488211,0.0005215263702532358
6836.733414654033,0.0005624038778943892
6836.734414425956,0.0006032127531179958
6836.735414197879,0.000643946645701547
6836.736413969801,0.0006845992081911233
6836.737413741724,0.0007251640977584448
6836.738413513647,0.000765634978060693
6836.73941328557,0.0008060055211021135
6836.740413057492,0.0008462694090963771
6836.741412829415,0.0008864203363286566
6836.7424126013375,0.000926452011016374
6836.74341237326,0.0009663581571675684
6836.744412145184,0.0010061325164358499
6836.745411917106,0.0010457688499709132
6836.746411689029,0.0010852609402636003
6836.747411460951,0.0011246025929845204
6836.748411232874,0.0011637876388152643
6836.749411004797,0.0012028099352712884
6836.75041077672,0.0012416633685155827
6836.7514105486425,0.00128034185516227
6836.752410320565,0.0013188393440693063
6836.753410092488,0.001357149818119461
6836.754409864411,0.0013952672959887515
6836.755409636334,0.0014331858339014973
6836.756409408256,0.0014708995273711443
6836.757409180179,0.0015084025129259975
6836.7584089521015,0.0015456889698189954
6836.759408724025,0.0015827531217206515
6836.760408495948,0.0016195892383942861
6836.76140826787,0.001656191637352661
6836.762408039793,0.0016925546854951203
6836.763407811715,0.001728672800724349
6836.764407583638,0.001764540453541882
6836.765407355561,0.0018001521686215546
6836.766407127484,0.001835502526360153
6836.767406899407,0.0018705861644046017
6836.768406671329,0.0019053977791550869
6836.769406443252,0.0019399321272435932
6836.770406215175,0.001974184026987387
6836.771405987098,0.002008148359817029
6836.77240575902,0.002041820071678549
6836.773405530943,0.0020751941744094424
6836.7744053028655,0.002108265747088139
6836.775405074788,0.0021410299373565977
6836.776404846712,0.0021734819627156512
6836.777404618634,0.0022056171117927
6836.778404390557,0.0022374307455813596
6836.779404162479,0.002268918298652678
6836.780403934402,0.0023000752803375786
6836.781403706325,0.0023308972758802203
6836.782403478248,0.002361379947562015
6836.7834032501705,0.002391519035796071
6836.784403022093,0.0024213103601918792
6836.785402794016,0.002450749820590067
6836.786402565939,0.0024798333980671147
6836.787402337862,0.0025085571559099453
6836.788402109784,0.00253691724056036
6836.789401881707,0.0025649098825293
6836.7904016536295,0.0025925313972809693
6836.791401425553,0.0026197781860868895
6836.792401197476,0.002646646736849977
6836.793400969398,0.00267313362489877
6836.794400741321,0.0026992355137519376
6836.795400513243,0.002724949155853203
6836.796400285166,0.0027502713932768194
6836.797400057089,0.002775199158403718
6836.798399829012,0.002799729474568434
6836.799399600935,0.0028238594566768788
6836.800399372857,0.0028475863117950148
6836.80139914478,0.0028709073397084218
6836.802398916703,0.002893819933452682
6836.803398688626,0.0029163215798144707
6836.804398460548,0.002938409859803153
6836.805398232471,0.0029600824490926495
6836.8063980043935,0.0029813371184332677
6836.807397776317,0.0030021717340331703
6836.80839754824,0.0030225842579091515
6836.809397320162,0.003042572748206416
6836.810397092085,0.003062135359487083
6836.811396864007,0.0030812703429872156
6836.812396635931,0.003099976046842245
6836.813396407853,0.003118250916280752
6836.814396179776,0.0031360934937866725
6836.8153959516985,0.00315350241923008
6836.816395723621,0.0031704764299668097
6836.817395495544,0.003187014360907281
6836.818395267467,0.0032031151445549794
6836.81939503939,0.0032187778110151243
6836.820394811312,0.003234001487974128
6836.821394583235,0.0032487854006505034
6836.8223943551575,0.003263128871717906
6836.823394127081,0.0032770313212010164
6836.824393899004,0.0032904922663449733
6836.825393670926,0.0033035113214590532
6836.826393442849,0.0033160881977352787
6836.827393214771,0.0033282227030426354
6836.828392986694,0.0033399147416975582
6836.829392758617,0.003351164314211314
6836.83039253054,0.003361971517014905
6836.831392302463,0.003372336542162089
6836.832392074385,0.0033822596770110764
6836.833391846308,0.003391741303885409
6836.834391618231,0.003400781899714478
6836.835391390154,0.003409382035654027
6836.836391162076,0.0034175423766868883
6836.837390933999,0.0034252636812041387
6836.8383907059215,0.003432546800566739
6836.839390477845,0.0034393926786476627
6836.840390249768,0.0034458023513544117
6836.84139002169,0.003451776946131764
6836.842389793613,0.0034573176814444934
6836.843389565535,0.003462425866239768
6836.844389337459,0.00346710289938889
6836.845389109381,0.003471350269108052
6836.846388881304,0.003475169552357814
6836.8473886532265,0.003478562414221032
6836.848388425149,0.003481530607259017
6836.849388197072,0.0034840759708457104
6836.850387968995,0.003486200430479691
6836.851387740918,0.003487905997073828
6836.85238751284,0.0034891947662223904
6836.853387284763,0.00349006891744544
6836.8543870566855,0.0034905307134103208
6836.855386828609,0.0034905824991300666
6836.856386600532,0.0034902267011385772
6836.857386372454,0.0034894658266424396
6836.858386144377,0.0034883024626493515
6836.859385916299,0.0034867392750731986
6836.860385688222,0.0034847790078159167
6836.861385460145,0.003482424481826367
6836.862385232068,0.00347967859413654
6836.863385003991,0.0034765443168754723
6836.864384775913,0.0034730246962613224
6836.865384547836,0.003469122851572089
6836.866384319759,0.0034648419740955505
6836.867384091682,0.0034601853260590293
6836.868383863604,0.003455156239539651
6836.869383635527,0.003449758115355796
6836.8703834074495,0.0034439944219404757
6836.871383179373,0.003437868694197372
6836.872382951296,0.0034313845323402565
6836.873382723218,0.0034245456007165097
6836.874382495141,0.003417355626615415
6836.875382267063,0.0034098183990618563
6836.876382038987,0.0034019377675960382
6836.877381810909,0.0033937176410397973
6836.878381582832,0.0033851619862500797
6836.8793813547545,0.003376274826860141
6836.880381126677,0.0033670602420090004
6836.8813808986,0.0033575223650596582
6836.882380670523,0.003347665382306549
6836.883380442446,0.0033374935316726685
6836.884380214368,0.003327011101396802
6836.885379986291,0.003316222428711237
6836.8863797582135,0.003305131898510347
6836.887379530137,0.0032937439420104354
6836.88837930206,0.003282063035401207
6836.889379073982,0.0032700936984892607
6836.890378845905,0.003257840493333979
6836.891378617827,0.0032453080228762154
6836.892378389751,0.0032325009295601573
6836.893378161673,0.0032194238939487704
6836.894377933596,0.0032060816333332283
6836.895377705519,0.0031924789003367573
6836.896377477441,0.003178620481513345
6836.897377249365,0.00316451119594178
6836.898377021287,0.003150155893815485
6836.89937679321,0.003135559455028615
6836.900376565132,0.0031207267877588693
6836.901376337055,0.0031056628270474847
6836.9023761089775,0.003090372533376872
6836.903375880901,0.0030748608912463927
6836.904375652824,0.0030591329077467866
6836.905375424746,0.0030431936111338046
6836.906375196669,0.0030270480494015953
6836.907374968591,0.0030107012888564108
6836.908374740515,0.0029941584126911783
6836.909374512437,0.002977424519561463
6836.91037428436,0.002960504722163291
6836.9113740562825,0.0029434041458132184
6836.912373828205,0.0029261279270309543
6836.913373600128,0.0029086812121247338
6836.914373372051,0.002891069155779563
6836.915373143974,0.002873296919648419
6836.916372915896,0.002855369670946434
6836.917372687819,0.002837292581048071
6836.9183724597415,0.002819070824087296
6836.919372231665,0.00280070957556068
6836.920372003588,0.002782214010933377
6836.92137177551,0.002763589304247871
6836.922371547433,0.0027448406267353734
6836.923371319355,0.0027259731454297243
6836.924371091279,0.002706992021783621
6836.925370863201,0.002687902410286981
6836.926370635124,0.002668709457087214
6836.927370407047,0.002649418298611147
6836.928370178969,0.0026300340601883195
6836.929369950893,0.0026105618546753426
6836.930369722815,0.0025910067810809507
6836.931369494738,0.00257137392319137
6836.93236926666,0.0025516683481955614
6836.933369038583,0.0025318951053098517
6836.9343688105055,0.002512059224401413
6836.935368582429,0.0024921657146099933
6836.936368354352,0.002472219562967257
6836.937368126274,0.002452225733013047
6836.938367898197,0.0024321891634078914
6836.939367670119,0.002412114766541045
6836.940367442043,0.002392007427133394
6836.941367213965,0.0023718720008345604
6836.942366985888,0.0023517133128135807
6836.9433667578105,0.002331536156342594
6836.944366529733,0.0023113452913730475
6836.945366301656,0.002291145443104033
6836.946366073579,0.0022709413005425126
6836.947365845502,0.0022507375150553352
6836.948365617424,0.002230538698913154
6836.949365389347,0.002210349423826545
6836.95036516127,0.002190174219474853
6836.951364933193,0.0021700175720284916
6836.952364705116,0.0021498839226655824
6836.953364477038,0.0021297776660839573
6836.954364248961,0.002109703149009659
6836.955364020883,0.0020896646687031456
6836.956363792807,0.0020696664714644685
6836.957363564729,0.00204971275113873
6836.958363336652,0.002029807647623189
6836.959363108575,0.0020099552453774036
6836.960362880497,0.001990159571937837
6836.961362652421,0.001970424596438321
6836.962362424343,0.0019507542281377746
6836.963362196266,0.0019311523149565084
6836.964361968188,0.00191162264202243
6836.965361740111,0.0018921689302284078
6836.9663615120335,0.001872794834802009
6836.967361283957,0.0018535039438888018
6836.96836105588,0.0018342997771503753
6836.969360827802,0.001815185784378204
6836.970360599725,0.0017961653441244763
6836.971360371647,0.0017772417623509982
6836.972360143571,0.0017584182710973025
6836.973359915493,0.001739698027169091
6836.974359687416,0.0017210841108481808
6836.9753594593385,0.0017025795246251503
6836.976359231261,0.0016841871919559188
6836.977359003185,0.0016659099560435247
6836.978358775107,0.0016477505786463844
6836.97935854703,0.0016297117389143057
6836.980358318952,0.001611796032253504
6836.981358090875,0.001594005969221835
6836.982357862798,0.0015763439744554061
6836.983357634721,0.0015588123856276844
6836.984357406644,0.0015414134524421677
6836.985357178566,0.0015241493356596104
6836.986356950489,0.0015070221061607085
6836.987356722411,0.001490033744045034
6836.988356494335,0.0014731861377668867
6836.989356266257,0.0014564810833085995
6836.99035603818,0.0014399202833917145
6836.991355810103,0.0014235053467263378
6836.992355582025,0.0014072377872989138
6836.993355353949,0.0013911190236986111
6836.994355125871,0.0013751503784824736
6836.995354897794,0.0013593330775794788
6836.996354669716,0.0013436682497336234
6836.997354441639,0.0013281569259861292
6836.9983542135615,0.001312800039196836
6836.999353985485,0.0012975984236048145
6837.000353757408,0.0012825528144281865
6837.00135352933,0.001267663847503104
6837.002353301253,0.0012529320589618122
6837.003353073175,0.0012383578849496975
6837.004352845099,0.0012239416613812088
6837.005352617021,0.0012096836237345304
6837.006352388944,0.0011955839068848789
6837.0073521608665,0.0011816425449762853
6837.008351932789,0.0011678594713317079
6837.009351704713,0.0011542345184012794
6837.010351476635,0.0011407674177484476
6837.011351248558,0.001127457800073698
6837.01235102048,0.001114305195275489
6837.013350792403,0.001101309032547983
6837.014350564326,0.0010884686405151223
6837.015350336249,0.0010757832474006018
6837.016350108172,0.0010632519812332996
6837.017349880094,0.0010508738700877641
6837.018349652017,0.0010386478423593899
6837.019349423939,0.001026572727073947
6837.020349195863,0.0010146472542311479
6837.021348967785,0.0010028700551819405
6837.022348739708,0.0009912396630392113
6837.023348511631,0.0009797545131215754
6837.024348283553,0.0009684129434299148
6837.025348055477,0.0009572131951563129
6837.026347827399,0.0009461534132250032
6837.027347599322,0.0009352316468649191
6837.028347371244,0.0009244458502134017
6837.029347143167,0.0009137938829505869
6837.03034691509,0.0009032735109639747
6837.031346687013,0.0008928824070426797
6837.032346458936,0.0008826181516008764
6837.033346230858,0.0008724782334299855
6837.034346002781,0.0008624600504792036
6837.035345774704,0.0008525609106640626
6837.036345546627,0.000842778032702804
6837.037345318549,0.000833108546980468
6837.038345090472,0.0008235494964407108
6837.0393448623945,0.0008140978375054526
6837.040344634317,0.0008047504410225414
6837.041344406241,0.0007955040932416637
6837.042344178163,0.000786355496818773
6837.043343950086,0.0007773012718493264
6837.044343722008,0.0007683379569306274
6837.045343493931,0.0007594620102535921
6837.046343265854,0.0007506698107242558
6837.047343037777,0.000741957659115381
6837.0483428097,0.0007333217792485539
6837.049342581622,0.0007247583192072002
6837.050342353545,0.000716263352580955
6837.051342125467,0.0007078328797418088
6837.052341897391,0.0006994628291524039
6837.053341669313,0.0006911490587068067
6837.054341441236,0.0006828873571040311
6837.055341213159,0.0006746734452545565
6837.056340985081,0.0006665029777200443
6837.057340757005,0.0006583715441864311
6837.058340528927,0.0006502746709705482
6837.05934030085,0.0006422078225603815
6837.060340072772,0.0006341664031890518
6837.061339844695,0.0006261457584425457
6837.062339616618,0.000618141176901162
6837.063339388541,0.0006101478918145489
6837.064339160464,0.000602161082810094
6837.065338932386,0.0005941758776343243
6837.066338704309,0.0005861873539268704
6837.067338476232,0.0005781905410264897
6837.068338248155,0.0005701804218086163
6837.069338020077,0.0005621519345539202
6837.070337792,0.0005540999748474065
6837.0713375639225,0.0005460193975076718
6837.072337335845,0.000537905018546031
6837.073337107769,0.0005297516171553385
6837.074336879691,0.0005215539377284322
6837.075336651614,0.0005133066919062371
6837.076336423536,0.0005050045606556428
6837.077336195459,0.0004966421963773235
6837.078335967382,0.00048821422504368724
6837.079335739305,0.00047971524836713347
6837.080335511228,0.0004711398459987685
6837.08133528315,0.00046248257775767775
6837.082335055073,0.0004537379858907913
6837.083334826995,0.0004449005973633047
6837.084334598919,0.0004359649261795443
6837.085334370841,0.0004269254757341021
6837.086334142764,0.0004177767411930019
6837.087333914687,0.00040851321190460535
6837.088333686609,0.00039912937383991575
6837.089333458533,0.00038961971206188863
6837.090333230455,0.0003799787132233104
6837.091333002378,0.00037020086809275816
6837.0923327743,0.0003602806741080995
6837.093332546223,0.00035021263795693096
6837.094332318146,0.00033999127818329025
6837.095332090069,0.0003296111278199116
6837.096331861992,0.00031906673704522716
6837.097331633914,0.00030835267586425775
6837.098331405837,0.00029746353681247314
6837.09933117776,0.0002863939376816409
6837.100330949683,0.0002751385242666246
6837.101330721605,0.00026369197313204015
6837.102330493528,0.0002520489943976405
6837.1033302654505,0.00024020433454127133
6837.104330037373,0.00022815277921823211
6837.105329809297,0.00021588915609588072
6837.106329581219,0.00020340833770234428
6837.107329353142,0.00019070524428824466
6837.108329125064,0.0001777748467004117
6837.109328896987,0.00016461216926663555
6837.11032866891,0.00015121229269058722
6837.111328440833,0.00013757035695610435
6837.112328212756,0.00012368156424008813
6837.113327984678,0.00010954118183328588
6837.114327756601,9.514454506824546e-05
6837.115327528524,8.048706025372385e-05
6837.116327300447,6.5564207614814e-05
6837.117327072369,5.03715442380207e-05
6837.118326844292,3.4904707020466475e-05
6837.119326616215,1.9159415622348672e-05
6837.120326388138,3.13147542170865e-06
6837.121326160061,-1.3183219529471462e-05
6837.122325931983,-2.9788683548848583e-05
6837.123325703906,-4.668883636797235e-05
6837.124325475828,-6.388750017818325e-05
6837.125325247751,-8.138839667908875e-05
6837.126325019674,-9.919514413050888e-05
6837.127324791597,-0.00011731125440874093
6837.12832456352,-0.00013574013006795724
6837.129324335442,-0.00015448506140752958
6837.130324107365,-0.00017354922354606778
6837.131323879288,-0.00019293567350296703
6837.132323651211,-0.0002126473472882767
6837.133323423133,-0.0002326870570017371
6837.134323195056,-0.000253057487941887
6837.1353229669785,-0.0002737611957262146
6837.136322738901,-0.00029480060342340674
6837.137322510825,-0.00031617799869884097
6837.138322282747,-0.00033789553097456884
6837.13932205467,-0.00035995520860515053
6837.140321826592,-0.00038235889607081126
6837.141321598515,-0.00040510831118948125
6837.142321370438,-0.00042820502234935373
6837.143321142361,-0.0004516504457636511
6837.144320914284,-0.0004754458427493405
6837.145320686206,-0.0004995923170315878
6837.146320458129,-0.0005240908120757804
6837.147320230052,-0.000548942108448977
6837.148320001975,-0.0005741468212126614
6837.149319773897,-0.0005997053973486846
6837.15031954582,-0.0006256181132202861
6837.151319317743,-0.0006518850720701003
6837.152319089666,-0.0006785062015570688
6837.153318861589,-0.0007054812513342025
6837.154318633511,-0.0007328097906691507
6837.155318405434,-0.0007604912061095425
6837.156318177356,-0.0007885246991950629
6837.157317949279,-0.0008169092842182315
6837.158317721202,-0.0008456437860358682
6837.159317493125,-0.00087472683793327
6837.160317265048,-0.0009041568795431685
6837.16131703697,-0.0009339321548215901
6837.162316808893,-0.0009640507100827876
6837.163316580816,-0.0009945103920954354
6837.164316352739,-0.001025308846242306
6837.165316124661,-0.0010564435147456606
6837.166315896584,-0.0010879116349606164
6837.1673156685065,-0.0011197102377388146
6837.16831544043,-0.0011518361458647884
6837.169315212353,-0.0011842859725675217
6837.170314984275,-0.0012170561201098
6837.171314756198,-0.0012501427784580648
6837.17231452812,-0.0012835419240356054
6837.173314300044,-0.0013172493185620326
6837.174314071966,-0.0013512605079820821
6837.175313843889,-0.0013855708214868716
6837.176313615812,-0.0014201753706307872
6837.177313387734,-0.001455069048547208
6837.178313159657,-0.001490246529266301
6837.17931293158,-0.0015257022671381327
6837.180312703503,-0.001561430496364361
6837.181312475425,-0.0015974252306417776
6837.182312247348,-0.0016336802629209784
6837.183312019271,-0.0016701891652834133
6837.184311791194,-0.0017069452889400137
6837.185311563117,-0.0017439417643545004
6837.186311335039,-0.0017811715014943526
6837.187311106962,-0.0018186271902122769
6837.188310878884,-0.0018563013007608662
6837.189310650807,-0.0018941860844429773
6837.19031042273,-0.0019322735744002329
6837.191310194653,-0.001970555586541904
6837.192309966576,-0.0020090237206163053
6837.193309738498,-0.0020476693614266705
6837.194309510421,-0.002086483680193335
6837.195309282344,-0.0021254576360638907
6837.196309054267,-0.002164581977772825
6837.197308826189,-0.002203847245451996
6837.198308598112,-0.002243243772593163
6837.1993083700345,-0.002282761688163637
6837.200308141958,-0.002322390918876013
6837.201307913881,-0.0023621211916128406
6837.202307685803,-0.0024019420360070274
6837.203307457726,-0.0024418427871787146
6837.204307229648,-0.0024818125886293166
6837.205307001572,-0.0025218403952933575
6837.206306773494,-0.0025619149767486513
6837.207306545417,-0.00260202492058525
6837.20830631734,-0.0026421586359334326
6837.209306089262,-0.0026823043571508757
6837.210305861185,-0.0027224501476689933
6837.211305633108,-0.0027625839039983
6837.212305405031,-0.002802693359892527
6837.213305176953,-0.0028427660906710658
6837.214304948876,-0.002882789517699186
6837.215304720799,-0.0029227509130253047
6837.216304492722,-0.002962637404174442
6837.217304264645,-0.0030024359790968044
6837.218304036567,-0.0030421334912702673
6837.21930380849,-0.0030817166649553594
6837.220303580412,-0.003121172100601188
6837.221303352335,-0.0031604862804006
6837.222303124258,-0.0031996455739927558
6837.223302896181,-0.003238636244311212
6837.224302668104,-0.0032774444535755318
6837.225302440026,-0.0033160562694243734
6837.226302211949,-0.0033544576711879584
6837.227301983872,-0.003392634556297758
6837.228301755795,-0.0034305727468311787
6837.229301527717,-0.0034682579961889683
6837.23030129964,-0.0035056759959029775
6837.2313010715625,-0.0035428123825717965
6837.232300843486,-0.003579652744921645
6837.233300615409,-0.0036161826309897135
6837.234300387331,-0.0036523875554269544
6837.235300159254,-0.0036882530069171538
6837.236299931176,-0.003723764455708898
6837.2372997031,-0.0037589073612568635
6837.238299475022,-0.003793667179968637
6837.239299246945,-0.0038280293730530985
6837.240299018868,-0.0038619794144661946
6837.24129879079,-0.0038955027989497413
6837.242298562713,-0.003928585050158752
6837.243298334636,-0.003961211728872627
6837.244298106559,-0.003993368441285393
6837.245297878481,-0.004025040847370046
6837.246297650404,-0.0040562146693119035
6837.247297422327,-0.004086875700005728
6837.24829719425,-0.004117009811611228
6837.249296966173,-0.004146602964161366
6837.250296738095,-0.004175641214217723
6837.251296510018,-0.004204110723566964
6837.25229628194,-0.004231997767952235
6837.253296053864,-0.004259288745833123
6837.254295825786,-0.00428597018716762
6837.255295597709,-0.004312028762209387
6837.256295369632,-0.0043374512903134235
6837.257295141554,-0.004362224748743215
6837.258294913478,-0.004386336281472274
6837.2592946854,-0.0044097732079729935
6837.260294457323,-0.0044325230319856345
6837.261294229245,-0.004454573450260254
6837.262294001168,-0.004475912361264359
6837.2632937730905,-0.004496527873848989
6837.264293545014,-0.004516408315865917
6837.265293316937,-0.0045355422427285266
6837.266293088859,-0.004553918445908838
6837.267292860782,-0.00457152596136304
6837.268292632704,-0.004588354077877717
6837.269292404628,-0.004604392345328835
6837.27029217655,-0.004619630582845409
6837.271291948473,-0.004634058886869596
6837.272291720396,-0.004647667639104827
6837.273291492318,-0.004660447514343444
6837.274291264241,-0.004672389488165172
6837.275291036164,-0.004683484844497607
6837.276290808087,-0.004693725183029799
6837.277290580009,-0.004703102426469869
6837.278290351932,-0.00471160882763747
6837.279290123855,-0.004719236976381754
6837.280289895778,-0.0047259798063154146
6837.281289667701,-0.0047318306013552575
6837.282289439623,-0.004736783002059696
6837.283289211546,-0.004740831011753534
6837.284288983468,-0.004743969002430431
6837.285288755392,-0.0047461917204234365
6837.286288527314,-0.004747494291834039
6837.287288299237,-0.004747872227710175
6837.28828807116,-0.004747321428963746
6837.289287843082,-0.004745838191018266
6837.290287615006,-0.004743419208177379
6837.291287386928,-0.004740061577705241
6837.292287158851,-0.004735762803609985
6837.293286930773,-0.0047305208001218145
6837.294286702696,-0.0047243338948576175
6837.2952864746185,-0.004717200831664393
6837.296286246542,-0.004709120773134138
6837.297286018465,-0.004700093302783312
6837.298285790387,-0.004690118426890367
6837.29928556231,-0.004679196575985285
6837.300285334232,-0.00466732860598547
6837.301285106156,-0.004654515798972772
6837.302284878078,-0.004640759863606849
6837.303284650001,-0.004626062935170547
6837.304284421924,-0.004610427575243421
6837.305284193846,-0.004593856771000001
6837.306283965769,-0.0045763539341298716
6837.307283737692,-0.004557922899377041
6837.308283509615,-0.004538567922696519
6837.309283281537,-0.004518293679026371
6837.31028305346,-0.004497105259673954
6837.311282825383,-0.004475008169315406
6837.312282597306,-0.0044520083226079
6837.313282369229,-0.004428112040414578
6837.314282141151,-0.004403326045642608
6837.315281913074,-0.004377657458695259
6837.316281684996,-0.004351113792539481
6837.31728145692,-0.00432370294739106
6837.318281228842,-0.004295433205020057
6837.319281000765,-0.004266313222679917
6837.320280772688,-0.004236352026664398
6837.32128054461,-0.004205559005497299
6837.322280316534,-0.004173943902760953
6837.323280088456,-0.0041415168095705595
6837.324279860379,-0.004108288156702634
6837.325279632301,-0.0040742687063871595
6837.326279404224,-0.004039469543774414
6837.3272791761465,-0.0040039020680888516
6837.32827894807,-0.003967577983483816
6837.3292787199925,-0.00393050928961221
6837.330278491915,-0.003892708271929549
6837.331278263838,-0.0038541874917470405
6837.33227803576,-0.003814959776053407
6837.333277807684,-0.0037750382071251817
6837.334277579606,-0.0037344361119460265
6837.335277351529,-0.0036931670514562826
6837.336277123452,-0.003651244809654445
6837.337276895374,-0.003608683382572581
6837.338276667298,-0.0035654969671478527
6837.33927643922,-0.0035216999500123766
6837.340276211143,-0.003477306896223556
6837.341275983065,-0.003432332537956857
6837.342275754988,-0.0033867917631826626
6837.343275526911,-0.0033406996043484063
6837.344275298834,-0.0032940712270866017
6837.3452750707565,-0.0032469219189686766
6837.346274842679,-0.003199267078323758
6837.347274614602,-0.0031511222031406537
6837.348274386524,-0.003102502880070365
6837.349274158448,-0.0030534247735454654
6837.35027393037,-0.0030039036150315973
6837.351273702293,-0.0029539551924252154
6837.352273474216,-0.0029035953396105195
6837.353273246138,-0.0028528399261872916
6837.354273018062,-0.0028017048473801217
6837.355272789984,-0.0027502060141382746
6837.356272561907,-0.002698359343434262
6837.357272333829,-0.0026461807487680638
6837.358272105752,-0.0025936861308828983
6837.3592718776745,-0.002540891368697478
6837.360271649598,-0.002487812310458832
6837.3612714215205,-0.002434464765118976
6837.362271193443,-0.00238086449393799
6837.363270965366,-0.0023270272023154202
6837.364270737288,-0.002272968531851301
6837.365270509212,-0.0022187040526375247
6837.366270281134,-0.002164249255779756
6837.367270053057,-0.002109619546149587
6837.36826982498,-0.002054830235366199
6837.369269596902,-0.0019998965350063965
6837.370269368826,-0.001944833550041562
6837.371269140748,-0.0018896562724997653
6837.372268912671,-0.001834379575351034
6837.373268684593,-0.0017790182066135924
6837.374268456516,-0.0017235867836787417
6837.375268228439,-0.0016680997878519561
6837.376268000362,-0.0016125715591076904
6837.3772677722845,-0.0015570162910553255
6837.378267544207,-0.0015014480261135899
6837.37926731613,-0.0014458806508907192
6837.380267088052,-0.001390327891767529
6837.381266859976,-0.0013348033106804825
6837.382266631898,-0.0012793203011017662
6837.383266403821,-0.0012238920842133048
6837.384266175744,-0.0011685317052715996
6837.385265947666,-0.0011132520301602325
6837.38626571959,-0.0010580657421268595
6837.387265491512,-0.0010029853387015127
6837.388265263435,-0.000948023128793048
6837.389265035357,-0.0008931912299605928
6837.39026480728,-0.0008385015658568708
6837.391264579203,-0.0007839658638403076
6837.392264351126,-0.0007295956527528488
6837.3932641230485,-0.0006754022608604574
6837.394263894971,-0.0006213968139532776
6837.395263666894,-0.0005675902336024489
6837.396263438817,-0.0005139932355705329
6837.39726321074,-0.0004606163283724819
6837.398262982662,-0.00040746981198404216
6837.399262754585,-0.0003545637766944611
6837.400262526508,-0.00030190810210034395
6837.40126229843,-0.0002495124562375082
6837.402262070354,-0.0001973862948476884
6837.403261842276,-0.00014553886077697415
6837.404261614199,-9.397918350290886e-05
6837.405261386121,-4.271607878724795e-05
6837.406261158044,8.241851548530875e-06
6837.407260929967,5.888621972775886e-05
6837.40826070189,0.00010920885200580238
6837.4092604738125,0.00015920178854247612
6837.410260245735,0.000208857283161956
6837.411260017658,0.00025816780300231905
6837.41225978958,0.00030712602805666107
6837.413259561504,0.00035572485060758656
6837.414259333426,0.00040395737455673587
6837.415259105349,0.0004518169146509193
6837.416258877272,0.000499296995606373
6837.417258649194,0.0005463913511326359
6837.418258421118,0.0005930939228575724
6837.41925819304,0.0006393988591551307
6837.420257964963,0.0006853005138775091
6837.421257736885,0.0007307934449935088
6837.422257508808,0.0007758724131349509
6837.423257280731,0.0008205323800531349
6837.424257052654,0.0008647685069874031
6837.4252568245765,0.000908576152947972
6837.426256596499,0.0009519508729153075
6837.427256368422,0.0009948884159584521
6837.428256140345,0.0010373847232748549
6837.429255912268,0.0010794359261544193
6837.43025568419,0.0011210383438706355
6837.431255456113,0.0011621884815018124
6837.432255228036,0.0012028830276855473
6837.433254999958,0.001243118852309653
6837.434254771882,0.0012828930041428094
6837.435254543804,0.0013222027084081871
6837.436254315727,0.0013610453643032468
6837.437254087649,0.0013994185424688293
6837.438253859572,0.0014373199824105685
6837.439253631495,0.0014747475898755653
6837.440253403418,0.001511699434187175
6837.4412531753405,0.0015481737455406855
6837.442252947263,0.0015841689122625914
6837.443252719186,0.001619683478036115
6837.444252491108,0.0016547161390955529
6837.445252263032,0.001689265741391955
6837.446252034954,0.001723331277732572
6837.447251806877,0.001756911884896425
6837.4482515788,0.0017900068407282947
6837.449251350722,0.001822615561213381
6837.450251122646,0.0018547375975348375
6837.451250894568,0.0018863726331163598
6837.452250666491,0.0019175204806519534
6837.453250438413,0.0019481810791249722
6837.454250210336,0.001978354490818487
6837.455249982259,0.0020080408983190333
6837.456249754182,0.002037240601515798
6837.4572495261045,0.0020659540145973217
6837.458249298027,0.0020941816630478133
6837.45924906995,0.002121924180645174
6837.460248841873,0.0021491823064627995
6837.461248613796,0.0021759568818772155
6837.462248385718,0.0022022488475835393
6837.463248157641,0.0022280592406207418
6837.464247929564,0.002253389191408627
6837.465247701486,0.0022782399207984367
6837.46624747341,0.002302612737138945
6837.467247245332,0.0023265090333598687
6837.468247017255,0.0023499302840743665
6837.469246789177,0.002372878042702321
6837.4702465611,0.0023953539386160324
6837.471246333023,0.00241735967430985
6837.472246104946,0.0024388970225951885
6837.4732458768685,0.002459967823822274
6837.474245648791,0.002480573983129883
6837.475245420714,0.002500717467724249
6837.476245192637,0.0025204003041882435
6837.47724496456,0.0025396245758218814
6837.478244736482,0.0025583924200151815
6837.479244508405,0.002576706025654399
6837.480244280328,0.0025945676305626506
6837.481244052251,0.0026119795189759464
6837.482243824174,0.0026289440190556445
6837.483243596096,0.002645463500438327
6837.484243368019,0.002661540371824091
6837.485243139941,0.002677177078604238
6837.486242911864,0.0026923761005293264
6837.487242683787,0.002707139949418546
6837.48824245571,0.002721471166911301
6837.4892422276325,0.0027353723222618776
6837.490241999555,0.0027488460101779784
6837.491241771478,0.0027618948487038485
6837.492241543401,0.00277452147714868
6837.493241315324,0.0027867285540609035
6837.494241087246,0.0027985187552489457
6837.495240859169,0.0028098947718489474
6837.496240631092,0.0028208593084398923
6837.497240403014,0.002831415081206509
6837.498240174938,0.002841564816150281
6837.49923994686,0.0028513112473488363
6837.500239718783,0.002860657115263968
6837.501239490705,0.0028696051650985025
6837.502239262628,0.002878158145202215
6837.503239034551,0.0028863188055269586
6837.504238806474,0.0028940898961311457
6837.5052385783965,0.002901474165733662
6837.506238350319,0.0029084743603172316
6837.507238122242,0.002915093221781182
6837.508237894165,0.0029213334866435487
6837.509237666088,0.002927197884792485
6837.51023743801,0.0029326891382870242
6837.511237209933,0.0029378099602073954
6837.512236981856,0.0029425630535551976
6837.513236753779,0.0029469511102038974
6837.514236525702,0.00295097680990018
6837.515236297624,0.002954642819316741
6837.516236069547,0.0029579517911571002
6837.517235841469,0.002960906363312967
6837.518235613392,0.0029635091580745916
6837.519235385315,0.0029657627813944273
6837.520235157238,0.0029676698222043103
6837.5212349291605,0.002969232851786254
6837.522234701083,0.0029704544231968946
6837.523234473006,0.00297133707074561
6837.524234244929,0.0029718833095263458
6837.525234016852,0.0029720956350032307
6837.526233788774,0.0029719765226501626
6837.527233560697,0.002971528427644668
6837.52823333262,0.002970753784616458
6837.529233104543,0.0029696550074512686
6837.530232876466,0.002968234489150692
6837.531232648388,0.00296649460174883
6837.532232420311,0.002964437696286671
6837.533232192233,0.0029620661028451484
6837.534231964157,0.0029593821306378955
6837.535231736079,0.00295638806816467
6837.536231508002,0.0029530861834263897
6837.5372312799245,0.0029494787242026386
6837.538231051847,0.002945567918392377
6837.53923082377,0.002941355974418462
6837.540230595693,0.002936845081696461
6837.541230367616,0.002932037411168089
6837.542230139538,0.0029269351158994154
6837.543229911461,0.0029215403317438384
6837.544229683384,0.0029158551780696196
6837.545229455307,0.002909881758551565
6837.54622922723,0.002903622162026204
6837.547228999152,0.0028970784634095724
6837.548228771075,0.0028902527246764424
6837.549228542997,0.0028831469958995543
6837.55022831492,0.00287576331634716
6837.551228086843,0.0028681037156369172
6837.552227858766,0.0028601702149439476
6837.5532276306885,0.0028519648282606513
6837.554227402611,0.0028434895637056484
6837.555227174534,0.0028347464248790677
6837.556226946457,0.00282573741226125
6837.55722671838,0.0028164645246518513
6837.558226490302,0.002806929760646266
6837.559226262225,0.0027971351201462455
6837.560226034148,0.0027870826059015696
6837.561225806071,0.002776774225079588
6837.562225577994,0.0027662119908594186
6837.563225349916,0.002755397924047557
6837.564225121839,0.002744334054711578
6837.565224893761,0.0027330224238285485
6837.566224665685,0.002721465084944696
6837.567224437607,0.0027096641058427973
6837.56822420953,0.002697621570213728
6837.5692239814525,0.002685339579328611
6837.570223753375,0.0026728202537080427
6837.571223525298,0.0026600657347849556
6837.572223297221,0.002647078186557755
6837.573223069144,0.002633859797230482
6837.574222841066,0.00262041278083684
6837.575222612989,0.0026067393788450424
6837.576222384912,0.002592841861740511
6837.577222156835,0.002578722530583559
6837.578221928758,0.0025643837185393087
6837.57922170068,0.0025498277923771615
6837.580221472603,0.002535057153937267
6837.581221244525,0.0025200742415614923
6837.582221016448,0.002504881531486486
6837.583220788371,0.0024894815391964956
6837.584220560294,0.002473876820733694
6837.5852203322165,0.0024580699739638347
6837.586220104139,0.002442063639795157
6837.587219876062,0.002425860503348548
6837.588219647985,0.0024094632950770597
6837.589219419908,0.0023928747918329674
6837.59021919183,0.0023760978178806497
6837.591218963753,0.002359135245853641
6837.592218735676,0.0023419899976542765
6837.593218507599,0.0023246650452944146
6837.594218279522,0.0023071634116757543
6837.595218051444,0.0022894881713083305
6837.596217823367,0.0022716424509658106
6837.597217595289,0.0022536294302763042
6837.598217367213,0.0022354523422474957
6837.599217139135,0.002217114473725061
6837.600216911058,0.002198619165783481
6837.6012166829805,0.002179969814048534
6837.602216454903,0.002161169868950917
6837.603216226826,0.0021422228359106116
6837.604215998749,0.0021231322754517823
6837.605215770672,0.0021039018032481876
6837.606215542594,0.0020845350900992455
6837.607215314517,0.002065035861837076
6837.60821508644,0.0020454078991649907
6837.609214858363,0.0020256550374280475
6837.610214630286,0.002005781166316413
6837.611214402208,0.001985790229502385
6837.612214174131,0.0019656862242119913
6837.613213946053,0.0019454732007321313
6837.614213717977,0.001925155261854216
6837.615213489899,0.0019047365622552619
6837.616213261822,0.0018842213078173443
6837.6172130337445,0.001863613754886283
6837.618212805667,0.0018429182094703894
6837.619212577591,0.001822139026380109
6837.620212349513,0.0018012806083094212
6837.621212121436,0.0017803474048599228
6837.622211893358,0.0017593439115085841
6837.623211665281,0.0017382746685202478
6837.624211437204,0.0017171442598059843
6837.625211209127,0.0016959573117284578
6837.62621098105,0.001674718491855471
6837.627210752972,0.0016534325076628784
6837.628210524895,0.0016321041051880775
6837.629210296817,0.001610738067635303
6837.630210068741,0.0015893392139339454
6837.631209840663,0.0015679123972511008
6837.632209612586,0.0015464625034595108
6837.6332093845085,0.0015249944495619755
6837.634209156431,0.001503513182073232
6837.635208928354,0.0014820236753602001
6837.636208700277,0.001460530929941418
6837.6372084722,0.0014390399707464412
6837.638208244122,0.0014175558453359595
6837.639208016045,0.0013960836220833818
6837.640207787968,0.0013746283883186623
6837.641207559891,0.0013531952484351904
6837.642207331814,0.001331789321960618
6837.643207103736,0.0013104157415925917
6837.644206875659,0.0012890796512004454
6837.645206647581,0.0012677862037939905
6837.646206419505,0.001246540559460608
6837.647206191427,0.0012253478832719195
6837.64820596335,0.0012042133431613999
6837.6492057352725,0.0011831421077744253
6837.650205507195,0.0011621393442923923
6837.651205279119,0.0011412102162327055
6837.652205051041,0.001120359881226575
6837.653204822964,0.0010995934887766928
6837.654204594886,0.0010789161779969625
6837.655204366809,0.0010583330753365502
6837.656204138732,0.0010378492922905923
6837.657203910655,0.0010174699230999424
6837.658203682578,0.000997200042442362
6837.6592034545,0.0009770447031175603
6837.660203226423,0.0009570089337284673
6837.661202998345,0.0009370977363610861
6837.662202770269,0.0009173160842652028
6837.663202542191,0.0008976689195381763
6837.664202314114,0.000878161150813953
6837.6652020860365,0.0008587976509594065
6837.666201857959,0.0008395832547800461
6837.667201629882,0.0008205227567371123
6837.668201401805,0.0008016209086780502
6837.669201173728,0.0007828824175823396
6837.67020094565,0.0007643119433246544
6837.671200717573,0.0007459140964573233
6837.672200489496,0.000727693436014048
6837.673200261419,0.0007096544673367984
6837.674200033342,0.0006918016399277357
6837.675199805264,0.0006741393453279087
6837.676199577187,0.0006566719150243405
6837.677199349109,0.0006394036183869742
6837.678199121033,0.0006223386606367753
6837.679198892955,0.000605481180846117
6837.680198664878,0.0005888352499723796
6837.6811984368005,0.0005724048689254778
6837.682198208723,0.0005561939666698041
6837.683197980647,0.0005402063983608324
6837.684197752569,0.0005244459435164105
6837.685197524492,0.0005089163042225944
6837.686197296414,0.0004936211033737814
6837.687197068337,0.000478563882946887
6837.68819684026,0.00046374810230938025
6837.689196612183,0.0004491771365611349
6837.690196384106,0.0004348542749102303
6837.691196156028,0.00042078271908303305
6837.692195927951,0.0004069655817690647
6837.693195699873,0.0003934058851013055
6837.694195471797,0.000380106559172675
6837.695195243719,0.00036707044058946383
6837.696195015642,0.00035430027106247714
6837.6971947875645,0.0003417986960366061
6837.698194559487,0.0003295682633594997
6837.699194331411,0.00031761142198998243
6837.700194103333,0.00030593052074686034
6837.701193875256,0.00029452780709877594
6837.702193647178,0.0002834054259958161
6837.703193419101,0.0002725654187436439
6837.704193191024,0.00026200972192102275
6837.705192962947,0.00025174016634172205
6837.70619273487,0.00024175847606190828
6837.707192506792,0.00023206626743422213
6837.708192278715,0.00022266504820979833
6837.709192050637,0.0002135562166895143
6837.710191822561,0.0002047410609257687
6837.711191594483,0.00019622075797611218
6837.712191366406,0.00018799637321008827
6837.7131911383285,0.00018006885967068753
6837.714190910251,0.0001724390574918635
6837.715190682175,0.00016510769337359848
6837.716190454097,0.00015807538011602953
6837.71719022602,0.0001513426162141527
6837.718189997942,0.0001449097855146009
6837.719189769865,0.00013877715693593533
6837.720189541788,0.000132944884253792
6837.721189313711,0.00012741300595208436
6837.7221890856335,0.00012218144514127723
6837.723188857556,0.0001172500095445225
6837.724188629479,0.00011261839155219174
6837.725188401401,0.000108286168345074
6837.726188173325,0.00010425280208625117
6837.727187945247,0.00010051764018143252
6837.72818771717,9.707991560734133e-05
6837.7291874890925,9.393874730760674e-05
6837.730187261015,9.109314065554022e-05
6837.731187032939,8.854198798316722e-05
6837.732186804861,8.62840691759288e-05
6837.733186576784,8.43180523325419e-05
6837.734186348706,8.264249448959269e-05
6837.735186120629,8.125584241052305e-05
6837.736185892552,8.015643343874926e-05
6837.737185664475,7.934249641471761e-05
6837.7381854363975,7.881215265674978e-05
6837.73918520832,7.856341700556154e-05
6837.740184980243,7.85941989323547e-05
6837.741184752165,7.890230371038076e-05
6837.742184524089,7.948543364985091e-05
6837.743184296011,8.034118939601169e-05
6837.744184067934,8.1467071290116e-05
6837.7451838398565,8.286048079290386e-05
6837.746183611779,8.451872197007695e-05
6837.747183383703,8.643900303911288e-05
6837.748183155625,8.861843797662282e-05
6837.749182927548,9.10540481853176e-05
6837.75018269947,9.374276421952475e-05
6837.751182471393,9.668142756810133e-05
6837.752182243316,9.986679249351587e-05
6837.753182015239,0.0001032955279258142
6837.7541817871615,0.00010696421941012372
6837.755181559084,0.00011086937110627384
6837.756181331007,0.0001150074078390095
6837.75718110293,0.00011937467719715514
6837.758180874853,0.0001239674516799528
6837.759180646775,0.00012878193088866112
6837.760180418698,0.00013381424376136423
6837.7611801906205,0.00013906045084880966
6837.762179962543,0.00014451654662897898
6837.763179734467,0.00015017846185800114
6837.764179506389,0.0001560420659549526
6837.765179278312,0.0001621031694180588
6837.766179050234,0.0001683575262698207
6837.767178822157,0.00017480083652864076
6837.76817859408,0.0001814287487046028
6837.769178366003,0.00018823686231715563
6837.7701781379255,0.000195220730432538
6837.771177909848,0.00020237586221885258
6837.772177681771,0.0002096977255167609
6837.773177453693,0.00021718174942383906
6837.774177225617,0.00022482332689072437
6837.775176997539,0.0002326178173273012
6837.776176769462,0.0002405605492173137
6837.7771765413845,0.0002486468227399485
6837.778176313307,0.0002568719123970827
6837.779176085231,0.00026523106964503447
6837.780175857153,0.00027371952552977233
6837.781175629076,0.00028233249332463656
6837.782175400998,0.0002910651711696951
6837.783175172921,0.00029991274471189577
6837.784174944844,0.0003088703897451901
6837.785174716767,0.0003179332748497901
6837.7861744886895,0.00032709656402969277
6837.787174260612,0.00033635541934756854
6837.788174032535,0.0003457050035560807
6837.789173804458,0.0003551404827246776
6837.790173576381,0.0003646570288608922
6837.791173348303,0.00037424982252519065
6837.792173120226,0.00038391405543843163
6837.7931728921485,0.0003936449330810054
6837.794172664071,0.0004034376772826906
6837.795172435995,0.00041328752880217244
6837.796172207917,0.0004231897498950203
6837.79717197984,0.00043313962686876564
6837.798171751762,0.0004431324726236006
6837.799171523685,0.00045316362917716097
6837.800171295608,0.0004632284701718491
6837.801171067531,0.00047332240336316365
6837.8021708394535,0.000483440873087506
6837.803170611376,0.0004935793627079146
6837.804170383299,0.0005037333970361429
6837.805170155221,0.000513898544729455
6837.806169927145,0.0005240704206604804
6837.807169699067,0.0005342446882584715
6837.80816947099,0.0005444170618203412
6837.8091692429125,0.0005545833087899301
6837.810169014835,0.0005647392520040378
6837.811168786759,0.0005748807719038344
6837.812168558681,0.0005850038087103156
6837.813168330604,0.0005951043645624517
6837.814168102526,0.0006051785056165962
6837.815167874449,0.0006152223641055733
6837.816167646372,0.0006252321403556795
6837.817167418295,0.0006352041047596496
6837.8181671902175,0.0006451345997034672
6837.81916696214,0.0006550200414447701
6837.820166734063,0.0006648569219405209
6837.821166505986,0.000674641810621587
6837.822166277909,0.0006843713561119147
6837.823166049831,0.0006940422878900654
6837.824165821754,0.0007036514178910086
6837.8251655936765,0.0007131956420461949
6837.826165365599,0.0007226719417600531
6837.827165137523,0.0007320773853211662
6837.828164909445,0.0007414091292464544
6837.829164681368,0.0007506644195567529
6837.83016445329,0.0007598405929821798
6837.831164225213,0.0007689350780956939
6837.832163997136,0.0007779453963732443
6837.833163769059,0.0007868691631789478
6837.8341635409815,0.0007957040886738137
6837.835163312904,0.0008044479786466811
6837.836163084827,0.0008130987352662471
6837.83716285675,0.0008216543577533272
6837.838162628673,0.0008301129429727888
6837.839162400595,0.0008384726859449013
6837.840162172518,0.0008467318802761236
6837.8411619444405,0.0008548889185095916
6837.842161716364,0.0008629422923957519
6837.843161488287,0.0008708905930837157
6837.844161260209,0.0008787325112340072
6837.845161032132,0.0008864668370534791
6837.846160804054,0.0008940924602532732
6837.847160575977,0.0009016083699308306
6837.8481603479,0.0009090136543770843
6837.849160119823,0.0009163075008100899
6837.8501598917455,0.0009234891950364509
6837.851159663668,0.0009305581210419805
6837.852159435591,0.0009375137605131077
6837.853159207514,0.0009443556922905872
6837.854158979437,0.0009510835917571123
6837.855158751359,0.000957697230160446
6837.856158523282,0.0009641964738736867
6837.8571582952045,0.0009705812835942541
6837.858158067127,0.0009768517134831217
6837.859157839051,0.0009830079102457019
6837.860157610973,0.000989050112155636
6837.861157382896,0.0009949786480225556
6837.862157154818,0.0010007939361046955
6837.863156926741,0.0010064964829670606
6837.864156698664,0.0010120868822857138
6837.865156470587,0.0010175658135986366
6837.8661562425095,0.0010229340410035344
6837.867156014432,0.0010281924118029197
6837.868155786355,0.0010333418550967871
6837.869155558278,0.001038383380323226
6837.870155330201,0.0010433180757473443
6837.871155102123,0.0010481471068989427
6837.872154874046,0.0010528717149594741
6837.8731546459685,0.001057493215098947
6837.874154417892,0.0010620129947635924
6837.875154189815,0.0010664325119152977
6837.876153961737,0.0010707532932240139
6837.87715373366,0.001074976932214545
6837.878153505582,0.0010791050873692892
6837.879153277505,0.0010831394801885828
6837.880153049428,0.00108708189321027
6837.881152821351,0.0010909341679899856
6837.8821525932735,0.0010946982030434376
6837.883152365196,0.0010983759517517598
6837.884152137119,0.0011019694202307902
6837.885151909042,0.0011054806651649629
6837.886151680965,0.0011089117916063835
6837.887151452887,0.0011122649507395923
6837.88815122481,0.0011155423376125037
6837.8891509967325,0.0011187461888340336
6837.890150768656,0.001121878780238972
6837.891150540579,0.0011249424245207181
6837.892150312501,0.001127939468832577
6837.893150084424,0.0011308722923584215
6837.894149856346,0.0011337433038536681
6837.89514962827,0.0011365549391576496
6837.896149400192,0.0011393096586785987
6837.897149172115,0.0011420099448525482
6837.8981489440375,0.0011446582995775052
6837.89914871596,0.0011472572416242927
6837.900148487883,0.0011498093040254738
6837.901148259806,0.001152317031443829
6837.902148031729,0.0011547829775219222
6837.903147803651,0.0011572097022143784
6837.904147575574,0.0011595997691045703
6837.9051473474965,0.0011619557427074534
6837.90614711942,0.0011642801857603222
6837.907146891343,0.0011665756565032578
6837.908146663265,0.0011688447059510735
6837.909146435188,0.001171089875158653
6837.91014620711,0.0011733136924817389
6837.911145979033,0.00117551867083548
6837.912145750956,0.0011777073049533157
6837.913145522879,0.0011798820686490543
6837.9141452948015,0.0011820454120852612
6837.915145066724,0.0011841997590512912
6837.916144838647,0.0011863475042544634
6837.91714461057,0.0011884910106279476
6837.918144382493,0.001190632606658887
6837.919144154415,0.0011927745837401287
6837.920143926338,0.001194919193548705
6837.9211436982605,0.0011970686454539552
6837.922143470184,0.00119922510395794
6837.923143242107,0.0012013906861705855
6837.924143014029,0.0012035674593217941
6837.925142785952,0.0012057574383125985
6837.926142557874,0.0012079625833072514
6837.927142329798,0.0012101847973679818
6837.92814210172,0.0012124259241339391
6837.929141873643,0.0012146877455456299
6837.9301416455655,0.0012169719796159028
6837.931141417488,0.001219280278248292
6837.932141189411,0.0012216142251032863
6837.933140961334,0.0012239753335128954
6837.934140733257,0.0012263650444437255
6837.935140505179,0.0012287847245086862
6837.936140277102,0.0012312356640274127
6837.9371400490245,0.0012337190751354845
6837.938139820948,0.0012362360899425356
6837.939139592871,0.00123878775873933
6837.940139364793,0.0012413750482538424
6837.941139136716,0.0012439988399563003
6837.942138908638,0.0012466599284130756
6837.943138680561,0.0012493590196892594
6837.944138452484,0.0012520967297997175
6837.945138224407,0.0012548735832084155
6837.9461379963295,0.001257690011375787
6837.947137768252,0.0012605463513538898
6837.948137540175,0.0012634428444290601
6837.949137312098,0.001266379634811712
6837.950137084021,0.001269356768372863
6837.951136855943,0.0012723741914268854
6837.952136627866,0.0012754317495598981
6837.9531363997885,0.0012785291865031296
6837.954136171712,0.0012816661430505327
6837.955135943635,0.001284842156019949
6837.956135715557,0.0012880566572572108
6837.95713548748,0.0012913089726827272
6837.958135259402,0.001294598321380319
6837.959135031326,0.0012979238147282882
6837.960134803248,0.001301284455572941
6837.961134575171,0.0013046791374449725
6837.9621343470935,0.0013081066438192807
6837.963134119016,0.0013115656474188692
6837.964133890939,0.0013150547095635626
6837.965133662862,0.00131857227956428
6837.966133434785,0.0013221166941636356
6837.967133206707,0.0013256861770236644
6837.96813297863,0.0013292788382615066
6837.9691327505525,0.0013328926740339355
6837.970132522476,0.0013365255661716654
6837.971132294399,0.0013401752818644151
6837.972132066321,0.001343839473397739
6837.973131838244,0.0013475156779426947
6837.974131610166,0.0013512013173994518
6837.97513138209,0.0013548936982960144
6837.976131154012,0.0013585900117432776
6837.977130925935,0.0013622873334476681
6837.9781306978575,0.0013659826237826089
6837.97913046978,0.001369672727919979
6837.980130241704,0.0013733543760226137
6837.981130013626,0.0013770241834987428
6837.982129785549,0.0013806786513191234
6837.983129557471,0.0013843141663975368
6837.984129329394,0.001387927002035329
6837.9851291013165,0.0013915133184307237
6837.98612887324,0.0013950691632537377
6837.987128645163,0.0013985904722876028
6837.988128417085,0.0014020730701375793
6837.989128189008,0.0014055126710079283
6837.99012796093,0.0014089048795475534
6837.991127732854,0.0014122451917644807
6837.992127504776,0.0014155289960089592
6837.993127276699,0.0014187515740245835
6837.9941270486215,0.0014219081020665273
6837.995126820544,0.0014249936520857136
6837.996126592467,0.0014280031929775787
6837.99712636439,0.0014309315918939747
6837.998126136313,0.001433773615616715
6837.999125908235,0.0014365239319912807
6838.000125680158,0.0014391771114192385
6838.0011254520805,0.0014417276284079737
6838.002125224004,0.001444169863176393
6838.003124995927,0.001446498103315267
6838.004124767849,0.0014487065455009113
6838.005124539772,0.0014507892972609184
6838.006124311694,0.0014527403787907103
6838.007124083618,0.0014545537248197493
6838.00812385554,0.0014562231865264089
6838.009123627463,0.001457742533500712
6838.0101233993855,0.0014591054557544399
6838.011123171308,0.0014603055657784088
6838.012122943232,0.001461336400646996
6838.013122715154,0.0014621914241701988
6838.014122487077,0.0014628640290936573
6838.015122258999,0.0014633475393471278
6838.016122030922,0.0014636352123419032
6838.0171218028445,0.0014637202413176106
6838.018121574768,0.0014635957577386956
6838.019121346691,0.0014632548337407542
6838.020121118613,0.001462690484626694
6838.021120890536,0.0014618956714125685
6838.022120662458,0.0014608633034228283
6838.023120434382,0.0014595862409347096
6838.024120206304,0.0014580572978714523
6838.025119978227,0.0014562692445440066
6838.0261197501495,0.0014542148104408235
6838.027119522072,0.0014518866870652121
6838.028119293995,0.0014492775308196425
6838.029119065918,0.0014463799659362468
6838.030118837841,0.0014431865874527017
6838.031118609763,0.001439689964232615
6838.032118381686,0.0014358826420295325
6838.033118153609,0.001431757146593674
6838.034117925532,0.0014273059868204947
6838.035117697455,0.0014225216579401496
6838.036117469377,0.0014173966447468818
6838.0371172413,0.00141192342486727
6838.038117013222,0.001406094472066166
6838.039116785146,0.0013999022595890334
6838.040116557068,0.0013933392635393257
6838.041116328991,0.0013863979662894963
6838.0421161009135,0.0013790708599242334
6838.043115872836,0.0013713504497145932
6838.04411564476,0.0013632292576217999
6838.045115416682,0.001354699825829674
6838.046115188605,0.0013457547203048611
6838.047114960527,0.0013363865343842824
6838.04811473245,0.0013265878923895288
6838.0491145043725,0.0013163514532681865
6838.050114276296,0.0013056699142623268
6838.051114048219,0.0012945360146045222
6838.052113820141,0.001282942539241782
6838.053113592064,0.0012708823225876938
6838.054113363986,0.001258348252302872
6838.05511313591,0.0012453332731035415
6838.056112907832,0.001231830390597785
6838.057112679755,0.0012178326751486467
6838.0581124516775,0.0012033332657629652
6838.0591122236,0.0011883253740045013
6838.060111995524,0.0011728022879296536
6838.061111767446,0.0011567573760438677
6838.062111539369,0.0011401840912767486
6838.063111311291,0.0011230759749739124
6838.064111083214,0.0011054266609037482
6838.065110855137,0.0010872298792774504
6838.06611062706,0.0010684794607809123
6838.067110398983,0.0010491693406172982
6838.068110170905,0.0010292935625593137
6838.069109942828,0.001008846283010355
6838.07010971475,0.000987821775073787
6838.071109486674,0.0009662144326295614
6838.072109258596,0.0009440187744172348
6838.073109030519,0.0009212294481242508
6838.0741088024415,0.000897841234478155
6838.075108574364,0.0008738490513412982
6838.076108346288,0.0008492479578065458
6838.07710811821,0.0008240331582925455
6838.078107890133,0.0007982000066371795
6838.079107662055,0.0007717440101879346
6838.080107433978,0.0007446608338880384
6838.0811072059005,0.0007169463043573361
6838.082106977824,0.0006885964139670023
6838.083106749747,0.0006596073249072968
6838.084106521669,0.0006299753732476165
6838.085106293592,0.0005996970729880535
6838.086106065514,0.0005687691201015088
6838.087105837438,0.0005371883965651503
6838.08810560936,0.0005049519743797001
6838.089105381283,0.00047205711957473397
6838.0901051532055,0.00043850129619791764
6838.091104925128,0.00040428217028591005
6838.092104697052,0.00036939761381451174
6838.093104468974,0.0003338457086255474
6838.094104240897,0.00029762475032793436
6838.095104012819,0.0002607332521703938
6838.096103784742,0.00022316994888329234
6838.097103556665,0.00018493380048713713
6838.098103328588,0.00014602399606529172
6838.099103100511,0.00010643995749854721
6838.100102872433,6.618134315928154e-05
6838.101102644356,2.5248051563043016e-05
6838.102102416278,-1.635977502453659e-05
6838.103102188202,-5.864174702760213e-05
6838.104101960124,-0.00010159722404891306
6838.105101732047,-0.00014522531141003634
6838.1061015039695,-0.00018952485674545992
6838.107101275892,-0.00023449444665333668
6838.108101047816,-0.0002801324034056449
6838.109100819738,-0.0003264367817205699
6838.110100591661,-0.00037340536559990614
6838.111100363583,-0.00042103566523425825
6838.112100135506,-0.00046932491397880943
6838.113099907429,-0.0005182700654024343
6838.114099679352,-0.0005678677904129928
6838.115099451275,-0.0006181144744617548
6838.116099223197,-0.0006690062148300371
6838.11709899512,-0.0007205388180012676
6838.118098767043,-0.0007727077971218009
6838.119098538966,-0.0008255083695538672
6838.120098310888,-0.0008789354545240358
6838.121098082811,-0.0009329836708704901
6838.1220978547335,-0.0009876473348922304
6838.123097626656,-0.0010429204583030844
6838.12409739858,-0.0010987967462931308
6838.125097170502,-0.0011552695956998885
6838.126096942425,-0.001212332093291411
6838.127096714347,-0.0012699770141633045
6838.12809648627,-0.0013281968202516867
6838.129096258193,-0.0013869836589642118
6838.130096030116,-0.0014463293619314634
6838.131095802039,-0.0015062254438812093
6838.132095573961,-0.0015666631016381788
6838.133095345884,-0.0016276332132521575
6838.134095117806,-0.001689126337257301
6838.13509488973,-0.0017511327120656357
6838.136094661652,-0.0018136422554977402
6838.137094433575,-0.0018766445644536015
6838.1380942054975,-0.0019401289147266197
6838.13909397742,-0.0020040842609637317
6838.140093749344,-0.0020684992367746096
6838.141093521266,-0.002133362154992872
6838.142093293189,-0.0021986610080922202
6838.143093065111,-0.0022643834687603942
6838.144092837034,-0.002330516890633831
6838.145092608957,-0.0023970483091958895
6838.14609238088,-0.0024639644428414995
6838.1470921528025,-0.0025312516941110334
6838.148091924725,-0.0025988961510961714
6838.149091696648,-0.002666883589020479
6838.150091468571,-0.0027351994719974314
6838.151091240494,-0.0028038289549686866
6838.152091012416,-0.00287275688582555
6838.153090784339,-0.002941967807716694
6838.1540905562615,-0.003011445961545363
6838.155090328184,-0.0030811752886593597
6838.156090100108,-0.003151139433737222
6838.15708987203,-0.0032213217478740713
6838.158089643953,-0.0032917052918707106
6838.159089415875,-0.003362272839729631
6838.160089187798,-0.003433006882361556
6838.161088959721,-0.0035038896315060524
6838.162088731644,-0.003574903023869446
6838.163088503567,-0.003646028725482872
6838.164088275489,-0.0037172481362827453
6838.165088047412,-0.003788542394915261
6838.166087819334,-0.003859892383765793
6838.167087591258,-0.00393127873421329
6838.16808736318,-0.004002681832109065
6838.169087135103,-0.004074081823478759
6838.1700869070255,-0.0041454586204457584
6838.171086678948,-0.004216791907373904
6838.172086450872,-0.004288061147227002
6838.173086222794,-0.004359245588142327
6838.174085994717,-0.004430324270215108
6838.175085766639,-0.004501276032490784
6838.176085538562,-0.004572079520161611
6838.177085310485,-0.004642713191964063
6838.178085082408,-0.004713155327773218
6838.1790848543305,-0.004783384036390246
6838.180084626253,-0.004853377263518985
6838.181084398176,-0.004923112799927632
6838.182084170099,-0.004992568289791674
6838.183083942022,-0.005061721239214403
6838.184083713944,-0.005130549024921638
6838.185083485867,-0.005199028903127589
6838.1860832577895,-0.005267138018569075
6838.187083029712,-0.005334853413705468
6838.188082801636,-0.0054021520380817326
6838.189082573558,-0.005469010757851905
6838.190082345481,-0.005535406365460128
6838.191082117403,-0.005601315589476216
6838.192081889326,-0.005666715104582524
6838.193081661249,-0.0057315815417085915
6838.194081433172,-0.005795891498309755
6838.195081205095,-0.005859621548785614
6838.196080977017,-0.005922748255034
6838.19708074894,-0.005985248177135933
6838.198080520863,-0.006047097884166953
6838.199080292786,-0.006108273965130258
6838.200080064708,-0.006168753040007183
6838.201079836631,-0.006228511770920668
6838.2020796085535,-0.006287526873407423
6838.203079380477,-0.006345775127794519
6838.2040791524,-0.006403233390676088
6838.205078924322,-0.006459878606485648
6838.206078696245,-0.006515687819159458
6838.207078468167,-0.006570638183886201
6838.20807824009,-0.006624706978938093
6838.209078012013,-0.006677871617578502
6838.210077783936,-0.006730109660040982
6838.2110775558585,-0.006781398825574466
6838.212077327781,-0.006831717004549195
6838.213077099704,-0.006881042270617828
6838.214076871627,-0.006929352892926117
6838.21507664355,-0.006976627348367484
6838.216076415472,-0.00702284433387581
6838.217076187395,-0.007067982778750736
6838.2180759593175,-0.007112021857009722
6838.21907573124,-0.007154940999761096
6838.220075503164,-0.007196719907592234
6838.221075275086,-0.007237338562966961
6838.222075047009,-0.0072767772426261266
6838.223074818931,-0.007315016529985101
6838.224074590854,-0.007352037327521743
6838.225074362777,-0.007387820869148045
6838.2260741347,-0.007422348732558241
6838.227073906623,-0.00745560285154572
6838.228073678545,-0.0074875655282805745
6838.229073450468,-0.007518219445539133
6838.230073222391,-0.007547547678876379
6838.231072994314,-0.007575533708731795
6838.232072766236,-0.007602161432458861
6838.233072538159,-0.007627415176268148
6838.2340723100815,-0.0076512797070738105
6838.235072082005,-0.007673740244233028
6838.236071853928,-0.007694782471167784
6838.23707162585,-0.00771439254685816
6838.238071397773,-0.007732557117196036
6838.239071169695,-0.007749263326187887
6838.240070941618,-0.007764498826995034
6838.241070713541,-0.0077782517927995724
6838.242070485464,-0.007790510927483984
6838.2430702573865,-0.0078012654761124125
6838.244070029309,-0.0078105052352016174
6838.245069801232,-0.00781822056276971
6838.246069573155,-0.007824402388150879
6838.247069345078,-0.007829042221564345
6838.248069117,-0.007832132163425725
6838.249068888923,-0.007833664913388834
6838.2500686608455,-0.007833633779105783
6838.251068432769,-0.007832032684692984
6838.252068204692,-0.007828856178890469
6838.253067976614,-0.0078240994429017
6838.254067748537,-0.007817758297900924
6838.255067520459,-0.007809829212195095
6838.256067292383,-0.0078003093080275115
6838.257067064305,-0.00778919636801048
6838.258066836228,-0.0077764888411746514
6838.259066608151,-0.007762185848623073
6838.260066380073,-0.0077462871887783715
6838.261066151996,-0.007728793342211877
6838.262065923919,-0.007709705476043854
6838.263065695842,-0.007689025447904279
6838.264065467764,-0.007666755809443956
6838.265065239687,-0.007642899809386056
6838.2660650116095,-0.007617461396108525
6838.267064783533,-0.007590445219748178
6838.268064555456,-0.007561856633817668
6838.269064327378,-0.007531701696326913
6838.270064099301,-0.007499987170400934
6838.271063871223,-0.007466720524386381
6838.272063643146,-0.007431909931439342
6838.273063415069,-0.007395564268587317
6838.274063186992,-0.00735769311525857
6838.2750629589145,-0.007318306751272509
6838.276062730837,-0.007277416154285181
6838.27706250276,-0.007235032996684574
6838.278062274683,-0.007191169641930972
6838.279062046606,-0.007145839140338323
6838.280061818528,-0.007099055224293227
6838.281061590451,-0.007050832302908867
6838.2820613623735,-0.007001185456111797
6838.283061134297,-0.006950130428160034
6838.28406090622,-0.006897683620591305
6838.285060678142,-0.006843862084600695
6838.286060450065,-0.006788683512847386
6838.287060221987,-0.006732166230690658
6838.288059993911,-0.006674329186855988
6838.289059765833,-0.006615191943532821
6838.290059537756,-0.006554774665906595
6838.291059309679,-0.006493098111128629
6838.292059081601,-0.006430183616728789
6838.293058853524,-0.006366053088477294
6838.294058625447,-0.00630072898770371
6838.29505839737,-0.0062342343180830425
6838.296058169292,-0.006166592611900938
6838.297057941215,-0.006097827915812196
6838.2980577131375,-0.006027964776109062
6838.299057485061,-0.005957028223518072
6838.300057256984,-0.00588504375754658
6838.301057028906,-0.005812037330402406
6838.302056800829,-0.005738035330512351
6838.303056572751,-0.0056630645656674155
6838.304056344674,-0.005587152245824425
6838.305056116597,-0.005510325965595204
6838.30605588852,-0.005432613686455576
6838.3070556604425,-0.005354043718707076
6838.308055432365,-0.005274644703224569
6838.309055204288,-0.005194445593022868
6838.310054976211,-0.005113475634675074
6838.311054748134,-0.005031764349614749
6838.312054520056,-0.004949341515353113
6838.313054291979,-0.004866237146641435
6838.3140540639015,-0.004782481476607531
6838.315053835825,-0.004698104937893995
6838.316053607748,-0.004613138143824445
6838.31705337967,-0.004527611869622806
6838.318053151593,-0.004441557033709411
6838.319052923515,-0.004355004679096444
6838.320052695439,-0.004267985954903943
6838.321052467361,-0.004180532098016195
6838.322052239284,-0.004092674414896825
6838.323052011207,-0.004004444263579379
6838.324051783129,-0.003915873035848595
6838.325051555052,-0.0038269921396261075
6838.326051326975,-0.003737832981572906
6838.327051098898,-0.0036484269499195802
6838.32805087082,-0.003558805397534263
6838.329050642743,-0.003468999625237159
6838.3300504146655,-0.0033790408653696603
6838.331050186589,-0.003288960265625185
6838.332049958512,-0.003198788873148063
6838.333049730434,-0.0031085576189059604
6838.334049502357,-0.003018297302340515
6838.335049274279,-0.002928038576300063
6838.336049046203,-0.0028378119322575324
6838.337048818125,-0.0027476476858158674
6838.338048590048,-0.0026575759625026064
6838.3390483619705,-0.002567626683854655
6838.340048133893,-0.0024778295537937864
6838.341047905817,-0.0023882140452931044
6838.342047677739,-0.0022988093873345774
6838.343047449662,-0.0022096445521577438
6838.344047221584,-0.002120748242799727
6838.345046993507,-0.0020321488809267076
6838.3460467654295,-0.0019438745949569756
6838.347046537353,-0.0018559532084756114
6838.348046309276,-0.001768412228940811
6838.349046081198,-0.001681278836681871
6838.350045853121,-0.0015945798741888995
6838.351045625043,-0.0015083418356944035
6838.352045396967,-0.0014225908570469842
6838.353045168889,-0.0013373527058774854
6838.354044940812,-0.0012526527720580214
6838.355044712735,-0.0011685160584544109
6838.356044484657,-0.0010849671719726287
6838.35704425658,-0.0010020303148999571
6838.358044028503,-0.0009197292765415337
6838.359043800426,-0.0008380874251529316
6838.360043572348,-0.0007571277001692727
6838.361043344271,-0.0006768726047311721
6838.3620431161935,-0.0005973441985075692
6838.363042888117,-0.0005185640908152469
6838.36404266004,-0.00044055343403457835
6838.365042431962,-0.0003633329173208045
6838.366042203885,-0.0002869227606099324
6838.367041975807,-0.00021134270891817983
6838.368041747731,-0.0001366120269337718
6838.369041519653,-6.274949389981535e-05
6838.370041291576,1.0226601213082772e-05
6838.3710410634985,8.229846424585877e-05
6838.372040835421,0.00015344880010319378
6838.373040607345,0.00022366081672050948
6838.374040379267,0.00029291822874756655
6838.37504015119,0.0003612052609506939
6838.376039923112,0.0004285066513359366
6838.377039695035,0.0004948076539956847
6838.3780394669575,0.0005600940416815853
6838.379039238881,0.0006243521081066955
6838.380039010804,0.000687568669979883
6838.381038782726,0.0007497310687754256
6838.382038554649,0.0008108271722406454
6838.383038326571,0.0008708453756442734
6838.384038098495,0.0009297746027681005
6838.385037870417,0.0009876043066443774
6838.38603764234,0.0010443244700413475
6838.387037414263,0.0010999256056992304
6838.388037186185,0.0011543987563188923
6838.389036958108,0.0012077354943053282
6838.390036730031,0.0012599279212679715
6838.391036501954,0.0013109686672797547
6838.392036273876,0.0013608508898968047
6838.393036045799,0.001409568272940696
6838.394035817722,0.0014571150250453269
6838.395035589645,0.0015034858779707087
6838.396035361568,0.001548676084686264
6838.39703513349,0.0015926814172265203
6838.398034905413,0.001635498164322393
6838.399034677335,0.001677123128811552
6838.400034449259,0.0017175536248317167
6838.401034221181,0.0017567874748011072
6838.402033993104,0.0017948230061906932
6838.4030337650265,0.0018316590480932276
6838.404033536949,0.001867294927594286
6838.405033308873,0.0019017304659506029
6838.406033080795,0.0019349659745808996
6838.407032852718,0.001967002250874158
6838.40803262464,0.0019978405738199454
6838.409032396563,0.0020274826994650047
6838.4100321684855,0.0020559308561999465
6838.411031940409,0.002083187739879496
6838.412031712332,0.0021092565087794074
6838.413031484254,0.002134140778392848
6838.414031256177,0.0021578446160687497
6838.415031028099,0.0021803725354944074
6838.416030800023,0.0022017294910243995
6838.417030571945,0.002221920871857794
6838.418030343868,0.0022409524960656023
6838.419030115791,0.0022588306044706145
6838.420029887713,0.002275561854382117
6838.421029659637,0.0022911533131885135
6838.422029431559,0.0023056124518114956
6838.423029203482,0.0023189471380260164
6838.424028975404,0.0023311656296508927
6838.425028747327,0.002342276567615297
6838.42602851925,0.002352288968906726
6838.427028291173,0.0023612122194062615
6838.428028063096,0.002369056066617102
6838.429027835018,0.0023758306122924288
6838.430027606941,0.0023815463049687564
6838.431027378863,0.00238621393241089
6838.432027150787,0.0023898446139745313
6838.433026922709,0.0023924497928923334
6838.434026694632,0.0023940412284889213
6838.4350264665545,0.0023946309883300034
6838.436026238477,0.002394231440310338
6838.437026010401,0.002392855244684866
6838.438025782323,0.002390515346046913
6838.439025554246,0.002387224965256986
6838.440025326168,0.002382997591325385
6838.441025098091,0.002377846973251603
6838.4420248700135,0.0023717871118233294
6838.443024641937,0.0023648322513777366
6838.44402441386,0.0023569968715276613
6838.445024185782,0.00234829567885523
6838.446023957705,0.002338743598575432
6838.447023729627,0.0023283557661721186
6838.448023501551,0.0023171475190089195
6838.449023273473,0.0023051343879175908
6838.450023045396,0.0022923320887663864
6838.451022817319,0.002278756514011127
6838.452022589241,0.002264423724231722
6838.453022361165,0.002249349939657016
6838.454022133087,0.00223355153168098
6838.45502190501,0.002217045014373442
6838.456021676932,0.0021998470359887437
6838.457021448855,0.002181974370475843
6838.458021220778,0.0021634439089935017
6838.459020992701,0.002144272651434277
6838.460020764624,0.0021244776979611126
6838.461020536546,0.002104076240560423
6838.462020308469,0.0020830855546156925
6838.463020080391,0.0020615229905056637
6838.464019852315,0.002039405965231255
6838.465019624237,0.0020167519540752864
6838.46601939616,0.0019935784822990446
6838.4670191680825,0.0019699031168796347
6838.468018940005,0.0019457434582920202
6838.469018711929,0.0019211171323396119
6838.470018483851,0.0018960417820372624
6838.471018255774,0.0018705350595505721
6838.472018027696,0.0018446146181955393
6838.473017799619,0.0018182981045027934
6838.474017571542,0.0017916031503508788
6838.475017343465,0.001764547365173228
6838.476017115388,0.0017371483282435346
6838.47701688731,0.0017094235810441625
6838.478016659233,0.001681390619722051
6838.479016431156,0.0016530668876362593
6838.480016203079,0.0016244697680009453
6838.481015975001,0.0015956165766271803
6838.482015746924,0.0015665245547665625
6838.483015518847,0.0015372108620591496
6838.484015290769,0.001507692569587757
6838.485015062693,0.0014779866530402336
6838.486014834615,0.0014481099859809958
6838.487014606538,0.0014180793332328808
6838.48801437846,0.0013879113443703275
6838.489014150383,0.001357622547325014
6838.490013922306,0.0013272293421053027
6838.491013694229,0.0012967479946311732
6838.492013466152,0.0012661946306866316
6838.493013238074,0.001235585229991854
6838.494013009997,0.001204935620397489
6838.495012781919,0.0011742614722036002
6838.496012553843,0.0011435782926056922
6838.497012325765,0.0011129014202701482
6838.498012097688,0.0010822460200412903
6838.4990118696105,0.0010516270777821996
6838.500011641533,0.0010210593953514189
6838.501011413457,0.0009905575857176768
6838.502011185379,0.0009601360682147821
6838.503010957302,0.0009298090639388296
6838.504010729224,0.0008995905912898691
6838.505010501147,0.0008694944616601999
6838.50601027307,0.0008395342752714524
6838.507010044993,0.000809723417162582
6838.508009816916,0.000780075053330818
6838.509009588838,0.0007506021270274956
6838.510009360761,0.000721317355210578
6838.511009132684,0.0006922332251555751
6838.512008904607,0.0006633619912264804
6838.513008676529,0.0006347156718083028
6838.514008448452,0.0006063060464027252
6838.515008220375,0.0005781446528883946
6838.516007992297,0.0005502427849472909
6838.517007764221,0.0005226114896585277
6838.518007536143,0.0004952615652607749
6838.519007308066,0.00046820355908427463
6838.520007079988,0.0004414477656531406
6838.521006851911,0.0004150042249583167
6838.522006623834,0.00038888272090119926
6838.523006395757,0.00036309277990751083
6838.52400616768,0.0003376436697105762
6838.525005939602,0.0003125443983027356
6838.526005711525,0.00028780371305328726
6838.527005483447,0.0002634300999911074
6838.528005255371,0.00023943178324994197
6838.529005027293,0.0002158167246742621
6838.530004799216,0.0001925926235834878
6838.5310045711385,0.00016976691669229213
6838.532004343061,0.00014734677818461033
6838.533004114985,0.00012533911993889587
6838.534003886907,0.00010375059190207704
6838.53500365883,8.258758260956636e-05
6838.536003430752,6.185621984857675e-05
6838.537003202675,4.15623714619411e-05
6838.538002974598,2.1711646289636045e-05
6838.539002746521,2.3093952452725785e-06
6838.540002518444,-1.6639287475078808e-05
6838.541002290366,-3.5129563054228745e-05
6838.542002062289,-5.3156846587729455e-05
6838.543001834212,-7.071680549247097e-05
6838.544001606135,-8.780535779212356e-05
6838.545001378057,-0.00010441867028147734
6838.54600114998,-0.0001205531565717037
6838.547000921903,-0.00013620547501853205
6838.548000693825,-0.00015137252653526465
6838.549000465749,-0.00016605145229243082
6838.550000237671,-0.00018023963130573404
6838.551000009594,-0.000193934677913809
6838.551999781516,-0.00020713443914721578
6838.552999553439,-0.00021983699199008033
6838.553999325362,-0.00023204064053585565
6838.554999097285,-0.00024374391303881788
6838.555998869208,-0.00025494555886310653
6838.55699864113,-0.0002656445453313405
6838.557998413053,-0.00027584005447508185
6838.558998184976,-0.0002855314796896877
6838.559997956899,-0.00029471842229639953
6838.560997728821,-0.00030340068801486573
6838.561997500744,-0.00031157828334966406
6838.5629972726665,-0.000319251411894741
6838.56399704459,-0.00032642047055998915
6838.564996816513,-0.0003330860457244092
6838.565996588435,-0.0003392489093204555
6838.566996360358,-0.0003449100148542588
6838.56799613228,-0.0003500704933664823
6838.568995904203,-0.00035473164933861353
6838.569995676126,-0.00035889495654952054
6838.570995448049,-0.0003625620538870959
6838.571995219972,-0.0003657347411197615
6838.572994991894,-0.00036841497463247755
6838.573994763817,-0.0003706048631316895
6838.57499453574,-0.0003723066633233724
6838.575994307663,-0.000373522775568028
6838.576994079585,-0.0003742557395162394
6838.577993851508,-0.0003745082297282062
6838.578993623431,-0.00037428305128059223
6838.579993395353,-0.0003735831353639927
6838.580993167277,-0.0003724115348743361
6838.581992939199,-0.00037077142000154444
6838.582992711122,-0.0003686660738187461
6838.583992483044,-0.00036609888787524455
6838.584992254967,-0.0003630733577963029
6838.58599202689,-0.0003595930788926277
6838.586991798813,-0.00035566174178224854
6838.587991570736,-0.0003512831280273202
6838.588991342658,-0.0003464611057882288
6838.589991114581,-0.00034119962549726676
6838.590990886504,-0.00033550271555404343
6838.591990658427,-0.00032937447804469645
6838.592990430349,-0.0003228190844868424
6838.593990202272,-0.00031584077160205895
6838.5949899741945,-0.00030844383711754216
6838.595989746118,-0.0003006326355984556
6838.596989518041,-0.0002924115743124067
6838.597989289963,-0.0002837851091274548
6838.598989061886,-0.0002747577404450795
6838.599988833808,-0.00026533400916960604
6838.600988605731,-0.0002555184927156828
6838.601988377654,-0.00024531580105550065
6838.602988149577,-0.00023473057280752092
6838.6039879215,-0.0002237674713685167
6838.604987693422,-0.0002124311810907423
6838.605987465345,-0.00020072640350604078
6838.606987237268,-0.0001886578535987013
6838.607987009191,-0.00017623025612890575
6838.608986781113,-0.00016344834200865784
6838.609986553036,-0.00015031684473217419
6838.610986324959,-0.00013684049686283047
6838.611986096882,-0.0001230240265788813
6838.612985868805,-0.00010887215428028647
6838.613985640727,-9.438958925905973e-05
6838.61498541265,-7.958102643560777e-05
6838.615985184572,-6.445114316355323e-05
6838.616984956496,-4.90045961055382e-05
6838.617984728418,-3.324601818246819e-05
6838.618984500341,-1.71800155985667e-05
6838.619984272264,-8.111649444708673e-07
6838.620984044186,1.585598961957506e-05
6838.621983816109,3.281693909856765e-05
6838.622983588032,5.006721231398558e-05
6838.623983359955,6.760237846999762e-05
6838.624983131877,8.541804963343194e-05
6838.6259829038,0.00010350988312651739
6838.6269826757225,0.00012187358383162705
6838.627982447646,0.00014050490640747984
6838.628982219569,0.00015939965741647636
6838.629981991491,0.00017855369736303748
6838.630981763414,0.0001979629426429774
6838.631981535336,0.00021762336740409482
6838.632981307259,0.00023753100531834011
6838.633981079182,0.0002576819512661114
6838.634980851105,0.0002780723629334259
6838.635980623028,0.00029869846232285385
6838.63698039495,0.0003195565371791658
6838.637980166873,0.0003406429423306194
6838.638979938796,0.00036195410094671415
6838.639979710719,0.0003834865057131053
6838.640979482641,0.0004052367199242142
6838.641979254564,0.0004272013784939337
6838.642979026487,0.0004493771888847293
6838.64397879841,0.00047176093195540347
6838.644978570333,0.0004943494627278267
6838.645978342255,0.0005171397110730355
6838.646978114178,0.0005401286823172079
6838.6479778861,0.0005633134577681095
6838.648977658024,0.000586691195162645
6838.649977429946,0.0006102591290361495
6838.650977201869,0.0006340145710140506
6838.651976973792,0.000657954910026536
6838.652976745714,0.0006820776124468679
6838.653976517637,0.0007063802221539776
6838.65497628956,0.0007308603605199348
6838.655976061483,0.0007555157263228278
6838.656975833405,0.0007803440955855407
6838.657975605328,0.000805343321340899
6838.6589753772505,0.0008305113333236629
6838.659975149174,0.0008558461375898767
6838.660974921097,0.0008813458160641181
6838.661974693019,0.0009070085260152184
6838.662974464942,0.0009328324994610642
6838.663974236864,0.0009588160425031169
6838.664974008787,0.0009849575345913218
6838.66597378071,0.0010112554277201125
6838.666973552633,0.0010377082455562767
6838.667973324556,0.0010643145824994935
6838.668973096478,0.0010910731026764105
6838.669972868401,0.001117982538869162
6838.670972640324,0.0011450416913792538
6838.671972412247,0.0011722494268277604
6838.672972184169,0.0011996046768927955
6838.673971956092,0.001227106436985215
6838.674971728015,0.0012547537648635377
6838.675971499938,0.0012825457791891294
6838.676971271861,0.001310481658022846
6838.677971043783,0.0013385606372645507
6838.678970815706,0.0013667820090372486
6838.679970587628,0.0013951451200179485
6838.680970359552,0.0014236493697177576
6838.681970131474,0.0014522942087140372
6838.682969903397,0.0014810791368377117
6838.68396967532,0.001510003701318993
6838.684969447242,0.0015390674948948663
6838.685969219165,0.001568270153881723
6838.686968991088,0.0015976113562164908
6838.687968763011,0.0016270908194695281
6838.688968534933,0.0016567082988324104
6838.689968306856,0.0016864635850835708
6838.6909680787785,0.0017163565025345706
6838.691967850702,0.001746386906959609
6838.692967622625,0.0017765546835106952
6838.693967394547,0.001806859744620766
6838.69496716647,0.001837302027896893
6838.695966938392,0.0018678814940056385
6838.696966710316,0.0018985981245525493
6838.697966482238,0.001929451919957728
6838.698966254161,0.0019604428973293733
6838.699966026084,0.0019915710883371468
6838.700965798006,0.0020228365370871812
6838.70196556993,0.00205423929800048
6838.702965341852,0.0020857794336964076
6838.703965113775,0.0021174570128829097
6838.704964885697,0.0021492721082550267
6838.70596465762,0.002181224794403197
6838.706964429543,0.0022133151457327574
6838.707964201466,0.0022455432343959293
6838.708963973389,0.0022779091282374288
6838.709963745311,0.0023104128887546363
6838.710963517234,0.002343054569073073
6838.711963289156,0.0023758342119377645
6838.71296306108,0.0024087518477209457
6838.713962833002,0.002441807492446541
6838.714962604925,0.002475001145831871
6838.715962376848,0.002508332789347175
6838.71696214877,0.0025418023842936634
6838.717961920693,0.0025754098699010512
6838.718961692616,0.0026091551614457692
6838.719961464539,0.0026430381483913074
6838.720961236461,0.002677058692552384
6838.721961008384,0.002711216626284761
6838.7229607803065,0.002745511750702566
6838.72396055223,0.0027799438339249174
6838.724960324153,0.0028145126093534973
6838.725960096075,0.0028492177739825033
6838.726959867998,0.0028840589867421044
6838.72795963992,0.0029190358668762096
6838.728959411844,0.002954147992355026
6838.729959183766,0.0029893948983226127
6838.730958955689,0.003024776075579401
6838.731958727612,0.0030602909690994927
6838.732958499534,0.003095938976582395
6838.733958271458,0.0031317194470387795
6838.73495804338,0.003167631679409756
6838.735957815303,0.0032036749212191458
6838.736957587225,0.003239848367258242
6838.737957359148,0.0032761511583025804
6838.738957131071,0.0033125823798602536
6838.739956902994,0.0033491410609513403
6838.740956674917,0.0033858261729180533
6838.741956446839,0.003422636628265285
6838.742956218762,0.003459571279531302
6838.743955990684,0.0034966289181884904
6838.744955762608,0.003533808273574159
6838.74595553453,0.0035711080118515618
6838.746955306453,0.0036085267350014325
6838.747955078376,0.00364606297984443
6838.748954850298,0.0036837152170949863
6838.749954622221,0.003721481850447119
6838.750954394144,0.00375936121569281
6838.751954166067,0.0037973515798735914
6838.752953937989,0.0038354511404659897
6838.753953709912,0.0038736580246014857
6838.754953481835,0.003911970288321598
6838.755953253758,0.003950385915868653
6838.756953025681,0.0039889028190127195
6838.757952797603,0.004027518836415071
6838.758952569526,0.004066231733028476
6838.759952341448,0.0041050391995345326
6838.760952113372,0.004143938851818267
6838.761951885294,0.004182928230480242
6838.762951657217,0.004222004800386478
6838.76395142914,0.004261165950256499
6838.764951201062,0.0043004089922898765
6838.765950972986,0.004339731161831622
6838.766950744908,0.004379129617076879
6838.767950516831,0.004418601438815363
6838.768950288753,0.004458143630216147
6838.769950060676,0.004497753116653425
6838.770949832599,0.004537426745573995
6838.771949604522,0.00457716128640726
6838.772949376445,0.00461695343051858
6838.773949148367,0.004656799791206787
6838.77494892029,0.004696696903746554
6838.775948692212,0.0047366412254761766
6838.776948464136,0.004776629135931073
6838.777948236058,0.004816656937023084
6838.778948007981,0.004856720853265391
6838.779947779904,0.004896817032042716
6838.780947551826,0.004936941543926346
6838.78194732375,0.004977090383033452
6838.782947095672,0.005017259467430155
6838.783946867595,0.005057444639577725
6838.784946639517,0.005097641666821216
6838.78594641144,0.005137846241919734
6838.786946183363,0.005178053983617346
6838.787945955286,0.00521826043725347
6838.788945727209,0.005258461075411409
6838.789945499131,0.0052986512986035374
6838.790945271054,0.00533882643599161
6838.791945042976,0.005378981746140592
6838.7929448149,0.0054191124178044284
6838.793944586822,0.005459213570742118
6838.794944358745,0.005499280256562378
6838.795944130668,0.005539307459595079
6838.79694390259,0.0055792900977874715
6838.797943674514,0.005619223023623129
6838.798943446436,0.005659101025061417
6838.799943218359,0.005698918826495206
6838.800942990281,0.00573867108972456
6838.801942762204,0.005778352414944135
6838.802942534127,0.00581795734174208
6838.80394230605,0.0058574803501083295
6838.804942077973,0.005896915861450288
6838.805941849895,0.005936258239614122
6838.806941621818,0.005975501791910078
6838.80794139374,0.0060146407701405415
6838.808941165664,0.006053669371629807
6838.809940937586,0.006092581740254695
6838.810940709509,0.006131371967475332
6838.811940481432,0.006170034093365483
6838.812940253354,0.0062085621076419795
6838.813940025278,0.006246949950692842
6838.8149397972,0.006285191514603861
6838.815939569123,0.006323280644183518
6838.816939341045,0.006361211137986318
6838.817939112968,0.006398976749334768
6838.818938884891,0.006436571187340357
6838.819938656814,0.00647398811792398
6838.820938428737,0.006511221164836261
6838.821938200659,0.006548263910678241
6838.822937972582,0.0065851098979228095
6838.823937744504,0.0066217526299371995
6838.824937516428,0.006658185572006723
6838.82593728835,0.006694402152359849
6838.826937060273,0.0067303957631946
6838.827936832196,0.006766159761706213
6838.828936604118,0.006801687471115947
6838.829936376042,0.00683697218170095
6838.830936147964,0.006872007151825049
6838.831935919887,0.006906785608970461
6838.832935691809,0.006941300750770456
6838.833935463732,0.006975545746043195
6838.834935235655,0.0070095137358270896
6838.835935007578,0.0070431978344182855
6838.836934779501,0.007076591130410923
6838.837934551423,0.00710968668774097
6838.838934323346,0.007142477546734379
6838.839934095269,0.007174956725160222
6838.840933867192,0.007207117219289325
6838.841933639114,0.007238952004958759
6838.842933411037,0.0072704540386423384
6838.84393318296,0.007301616258527109
6838.844932954882,0.007332431585595652
6838.845932726806,0.007362892924713932
6838.846932498728,0.007392993165724311
6838.847932270651,0.007422725184543354
6838.848932042573,0.007452081844264045
6838.849931814496,0.007481055996262076
6838.850931586419,0.007509640481306026
6838.851931358342,0.007537828130671272
6838.852931130265,0.007565611767257626
6838.853930902187,0.007592984206710763
6838.85493067411,0.007619938258547569
6838.855930446032,0.007646466727285541
6838.856930217956,0.007672562413576365
6838.857929989878,0.007698218115343819
6838.858929761801,0.007723426628926061
6838.859929533724,0.007748180750222325
6838.860929305646,0.0077724732758438575
6838.86192907757,0.007796297004268778
6838.862928849492,0.007819644737000314
6838.863928621415,0.007842509279727758
6838.864928393337,0.0078648834434894
6838.86592816526,0.007886760045836697
6838.866927937183,0.007908131911998942
6838.867927709106,0.007928991876047689
6838.868927481029,0.007949332782060208
6838.869927252951,0.007969147485281191
6838.870927024874,0.007988428853281892
6838.871926796797,0.008007169767115841
6838.87292656872,0.008025363122470233
6838.873926340642,0.008043001830812115
6838.874926112565,0.00806007882052849
6838.875925884488,0.008076587038059522
6838.87692565641,0.00809251944902415
6838.877925428334,0.008107869039337577
6838.878925200256,0.008122628816320197
6838.879924972179,0.008136791809797714
6838.880924744101,0.008150351073192263
6838.881924516024,0.008163299684604478
6838.882924287947,0.008175630747886397
6838.88392405987,0.008187337393705179
6838.884923831793,0.008198412780597571
6838.885923603715,0.008208850096015057
6838.886923375638,0.008218642557359646
6838.88792314756,0.008227783413010248
6838.888922919484,0.008236265943339684
6838.889922691406,0.00824408346172248
6838.890922463329,0.008251229315533634
6838.891922235252,0.008257696887138717
6838.892922007174,0.008263479594875766
6838.893921779098,0.008268570894029534
6838.89492155102,0.008272964277798717
6838.895921322943,0.008276653278256751
6838.896921094865,0.008279631467306706
6838.897920866788,0.008281892457630594
6838.898920638711,0.008283429903633253
6838.899920410634,0.008284237502380847
6838.900920182557,0.008284308994533848
6838.901919954479,0.008283638165274394
6838.902919726402,0.008282218845227859
6838.903919498325,0.008280044911378568
6838.904919270248,0.008277110287979629
6838.90591904217,0.00827340894745702
6838.906918814093,0.008268934911308217
6838.907918586016,0.008263682250995759
6838.908918357938,0.008257645088836392
6838.909918129862,0.008250817598886625
6838.910917901784,0.008243194007825645
6838.911917673707,0.00823476859583678
6838.912917445629,0.008225535697488727
6838.913917217552,0.008215489702617875
6838.914916989475,0.008204625057213057
6838.915916761398,0.008192936264304184
6838.916916533321,0.008180417884856177
6838.917916305243,0.008167064538669676
6838.918916077166,0.008152870905289947
6838.919915849089,0.008137831724925302
6838.920915621012,0.008121941799376222
6838.921915392934,0.008105195992976112
6838.922915164857,0.008087589233544478
6838.92391493678,0.00806911651335315
6838.924914708703,0.008049772890106083
6838.925914480626,0.008029553487933211
6838.926914252548,0.008008453498398729
6838.927914024471,0.007986468181524273
6838.928913796393,0.007963592866827475
6838.929913568316,0.007939822954376455
6838.930913340239,0.00791515391586093
6838.931913112162,0.007889581295680632
6838.9329128840845,0.007863100712051853
6838.933912656007,0.007835707858132791
6838.93491242793,0.007807398503168351
6838.935912199853,0.007778168493654919
6838.936911971776,0.007748013754525483
6838.937911743698,0.007716930290355282
6838.938911515621,0.007684914186588105
6838.939911287544,0.007651961610783198
6838.940911059466,0.007618068813882715
6838.94191083139,0.0075832321314996095
6838.942910603312,0.007547447985225822
6838.943910375235,0.007510712883960614
6838.944910147157,0.007473023425258877
6838.94590991908,0.007434376296699254
6838.946909691003,0.007394768277271954
6838.947909462926,0.00735419623878624
6838.9489092348485,0.007312657147297648
6838.949909006771,0.007270148064555206
6838.950908778694,0.007226666149469077
6838.951908550617,0.007182208659599255
6838.95290832254,0.007136772952666127
6838.953908094462,0.007090356488083871
6838.954907866385,0.00704295682851779
6838.955907638308,0.006994571641466742
6838.956907410231,0.006945198700871831
6838.957907182154,0.006894835888752544
6838.958906954076,0.006843481196871395
6838.959906725999,0.0067911327284280835
6838.960906497921,0.006737788699784107
6838.961906269844,0.006683447442218636
6838.962906041767,0.00662810740371629
6838.96390581369,0.00657176715078725
6838.9649055856125,0.006514425370319917
6838.965905357535,0.0064560808714660654
6838.966905129458,0.006396732587558225
6838.967904901381,0.006336379578058837
6838.968904673304,0.00627502103054062
6838.969904445226,0.006212656262697501
6838.970904217149,0.00614928472438549
6838.971903989072,0.006084905999692807
6838.972903760995,0.006019519809038612
6838.973903532918,0.005953126011299603
6838.97490330484,0.005885724605963756
6838.975903076763,0.005817315735310404
6838.976902848685,0.005747899686615763
6838.977902620609,0.005677476894383049
6838.978902392531,0.005606047942596244
6838.979902164454,0.005533613566996573
6838.9809019363765,0.005460174657380714
6838.981901708299,0.005385732259919723
6838.982901480222,0.005310287579497562
6838.983901252145,0.005233841982068006
6838.984901024068,0.0051563969970285315
6838.98590079599,0.005077954319609642
6838.986900567913,0.004998515813277849
6838.987900339836,0.0049180835121503666
6838.988900111759,0.004836659623419389
6838.989899883682,0.004754246529783689
6838.990899655604,0.0046708467918851705
6838.991899427527,0.004586463150747975
6838.992899199449,0.004501098530217797
6838.993898971372,0.004414756039399181
6838.994898743295,0.004327438975088765
6838.995898515218,0.0042391508242027335
6838.9968982871405,0.004149895266196999
6838.997898059063,0.004059676175479015
6838.998897830986,0.00396849762381043
6838.999897602909,0.0038763638827001017
6839.000897374832,0.0037832794257872467
6839.001897146754,0.0036892489312146683
6839.002896918677,0.0035942772839920984
6839.0038966906,0.003498369578349682
6839.004896462523,0.0034015311200815356
6839.005896234446,0.003303767428879149
6839.006896006368,0.003205084240654161
6839.007895778291,0.003105487509849827
6839.008895550213,0.0030049834117402544
6839.009895322137,0.0029035783447162334
6839.010895094059,0.002801278932556275
6839.011894865982,0.0026980920266812657
6839.0128946379045,0.0025940247083909456
6839.013894409827,0.0024890842910802904
6839.01489418175,0.002383278322433729
6839.015893953673,0.0022766145865950075
6839.016893725596,0.002169101106310431
6839.017893497518,0.0020607461450431143
6839.018893269441,0.0019515582090558197
6839.019893041364,0.0018415460494599187
6839.020892813287,0.0017307186642279728
6839.02189258521,0.0016190853001674084
6839.022892357132,0.001506655454852755
6839.023892129055,0.001393438878513932
6839.024891900977,0.0012794455758780954
6839.0258916729,0.001164685807962582
6839.026891444823,0.0010491700938164994
6839.027891216746,0.0009329092122085152
6839.0288909886685,0.0008159142032584181
6839.029890760591,0.0006981963700100377
6839.030890532514,0.0005797672799431382
6839.031890304437,0.00046063876642195035
6839.03289007636,0.00034082293007806243
6839.033889848282,0.0002203321401254799
6839.034889620205,9.91790356057565e-05
6839.035889392128,-2.2623473438810613e-05
6839.036889164051,-0.00014506220486588627
6839.037888935974,-0.0002681237034096774
6839.038888707896,-0.00039179423973542536
6839.039888479819,-0.0005160598095739581
6839.040888251741,-0.0006409061329385955
6839.041888023665,-0.0007663186534268599
6839.042887795587,-0.0008922825376096062
6839.04388756751,-0.001018782674510321
6839.0448873394325,-0.0011458036751774547
6839.045887111355,-0.0012733298723527323
6839.046886883278,-0.0014013453202384538
6839.047886655201,-0.0015298337943668186
6839.048886427124,-0.0016587787915742916
6839.049886199046,-0.0017881635300839535
6839.050885970969,-0.001917970949698631
6839.051885742892,-0.0020481837121074263
6839.052885514815,-0.002178784201308071
6839.053885286738,-0.0023097545241473716
6839.05488505866,-0.00244107651098191
6839.055884830583,-0.002572731716461094
6839.056884602505,-0.0027047014204346236
6839.057884374429,-0.002836966628986418
6839.058884146351,-0.0029695080755970473
6839.059883918274,-0.0031023062224367374
6839.0608836901965,-0.0032353412617910264
6839.061883462119,-0.0033685931176212227
6839.062883234043,-0.0035020414472618773
6839.063883005965,-0.0036356656432575568
6839.064882777888,-0.0037694448353412465
6839.06588254981,-0.003903357892556759
6839.066882321733,-0.004037383425527465
6839.067882093656,-0.00417149978887361
6839.068881865579,-0.00430568508378038
6839.069881637502,-0.0044399171607188105
6839.070881409424,-0.00457417362232153
6839.071881181347,-0.004708431826415287
6839.072880953269,-0.004842668889212127
6839.073880725193,-0.004976861688661049
6839.074880497115,-0.005110986867961883
6839.075880269038,-0.005245020839243094
6839.0768800409605,-0.005378939787405151
6839.077879812883,-0.005512719674130972
6839.078879584806,-0.005646336242064872
6839.079879356729,-0.005779765019161225
6839.080879128652,-0.005912981323203892
6839.081878900574,-0.006045960266497305
6839.082878672497,-0.00617867676073
6839.08387844442,-0.006311105522011405
6839.084878216343,-0.006443221076082644
6839.085877988266,-0.006574997763702296
6839.086877760188,-0.006706409746208033
6839.087877532111,-0.006837431011255195
6839.088877304033,-0.006968035378733327
6839.089877075957,-0.007098196506861738
6839.090876847879,-0.007227887898465041
6839.091876619802,-0.0073570829074295265
6839.0928763917245,-0.007485754745341127
6839.093876163647,-0.00761387648830567
6839.094875935571,-0.0077414210839520685
6839.095875707493,-0.007868361358619066
6839.096875479416,-0.007994670024726086
6839.097875251338,-0.00812031968832865
6839.098875023261,-0.00824528285685865
6839.099874795184,-0.008369531947049565
6839.100874567107,-0.008493039293046456
6839.10187433903,-0.008615777154700278
6839.102874110952,-0.008737717726045776
6839.103873882875,-0.008858833143961882
6839.104873654797,-0.008979095497013295
6839.105873426721,-0.009098476834471667
6839.106873198643,-0.009216949175514551
6839.107872970566,-0.009334484518600007
6839.1088727424885,-0.00945105485101451
6839.109872514411,-0.009566632158591614
6839.110872286334,-0.009681188435598629
6839.111872058257,-0.009794695694788462
6839.11287183018,-0.009907125977613741
6839.113871602102,-0.010018451364600263
6839.114871374025,-0.010128643985876843
6839.115871145948,-0.010237676031858609
6839.116870917871,-0.010345519764080734
6839.117870689794,-0.010452147526179586
6839.118870461716,-0.010557531755018138
6839.119870233639,-0.01066164499195232
6839.120870005561,-0.010764459894234866
6839.121869777485,-0.010865949246552934
6839.122869549407,-0.010966085972695537
6839.12386932133,-0.011064843147346522
6839.1248690932525,-0.011162194007998453
6839.125868865175,-0.011258111966982409
6839.126868637099,-0.011352570623608222
6839.127868409021,-0.01144554377640941
6839.128868180944,-0.011537005435486487
6839.129867952866,-0.011626929834942054
6839.130867724789,-0.011715291445400691
6839.131867496712,-0.011802064986606447
6839.132867268635,-0.011887225440090538
6839.133867040558,-0.011970748061901747
6839.13486681248,-0.01205260839539193
6839.135866584403,-0.012132782284048852
6839.136866356325,-0.012211245884368503
6839.137866128249,-0.01228797567875884
6839.138865900171,-0.012362948488466726
6839.139865672094,-0.012436141486519591
6839.1408654440165,-0.012507532210673097
6839.141865215939,-0.012577098576355826
6839.142864987863,-0.012644818889601821
6839.143864759785,-0.012710671859961544
6839.144864531708,-0.012774636613381643
6839.14586430363,-0.012836692705043748
6839.146864075553,-0.012896820132152369
6839.147863847476,-0.012954999346661939
6839.148863619399,-0.013011211267932869
6839.149863391322,-0.01306543729530654
6839.150863163244,-0.013117659320589092
6839.151862935167,-0.013167859740433913
6839.152862707089,-0.013216021468612714
6839.153862479013,-0.013262127948165088
6839.154862250935,-0.01330616316341637
6839.155862022858,-0.013348111651853518
6839.1568617947805,-0.013387958515848555
6839.157861566703,-0.013425689434218848
6839.158861338627,-0.013461290673613282
6839.159861110549,-0.013494749099713047
6839.160860882472,-0.013526052188235512
6839.161860654394,-0.013555188035729283
6839.162860426317,-0.013582145370148254
6839.16386019824,-0.013606913561192188
6839.164859970163,-0.01362948263040102
6839.165859742086,-0.013649843260989976
6839.166859514008,-0.013667986807412408
6839.167859285931,-0.013683905304637289
6839.168859057853,-0.01369759147712837
6839.169858829777,-0.013709038747512033
6839.170858601699,-0.013718241244921112
6839.171858373622,-0.013725193813001904
6839.1728581455445,-0.013729892017571722
6839.173857917467,-0.013732332153914312
6839.174857689391,-0.013732511253700464
6839.175857461313,-0.013730427091521346
6839.176857233236,-0.01372607819102212
6839.177857005158,-0.013719463830623592
6839.178856777081,-0.013710584048819866
6839.179856549004,-0.013699439649040183
6839.180856320927,-0.013686032204063338
6839.18185609285,-0.013670364059973253
6839.182855864772,-0.0136524383396447
6839.183855636695,-0.013632258945748365
6839.184855408617,-0.013609830563264862
6839.185855180541,-0.013585158661497742
6839.186854952463,-0.013558249495575858
6839.187854724386,-0.013529110107435906
6839.1888544963085,-0.013497748326276338
6839.189854268231,-0.01346417276847411
6839.190854040155,-0.013428392836956248
6839.191853812077,-0.0133904187200185
6839.192853584,-0.013350261389583827
6839.193853355922,-0.013307932598893816
6839.194853127845,-0.013263444879626492
6839.195852899768,-0.013216811538434394
6839.196852671691,-0.013168046652897262
6839.197852443614,-0.01311716506688422
6839.198852215536,-0.013064182385320972
6839.199851987459,-0.013009114968358193
6839.200851759382,-0.012951979924938151
6839.201851531305,-0.012892795105757394
6839.202851303227,-0.012831579095624187
6839.20385107515,-0.012768351205210304
6839.2048508470725,-0.012703131462197745
6839.205850618995,-0.012635940601821901
6839.206850390919,-0.012566800056813893
6839.207850162841,-0.012495731946746046
6839.208849934764,-0.012422759066785985
6839.209849706686,-0.012347904875866513
6839.210849478609,-0.01227119348428018
6839.211849250532,-0.012192649640709461
6839.212849022455,-0.012112298718705528
6839.213848794378,-0.01203016670263065
6839.2148485663,-0.01194628017308141
6839.215848338223,-0.011860666291812108
6839.216848110145,-0.011773352786179875
6839.217847882069,-0.011684367933135178
6839.218847653991,-0.01159374054278334
6839.219847425914,-0.011501499941544528
6839.2208471978365,-0.011407675954941103
6839.221846969759,-0.011312298890042377
6839.222846741683,-0.01121539951759778
6839.223846513605,-0.011117009053889954
6839.224846285528,-0.011017159142339673
6839.22584605745,-0.010915881834894493
6839.226845829373,-0.010813209573232818
6839.227845601296,-0.010709175169814676
6839.228845373219,-0.01060381178880978
6839.229845145142,-0.010497152926932663
6839.230844917064,-0.010389232394213644
6839.231844688987,-0.010280084294733318
6839.23284446091,-0.01016974300734702
6839.233844232833,-0.010058243166424544
6839.234844004755,-0.009945619642629189
6839.235843776678,-0.009831907523759165
6839.2368435486005,-0.009717142095673223
6839.237843320523,-0.009601358823321303
6839.238843092447,-0.009484593331899832
6839.239842864369,-0.009366881388150092
6839.240842636292,-0.009248258881816842
6839.241842408214,-0.0091287618072831
6839.242842180137,-0.009008426245395804
6839.24384195206,-0.008887288345495898
6839.244841723983,-0.008765384307665281
6839.245841495906,-0.008642750365202057
6839.246841267828,-0.008519422767334441
6839.247841039751,-0.008395437762182744
6839.248840811673,-0.008270831579977803
6839.249840583597,-0.008145640416543311
6839.250840355519,-0.008019900417048522
6839.251840127442,-0.007893647660036855
6839.2528398993645,-0.007766918141735017
6839.253839671287,-0.007639747760646422
6839.254839443211,-0.007512172302431811
6839.255839215133,-0.007384227425079307
6839.256838987056,-0.007255948644365555
6839.257838758978,-0.007127371319609149
6839.258838530901,-0.006998530639717268
6839.259838302824,-0.006869461609526247
6839.260838074747,-0.006740199036436753
6839.26183784667,-0.006610777517344248
6839.262837618592,-0.0064812314258654875
6839.263837390515,-0.006351594899861807
6839.264837162438,-0.006221901829260003
6839.265836934361,-0.0060921858441715555
6839.266836706283,-0.00596248030331086
6839.267836478206,-0.005832818282713019
6839.2688362501285,-0.0057032325647516134
6839.269836022051,-0.005573755627456661
6839.270835793975,-0.005444419634132739
6839.271835565897,-0.005315256423277081
6839.27283533782,-0.00518629749879726
6839.273835109742,-0.005057574020527904
6839.274834881665,-0.004929116795045743
6839.275834653588,-0.004800956266782196
6839.276834425511,-0.0046731225094326
6839.277834197434,-0.004545645217661113
6839.278833969356,-0.004418553699100182
6839.279833741279,-0.004291876866643412
6839.280833513202,-0.004165643231030471
6839.281833285125,-0.004039880893722541
6839.282833057047,-0.003914617540066661
6839.28383282897,-0.0037898804327471916
6839.2848326008925,-0.003665696405522482
6839.285832372816,-0.003542091857244706
6839.286832144739,-0.0034190927461606804
6839.287831916661,-0.00329672458449135
6839.288831688584,-0.0031750124332875205
6839.289831460506,-0.0030539808975593545
6839.290831232429,-0.0029336541216771262
6839.291831004352,-0.0028140557850407297
6839.292830776275,-0.0026952090980154548
6839.293830548198,-0.002577136798131544
6839.29483032012,-0.002459861146545052
6839.295830092043,-0.0023434039247574837
6839.296829863966,-0.002227786431591623
6839.297829635889,-0.0021130294804208895
6839.298829407811,-0.0019991533966494794
6839.299829179734,-0.00188617801544045
6839.3008289516565,-0.001774122679688828
6839.301828723579,-0.0016630062382367373
6839.302828495503,-0.0015528470443274798
6839.303828267425,-0.0014436629542954392
6839.304828039348,-0.0013354713264886289
6839.30582781127,-0.0012282890204206739
6839.306827583193,-0.0011221323961489867
6839.307827355116,-0.001017017313875888
6839.308827127039,-0.0009129591337694129
6839.309826898962,-0.0008099727160005597
6839.310826670884,-0.0007080724209937624
6839.311826442807,-0.0006072721098874136
6839.31282621473,-0.0005075851452013107
6839.313825986653,-0.0004090243917079459
6839.314825758575,-0.0003116022175045741
6839.315825530498,-0.00021533049528299248
6839.3168253024205,-0.0001202206037939403
6839.317825074344,-2.6283429502998382e-05
6839.318824846267,6.647063156516299e-05
6839.319824618189,0.00015803167179736277
6839.320824390112,0.0002483902697805006
6839.321824162034,0.00033753748791134084
6839.322823933957,0.0004254648698306438
6839.32382370588,0.0005121644376847614
6839.324823477803,0.0005976286892177741
6839.3258232497255,0.000681850594697206
6839.326823021648,0.0007648235936763288
6839.327822793571,0.0008465415915960557
6839.328822565494,0.0009269989562294388
6839.329822337417,0.0010061905139718047
6839.330822109339,0.0010841115459795875
6839.331821881262,0.0011607577841609362
6839.3328216531845,0.001236125407021193
6839.333821425108,0.0013102110353663645
6839.334821197031,0.00138301172786774
6839.335820968953,0.0014545249764908634
6839.336820740876,0.001524748701792121
6839.337820512798,0.0015936812480862924
6839.338820284722,0.0016613213784884863
6839.339820056644,0.001727668269833975
6839.340819828567,0.0017927215074795477
6839.3418196004895,0.0018564810799901051
6839.342819372412,0.0019189473737143538
6839.343819144335,0.0019801211672536108
6839.344818916258,0.0020400036258279154
6839.345818688181,0.0020985962955438406
6839.346818460103,0.0021559010975686172
6839.347818232026,0.002211920322215413
6839.3488180039485,0.0022666566229447987
6839.349817775872,0.0023201130102876075
6839.350817547795,0.00237229284569444
6839.351817319717,0.0024231998353170772
6839.35281709164,0.0024728380237269316
6839.353816863562,0.002521211787575483
6839.354816635485,0.0025683258292013874
6839.355816407408,0.002614185170188673
6839.356816179331,0.002658795144880178
6839.3578159512535,0.0027021613938501892
6839.358815723176,0.0027442898573400826
6839.359815495099,0.0027851867686606575
6839.360815267022,0.0028248586475647505
6839.361815038945,0.0028633122935935833
6839.362814810867,0.002900554779400204
6839.36381458279,0.0029365934440532763
6839.3648143547125,0.002971435886324366
6839.365814126636,0.0030050899579618104
6839.366813898559,0.003037563756954141
6839.367813670481,0.003068865620785933
6839.368813442404,0.00309900411968882
6839.369813214326,0.0031279880498902906
6839.37081298625,0.0031558264268628086
6839.371812758172,0.003182528478575736
6839.372812530095,0.0032081036387525508
6839.3738123020175,0.0032325615401358992
6839.37481207394,0.00325591200776309
6839.375811845863,0.0032781650522547183
6839.376811617786,0.0032993308631191413
6839.377811389709,0.0033194198020755922
6839.378811161631,0.003338442396398739
6839.379810933554,0.0033564093322875402
6839.3808107054765,0.0033733314482612613
6839.3818104774,0.003389219728585557
6839.382810249323,0.003404085296731568
6839.383810021245,0.003417939408870984
6839.384809793168,0.0034307934474100614
6839.38580956509,0.0034426589145655864
6839.386809337013,0.0034535474259858564
6839.387809108936,0.0034634707044198442
6839.388808880859,0.0034724405734378296
6839.3898086527815,0.0034804689512068633
6839.390808424704,0.003487567844324474
6839.391808196627,0.0034937493417140173
6839.39280796855,0.0034990256085850277
6839.393807740473,0.0035034088804618874
6839.394807512395,0.003506911457284097
6839.395807284318,0.003509545697581433
6839.3968070562405,0.003511324012727273
6839.397806828164,0.0035122588612733676
6839.398806600087,0.0035123627433693264
6839.399806372009,0.0035116481952700484
6839.400806143932,0.003510127783934268
6839.401805915854,0.0035078141017172494
6839.402805687778,0.0035047197611605707
6839.4038054597,0.003500857389881799
6839.404805231623,0.003496239625566762
6839.4058050035455,0.003490879111067054
6839.406804775468,0.003484788489605398
6839.407804547391,0.003477980400091484
6839.408804319314,0.0034704674725509394
6839.409804091237,0.0034622623236701187
6839.410803863159,0.0034533775524594273
6839.411803635082,0.003443825736037803
6839.4128034070045,0.0034336194255408813
6839.413803178928,0.0034227711421551724
6839.414802950851,0.0034112933732803616
6839.415802722773,0.0033991985688216087
6839.416802494696,0.0033864991376134678
6839.417802266618,0.00337320744397681
6839.418802038542,0.0033593358044099004
6839.419801810464,0.0033448964844145007
6839.420801582387,0.003329901695457585
6839.4218013543095,0.00331436359206894
6839.422801126232,0.003298294269074564
6839.423800898156,0.003281705758965409
6839.424800670078,0.003264610029400608
6839.425800442001,0.0032470189808439464
6839.426800213923,0.0032289444443320105
6839.427799985846,0.0032103981793721423
6839.4287997577685,0.003191391871968139
6839.429799529692,0.0031719371327715152
6839.430799301615,0.00315204549535608
6839.431799073537,0.003131728414613596
6839.43279884546,0.00311099726526829
6839.433798617382,0.0030898633405079994
6839.434798389306,0.003068337850729716
6839.435798161228,0.003046431922397259
6839.436797933151,0.003024156597008771
6839.4377977050735,0.0030015228301716883
6839.438797476996,0.002978541490782789
6839.439797248919,0.0029552233603108574
6839.440797020842,0.0029315791321794095
6839.441796792765,0.0029076194112468133
6839.442796564687,0.0028833547133810303
6839.44379633661,0.0028587954651260747
6839.4447961085325,0.0028339520034571875
6839.445795880456,0.002808834575621652
6839.446795652379,0.002783453339062083
6839.447795424301,0.0027578183614190063
6839.448795196224,0.00273193962060953
6839.449794968146,0.0027058270049788854
6839.45079474007,0.002679490313521611
6839.451794511992,0.0026529392561691293
6839.452794283915,0.00262618345414046
6839.4537940558375,0.0025992324403528015
6839.45479382776,0.0025720956598887282
6839.455793599684,0.0025447824705167946
6839.456793371606,0.00251730214326238
6839.457793143529,0.002489663863025693
6839.458792915451,0.0024618767292439205
6839.459792687374,0.0024339497565945755
6839.4607924592965,0.0024058918757371623
6839.46179223122,0.002377711934090304
6839.462792003143,0.0023494186966414696
6839.463791775065,0.002321020846786429
6839.464791546988,0.0022925269871955207
6839.46579131891,0.0022639456407037707
6839.466791090834,0.002235285251221859
6839.467790862756,0.0022065541846648757
6839.468790634679,0.0021777607298957787
6839.4697904066015,0.002148913099680444
6839.470790178524,0.0021200194316512203
6839.471789950447,0.002091087789275923
6839.47278972237,0.002062126162829252
6839.473789494293,0.002033142470363655
6839.474789266215,0.0020041445586767063
6839.475789038138,0.00197514020427212
6839.476788810061,0.0019461371143116052
6839.477788581984,0.001917142927554849
6839.478788353907,0.0018881652152850101
6839.479788125829,0.0018592114822172166
6839.480787897752,0.001830289167387622
6839.481787669674,0.0018014056450206591
6839.482787441598,0.0017725682253721816
6839.48378721352,0.0017437841555462464
6839.484786985443,0.0017150606202833648
6839.4857867573655,0.0016864047427181314
6839.486786529288,0.0016578235851042577
6839.487786301212,0.001629324149505196
6839.488786073134,0.0016009133784487338
6839.489785845057,0.001572598155544178
6839.490785616979,0.0015443853060610052
6839.491785388902,0.001516281597468122
6839.4927851608245,0.0014882937399331119
6839.493784932748,0.0014604283867810637
6839.494784704671,0.0014326921349127183
6839.495784476593,0.0014050915251817668
6839.496784248516,0.0013776330427311874
6839.497784020438,0.0013503231172885411
6839.498783792362,0.0013231681234201534
6839.499783564284,0.0012961743807441174
6839.500783336207,0.0012693481541020638
6839.5017831081295,0.0012426956536896743
6839.502782880052,0.0012162230351459929
6839.503782651976,0.0011899363996016995
6839.504782423898,0.001163841793686685
6839.505782195821,0.0011379452094974784
6839.506781967743,0.0011122525845253203
6839.507781739666,0.0010867698015459336
6839.508781511589,0.0010615026884722787
6839.509781283512,0.0010364570181717804
6839.510781055435,0.0010116385082496457
6839.511780827357,0.000987052820799966
6839.51278059928,0.0009627055621262993
6839.513780371202,0.0009386022824333937
6839.514780143126,0.0009147484754916553
6839.515779915048,0.0008911495782759262
6839.516779686971,0.0008678109705801271
6839.5177794588935,0.0008447379746093484
6839.518779230816,0.0008219358545510113
6839.51977900274,0.0007994098161267625
6839.520778774662,0.0007771650061267869
6839.521778546585,0.0007552065119282252
6839.522778318507,0.000733539360999372
6839.52377809043,0.000712168520391303
6839.5247778623525,0.000691098896218541
6839.525777634276,0.0006703353331303161
6839.526777406199,0.0006498826137739188
6839.527777178121,0.0006297454582515809
6839.528776950044,0.0006099285235722667
6839.529776721966,0.0005904364030997085
6839.53077649389,0.0005712736259979628
6839.531776265812,0.0005524446566757
6839.532776037735,0.0005339538942303664
6839.5337758096575,0.0005158056718932932
6839.53477558158,0.0004980042564767501
6839.535775353504,0.0004805538478238848
6839.536775125426,0.0004634585782624284
6839.537774897349,0.00044672251206300017
6839.538774669271,0.0004303496449027905
6839.539774441194,0.0004143439033353376
6839.540774213117,0.0003987091442670202
6839.54177398504,0.0003834491544407831
6839.542773756963,0.0003685676499274915
6839.543773528885,0.0003540682756252133
6839.544773300808,0.00033995460476663895
6839.54577307273,0.00032623013843478794
6839.546772844654,0.0003128983050871002
6839.547772616576,0.00029996246008795826
6839.548772388499,0.0002874258852496276
6839.5497721604215,0.00027529178838152905
6839.550771932344,0.0002635633028476619
6839.551771704268,0.0002522434871318942
6839.55277147619,0.00024133532441072457
6839.553771248113,0.0002308417221330252
6839.554771020035,0.00022076551160621973
6839.555770791958,0.00021110944758834826
6839.556770563881,0.00020187620788552312
6839.557770335804,0.00019306839295436405
6839.558770107727,0.00018468852550909516
6839.559769879649,0.00017673905013306694
6839.560769651572,0.0001692223328945245
6839.561769423495,0.0001621406609664753
6839.562769195418,0.00015549624225053208
6839.56376896734,0.0001492912050046339
6839.564768739263,0.0001435275974745966
6839.5657685111855,0.0001382073875295139
6839.566768283108,0.00013333246230112284
6839.567768055032,0.00012890462782736694
6839.568767826954,0.00012492560870053663
6839.569767598877,0.00012139704772053052
6839.570767370799,0.00011832050555393441
6839.571767142722,0.00011569746039973007
6839.572766914645,0.00011352930766249843
6839.573766686568,0.00011181735963397335
6839.574766458491,0.00011056284518374233
6839.575766230413,0.00010976690945980092
6839.576766002336,0.0001094306135995758
6839.577765774258,0.00010955493445196885
6839.578765546182,0.0001101407643109605
6839.579765318104,0.00011118891066135044
6839.580765090027,0.00011270009593729309
6839.5817648619495,0.00011467495729438618
6839.582764633872,0.00011711404639616763
6839.583764405796,0.00012001782921594137
6839.584764177718,0.00012338668585487085
6839.585763949641,0.0001272209103772484
6839.586763721563,0.0001315207106637792
6839.587763493486,0.00013628620828362004
6839.588763265409,0.00014151743838579413
6839.589763037332,0.0001472143496104713
6839.590762809255,0.0001533768040204717
6839.591762581177,0.00016000457705322941
6839.5927623531,0.0001670973574933517
6839.593762125023,0.00017465474746583388
6839.594761896946,0.00018267626244994554
6839.595761668868,0.00019116133131379153
6839.596761440791,0.00020010929636956704
6839.5977612127135,0.00020951941344957663
6839.598760984636,0.00021939085200314943
6839.59976075656,0.00022972269521464667
6839.600760528482,0.00024051394014280156
6839.601760300405,0.00025176349788165014
6839.602760072327,0.00026347019374330446
6839.60375984425,0.00027563276746278955
6839.604759616173,0.00028824987342511936
6839.605759388096,0.00030132008091473536
6839.606759160019,0.0003148418743873836
6839.607758931941,0.00032881365376448017
6839.608758703864,0.0003432337347500118
6839.609758475786,0.0003581003491700334
6839.61075824771,0.0003734116453348532
6839.611758019632,0.0003891656884240196
6839.612757791555,0.00040536046089424037
6839.6137575634775,0.0004219938629103557
6839.6147573354,0.00043906371279946025
6839.615757107324,0.00045656774752822016
6839.616756879246,0.0004745036232033757
6839.617756651169,0.000492868915595355
6839.618756423091,0.0005116611206848583
6839.619756195014,0.0005308776552322074
6839.620755966937,0.000550515857369197
6839.62175573886,0.0005705729872131501
6839.622755510783,0.0005910462275028546
6839.623755282705,0.0006119326842560509
6839.624755054628,0.0006332293874481211
6839.625754826551,0.0006549332917116072
6839.626754598474,0.0006770412770561732
6839.627754370396,0.0006995501496086183
6839.628754142319,0.0007224566423725604
6839.6297539142415,0.0007457574160074207
6839.630753686164,0.0007694490596263434
6839.631753458088,0.0007935280916126744
6839.63275323001,0.0008179909604545925
6839.633753001933,0.000842834045597459
6839.634752773855,0.0008680536583134431
6839.635752545778,0.0008936460425880007
6839.636752317701,0.0009196073760228417
6839.637752089624,0.0009459337707550882
6839.638751861547,0.0009726212743924239
6839.639751633469,0.000999665870964137
6839.640751405392,0.0010270634818880758
6839.641751177315,0.001054809966953633
6839.642750949238,0.0010829011253209284
6839.64375072116,0.0011113326965363959
6839.644750493083,0.0011401003615649735
6839.6457502650055,0.001169199743839087
6839.646750036929,0.0011986264103245675
6839.647749808852,0.001228375872603588
6839.648749580774,0.0012584435879746212
6839.649749352697,0.0012888249605693292
6839.650749124619,0.0013195153424862048
6839.651748896542,0.001350510034940683
6839.652748668465,0.0013818042894313462
6839.653748440388,0.0014133933089217593
6839.654748212311,0.0014452722490373867
6839.655747984233,0.00147743621927697
6839.656747756156,0.001509880284237659
6839.657747528079,0.0015425994648530928
6839.658747300002,0.0015755887396435018
6839.659747071924,0.0016088430459767422
6839.660746843847,0.0016423572813390355
6839.6617466157695,0.0016761263046140417
6839.662746387692,0.001710144937368791
6839.663746159616,0.001744407965144954
6839.664745931538,0.0017789101387539182
6839.665745703461,0.0018136461755741823
6839.666745475383,0.0018486107608496716
6839.667745247306,0.0018837985489876625
6839.668745019229,0.0019192041648551051
6839.669744791152,0.001954822205072185
6839.670744563075,0.001990647239301991
6839.671744334997,0.0020266738115351434
6839.67274410692,0.002062896441368206
6839.673743878843,0.0020993096252746495
6839.674743650766,0.0021359078378670837
6839.675743422688,0.0021726855331494067
6839.676743194611,0.002209637145757458
6839.6777429665335,0.0022467570921867164
6839.678742738457,0.002284039772005587
6839.67974251038,0.002321479569052863
6839.680742282302,0.002359070852618021
