Time,Filtered_ECG
6906.0985904264,0.0012490690999778964
6906.099590198322,0.0012495657893856044
6906.100589970245,0.001249826819860004
6906.101589742168,0.0012498506663493208
6906.10258951409,0.0012496358771321022
6906.103589286013,0.0012491810750539355
6906.104589057936,0.0012484849587394138
6906.105588829859,0.0012475463037781413
6906.106588601781,0.0012463639638835653
6906.107588373704,0.0012449368720234212
6906.108588145627,0.0012432640415205704
6906.10958791755,0.0012413445671229989
6906.110587689473,0.0012391776260417403
6906.111587461395,0.0012367624789554736
6906.112587233318,0.0012340984709805528
6906.11358700524,0.0012311850326052309
6906.114586777164,0.0012280216805868513
6906.115586549086,0.0012246080188108009
6906.116586321009,0.001220943739110033
6906.117586092932,0.001217028622043991
6906.118585864854,0.001212862537635768
6906.119585636778,0.0012084454460663577
6906.1205854087,0.0012037773983248439
6906.121585180623,0.001198858536813402
6906.122584952545,0.0011936890959060014
6906.123584724468,0.0011882694024597331
6906.124584496391,0.0011825998762777274
6906.125584268314,0.0011766810305226646
6906.126584040237,0.001170513472079939
6906.127583812159,0.0011640979018695849
6906.128583584082,0.0011574351151061224
6906.129583356005,0.0011505260015055017
6906.130583127928,0.0011433715454383494
6906.13158289985,0.001135972826028734
6906.132582671773,0.0011283310171976968
6906.133582443696,0.0011204473876508534
6906.134582215618,0.0011123233008094554
6906.135581987542,0.0011039602146844132
6906.136581759464,0.0010953596816929182
6906.137581531387,0.0010865233484174625
6906.138581303309,0.0010774529553072346
6906.139581075232,0.0010681503363220578
6906.140580847155,0.0010586174185192245
6906.141580619078,0.0010488562215837714
6906.142580391001,0.0010388688573029071
6906.143580162923,0.0010286575289854682
6906.144579934846,0.0010182245308274394
6906.145579706768,0.0010075722472247075
6906.146579478692,0.000996703152034304
6906.147579250614,0.000985619807785443
6906.148579022537,0.000974324864841663
6906.14957879446,0.0009628210605153691
6906.150578566382,0.000951111218136071
6906.151578338306,0.0009391982460736099
6906.152578110228,0.0009270851367176913
6906.153577882151,0.0009147749654150596
6906.154577654073,0.0009022708893656711
6906.155577425996,0.0008895761464792483
6906.156577197919,0.0008766940541935982
6906.157576969842,0.0008636280082560828
6906.158576741765,0.0008503814814696112
6906.159576513687,0.0008369580224044746
6906.16057628561,0.0008233612540772965
6906.161576057533,0.000809594872598286
6906.162575829456,0.0007956626457878889
6906.163575601378,0.0007815684117638399
6906.164575373301,0.0007673160774995364
6906.165575145224,0.0007529096173545808
6906.166574917146,0.0007383530715782816
6906.16757468907,0.0007236505447868606
6906.168574460992,0.0007088062044150726
6906.169574232915,0.0006938242791428987
6906.170574004837,0.0006787090572979473
6906.17157377676,0.0006634648852341657
6906.172573548683,0.0006480961656874546
6906.173573320606,0.0006326073561087801
6906.174573092529,0.0006170029669753723
6906.175572864451,0.0006012875600805817
6906.176572636374,0.0005854657468029401
6906.177572408296,0.0005695421863549343
6906.17857218022,0.000553521584011983
6906.179571952142,0.0005374086893221274
6906.180571724065,0.0005212082942970289
6906.181571495988,0.000504925231585005
6906.18257126791,0.0004885643726270243
6906.183571039834,0.00047213062579679754
6906.184570811756,0.00045562893452631806
6906.185570583679,0.00043906427541839027
6906.186570355601,0.0004224416563478032
6906.187570127524,0.0004057661145528408
6906.188569899447,0.00038904271471877356
6906.18956967137,0.0003722765470548766
6906.190569443293,0.0003554727253664038
6906.191569215215,0.0003386363851228381
6906.192568987138,0.0003217726815236475
6906.193568759061,0.0003048867875626907
6906.194568530984,0.00028798389209233784
6906.195568302906,0.00027106919788828484
6906.196568074829,0.0002541479197159543
6906.197567846752,0.00023722528239928682
6906.198567618674,0.00022030651889264847
6906.199567390598,0.00020339686835651053
6906.20056716252,0.00018650157423749783
6906.201566934443,0.00016962588235335264
6906.202566706365,0.00015277503898332814
6906.203566478288,0.0001359542889645071
6906.204566250211,0.00011916887379453302
6906.205566022134,0.00010242402974123433
6906.206565794057,8.572498595962232e-05
6906.207565565979,6.907696261675413e-05
6906.208565337902,5.248516902497615e-05
6906.209565109824,3.595480178410035e-05
6906.210564881748,1.9491042933109427e-05
6906.21156465367,3.0990581120270693e-06
6906.212564425593,-1.3216005265376527e-05
6906.213564197516,-2.944901982735223e-05
6906.214563969439,-4.559488004771113e-05
6906.215563741362,-6.164850403643393e-05
6906.216563513284,-7.760483531665448e-05
6906.217563285207,-9.345884458733004e-05
6906.218563057129,-0.00010920553147092556
6906.219562829052,-0.00012483992624546142
6906.220562600975,-0.00014035709156030412
6906.221562372898,-0.00015575212413511288
6906.222562144821,-0.00017102015644138816
6906.223561916743,-0.0001861563583660972
6906.224561688666,-0.0002011559388568715
6906.225561460589,-0.00021601414754828446
6906.226561232512,-0.0002307262763687203
6906.227561004434,-0.00024528766112735215
6906.228560776357,-0.0002596936830807539
6906.22956054828,-0.000273939770478685
6906.230560320202,-0.0002880214000885981
6906.231560092126,-0.0003019340986984294
6906.232559864048,-0.0003156734445972371
6906.233559635971,-0.0003292350690332615
6906.234559407893,-0.00034261465764898056
6906.235559179816,-0.0003558079518927296
6906.236558951739,-0.00036881075040643183
6906.237558723662,-0.0003816189103889468
6906.238558495585,-0.0003942283489344953
6906.239558267507,-0.00040663504434555715
6906.24055803943,-0.0004188350374195893
6906.241557811352,-0.0004308244327088787
6906.242557583276,-0.0004425993997528393
6906.243557355198,-0.00045415617428208263
6906.244557127121,-0.0004654910593936251
6906.245556899044,-0.0004766004266966229
6906.246556670967,-0.00048748071742804795
6906.24755644289,-0.0004981284435377304
6906.248556214812,-0.0005085401887421997
6906.249555986735,-0.0005187126095467665
6906.250555758657,-0.0005286424362353033
6906.25155553058,-0.0005383264738271954
6906.252555302503,-0.0005477616030009553
6906.253555074426,-0.0005569447809840118
6906.254554846349,-0.0005658730424081944
6906.255554618271,-0.000574543500130438
6906.256554390194,-0.0005829533460182142
6906.257554162117,-0.0005910998516991684
6906.25855393404,-0.00059898036927439
6906.259553705962,-0.0006065923319946793
6906.260553477885,-0.0006139332548991042
6906.261553249808,-0.0006210007354150765
6906.26255302173,-0.0006277924539191458
6906.263552793654,-0.000634306174257706
6906.264552565576,-0.0006405397442268519
6906.265552337499,-0.0006464910960106926
6906.266552109421,-0.0006521582465775269
6906.267551881345,-0.0006575392980334093
6906.268551653267,-0.0006626324379327798
6906.26955142519,-0.0006674359395459862
6906.270551197113,-0.0006719481620836945
6906.271550969035,-0.0006761675508783385
6906.272550740958,-0.0006800926375229214
6906.273550512881,-0.0006837220399676283
6906.274550284804,-0.0006870544625748667
6906.275550056726,-0.0006900886961335019
6906.276549828649,-0.0006928236178332032
6906.277549600572,-0.0006952581911999595
6906.278549372495,-0.0006973914659939489
6906.279549144418,-0.000699222578071064
6906.28054891634,-0.0007007507492095171
6906.281548688263,-0.0007019752869030618
6906.282548460185,-0.0007028955841224926
6906.283548232108,-0.0007035111190472135
6906.284548004031,-0.0007038214547687993
6906.285547775954,-0.0007038262389686083
6906.286547547877,-0.0007035252035716315
6906.287547319799,-0.0007029181643788814
6906.288547091722,-0.0007020050206807211
6906.289546863645,-0.0007007857548536123
6906.290546635568,-0.0006992604319427979
6906.29154640749,-0.0006974291992334568
6906.292546179413,-0.0006952922858128492
6906.293545951336,-0.0006928500021259383
6906.294545723258,-0.0006901027395269187
6906.295545495182,-0.0006870509698290046
6906.296545267104,-0.0006836952448547325
6906.297545039027,-0.0006800361959889244
6906.298544810949,-0.0006760745337363198
6906.299544582873,-0.0006718110472857484
6906.300544354795,-0.0006672466040825629
6906.301544126718,-0.0006623821494109284
6906.302543898641,-0.000657218705987453
6906.303543670563,-0.0006517573735675784
6906.304543442486,-0.0006459993285661145
6906.305543214409,-0.0006399458236932815
6906.306542986332,-0.0006335981876076153
6906.307542758254,-0.0006269578245870701
6906.308542530177,-0.000620026214219629
6906.3095423021,-0.000612804911114699
6906.310542074023,-0.0006052955446365332
6906.311541845946,-0.0005974998186608826
6906.312541617868,-0.0005894195113560287
6906.313541389791,-0.0005810564749892838
6906.314541161713,-0.0005724126357599757
6906.315540933636,-0.0005634899936598475
6906.316540705559,-0.0005542906223617282
6906.317540477482,-0.0005448166691372462
6906.318540249405,-0.0005350703548042829
6906.319540021327,-0.0005250539737047817
6906.32053979325,-0.0005147698937134456
6906.321539565173,-0.0005042205562777592
6906.322539337096,-0.0004934084764896625
6906.323539109018,-0.00048233624318908084
6906.324538880941,-0.0004710065190993941
6906.325538652864,-0.0004594220409948019
6906.326538424786,-0.0004475856198994425
6906.32753819671,-0.0004355001413180298
6906.328537968632,-0.00042316856549769183
6906.329537740555,-0.0004105939277206041
6906.330537512477,-0.0003977793386269063
6906.331537284401,-0.0003847279845672678
6906.332537056323,-0.00037144312798432637
6906.333536828246,-0.0003579281078220824
6906.334536600169,-0.00034418633996219366
6906.335536372091,-0.00033022131768599297
6906.336536144014,-0.00031603661216094363
6906.337535915937,-0.00030163587295014654
6906.33853568786,-0.00028702282854341265
6906.339535459782,-0.00027220128690830784
6906.340535231705,-0.0002571751360594584
6906.341535003628,-0.00024194834464427028
6906.342534775551,-0.00022652496254307238
6906.343534547474,-0.00021090912148154982
6906.344534319396,-0.00019510503565320242
6906.345534091319,-0.00017911700234945368
6906.346533863241,-0.0001629494025949581
6906.347533635164,-0.00014660670178560806
6906.348533407087,-0.00013009345032672672
6906.34953317901,-0.00011341428426894102
6906.350532950933,-9.657392593924878e-05
6906.351532722855,-7.95771845648147e-05
6906.352532494779,-6.242895688703767e-05
6906.353532266701,-4.5134227763414166e-05
6906.354532038624,-2.7698070754673894e-05
6906.355531810546,-1.0125648694582966e-05
6906.356531582469,7.577785760298865e-06
6906.357531354392,2.5406889603750376e-05
6906.358531126315,4.3356228978898454e-05
6906.359530898238,6.142027870624548e-05
6906.36053067016,7.959342184400775e-05
6906.361530442083,9.786994928420367e-05
6906.362530214005,0.00011624405938806067
6906.363529985929,0.00013470985766442158
6906.364529757851,0.00015326135649492515
6906.365529529774,0.00017189247490981066
6906.366529301697,0.0001905970384182563
6906.367529073619,0.0002093687788972024
6906.368528845542,0.00022820133454263514
6906.369528617465,0.00024708824988730753
6906.370528389388,0.00026602297588885213
6906.37152816131,0.0002849988700921908
6906.372527933233,0.00030400919687007444
6906.373527705156,0.00032304712774549525
6906.374527477079,0.0003421057417996132
6906.375527249002,0.00036117802616873035
6906.376527020924,0.0003802568766337331
6906.377526792847,0.00039933509830531
6906.378526564769,0.0004184054064081356
6906.379526336692,0.00043746042716710245
6906.380526108615,0.0004564926987985865
6906.381525880538,0.0004754946726096502
6906.382525652461,0.0004944587142080203
6906.383525424383,0.0005133771048256308
6906.384525196307,0.0005322420427584681
6906.385524968229,0.0005510456449254159
6906.386524740152,0.0005697799485487401
6906.387524512074,0.0005884369129588068
6906.388524283997,0.0006070084215255699
6906.38952405592,0.0006254862837193207
6906.390523827843,0.0006438622373031544
6906.391523599766,0.0006621279506595867
6906.392523371688,0.0006802750252537355
6906.393523143611,0.0006982949982354679
6906.394522915533,0.0007161793451828976
6906.395522687457,0.0007339194829895776
6906.396522459379,0.0007515067728976982
6906.397522231302,0.0007689325236795308
6906.398522003225,0.0007861879949692822
6906.399521775147,0.0008032644007474264
6906.40052154707,0.000820152912979463
6906.401521318993,0.0008368446654109146
6906.402521090916,0.0008533307575201969
6906.403520862838,0.0008696022586307814
6906.404520634761,0.0008856502121838141
6906.405520406684,0.0009014656401720243
6906.406520178607,0.0009170395477353812
6906.40751995053,0.0009323629279185251
6906.408519722452,0.0009474267665895298
6906.409519494375,0.0009622220475190669
6906.410519266297,0.0009767397576185442
6906.411519038221,0.0009909708923353038
6906.412518810143,0.001004906461202486
6906.413518582066,0.0010185374935406848
6906.414518353989,0.0010318550443080346
6906.415518125911,0.0010448502000948508
6906.416517897835,0.0010575140852584158
6906.417517669757,0.0010698378681929365
6906.41851744168,0.0010818127677291148
6906.419517213602,0.00109343005965719
6906.420516985525,0.0011046810833667334
6906.421516757448,0.0011155572485959243
6906.422516529371,0.0011260500422825529
6906.423516301294,0.0011361510355085537
6906.424516073216,0.0011458518905295147
6906.425515845139,0.001155144367880271
6906.426515617061,0.0011640203335474093
6906.427515388985,0.0011724717661992172
6906.428515160907,0.001180490764463306
6906.42951493283,0.0011880695542417898
6906.430514704753,0.0011952004960535197
6906.431514476675,0.001201876092392454
6906.432514248598,0.0012080889950907897
6906.433514020521,0.0012138320126750012
6906.434513792444,0.0012190981177024453
6906.435513564366,0.0012238804540656634
6906.436513336289,0.0012281723442510058
6906.437513108212,0.0012319672965376957
6906.438512880135,0.0012352590121229759
6906.439512652058,0.0012380413921585414
6906.44051242398,0.0012403085446830964
6906.441512195903,0.0012420547914355974
6906.442511967825,0.001243274674533606
6906.443511739749,0.0012439629630011774
6906.444511511671,0.0012441146591308605
6906.445511283594,0.0012437250046646554
6906.446511055517,0.0012427894867791578
6906.447510827439,0.0012413038438605947
6906.448510599363,0.0012392640710560078
6906.449510371285,0.0012366664255874615
6906.450510143208,0.0012335074318168024
6906.45150991513,0.001229783886049176
6906.452509687053,0.0012254928610642105
6906.453509458976,0.0012206317103645194
6906.454509230899,0.0012151980721319972
6906.455509002822,0.0012091898728832772
6906.456508774744,0.0012026053308166833
6906.457508546667,0.001195442958844016
6906.458508318589,0.0011877015673015343
6906.459508090513,0.001179380266335504
6906.460507862435,0.0011704784679586772
6906.461507634358,0.001160995887775026
6906.462507406281,0.0011509325463709933
6906.463507178203,0.0011402887703724509
6906.464506950126,0.0011290651931674914
6906.465506722049,0.0011172627552961088
6906.466506493972,0.0011048827045087568
6906.467506265894,0.0010919265954966921
6906.468506037817,0.0010783962892978898
6906.46950580974,0.0010642939523831433
6906.470505581663,0.0010496220554277234
6906.471505353586,0.0010343833717746745
6906.472505125508,0.0010185809755964522
6906.473504897431,0.0010022182397621882
6906.474504669353,0.0009852988334183926
6906.475504441277,0.0009678267192913841
6906.476504213199,0.000949806150720168
6906.477503985122,0.0009312416684288772
6906.478503757045,0.0009121380970482202
6906.479503528967,0.0008925005413956432
6906.480503300891,0.0008723343825240971
6906.481503072813,0.000851645273549394
6906.482502844736,0.000830439135266144
6906.483502616658,0.0008087221515621963
6906.484502388581,0.0007865007646413772
6906.485502160504,0.0007637816700641483
6906.486501932427,0.0007405718116156053
6906.48750170435,0.0007168783760100226
6906.488501476272,0.0006927087874409286
6906.489501248195,0.0006680707019854694
6906.490501020118,0.0006429720018715923
6906.491500792041,0.0006174207896163548
6906.492500563963,0.0005914253820434412
6906.493500335886,0.000564994304187743
6906.494500107809,0.0005381362830946409
6906.495499879731,0.0005108602415214115
6906.496499651655,0.0004831752915479879
6906.497499423577,0.0004550907281041112
6906.4984991955,0.0004266160224197414
6906.499498967422,0.0003977608154054405
6906.500498739345,0.00036853491096930125
6906.501498511268,0.0003389482692768732
6906.502498283191,0.00030901099996042384
6906.503498055114,0.00027873335528377037
6906.504497827036,0.00024812572326880425
6906.505497598959,0.00021719862078971812
6906.506497370881,0.0001859626866408193
6906.507497142805,0.00015442867458368613
6906.508496914727,0.00012260744637929648
6906.50949668665,9.050996481062874e-05
6906.510496458573,5.814728670110182e-05
6906.511496230495,2.5530555934079768e-05
6906.512496002419,-7.329003521483046e-06
6906.513495774341,-4.042009457433064e-05
6906.514495546264,-7.373135395835037e-05
6906.515495318186,-0.00010725135915953834
6906.516495090109,-0.000140968635317983
6906.517494862032,-0.00017487166210048845
6906.518494633955,-0.0002089488805395721
6906.519494405878,-0.00024318869983467657
6906.5204941778,-0.00027757950411153384
6906.521493949723,-0.00031210965913571745
6906.522493721646,-0.00034676751897651876
6906.523493493569,-0.0003815414326173899
6906.524493265491,-0.00041641975050930874
6906.525493037414,-0.0004513908310635411
6906.526492809337,-0.0004864430470803983
6906.527492581259,-0.000521564792110714
6906.528492353183,-0.0005567444867468894
6906.529492125105,-0.0005919705848404793
6906.530491897028,-0.0006272315796433986
6906.53149166895,-0.0006625160098699324
6906.532491440873,-0.0006978124656768307
6906.533491212796,-0.0007331095945588688
6906.534490984719,-0.0007683961071573555
6906.535490756642,-0.0008036607829791725
6906.536490528564,-0.0008388924760240344
6906.537490300487,-0.000874080120317758
6906.538490072409,-0.0009092127353494254
6906.539489844333,-0.000944279431410401
6906.540489616255,-0.0009792694148332104
6906.541489388178,-0.001014171993128308
6906.542489160101,-0.0010489765800167524
6906.543488932023,-0.001083672700356785
6906.544488703947,-0.0011182499949622868
6906.545488475869,-0.001152698225311059
6906.546488247792,-0.0011870072781408783
6906.547488019714,-0.0012211671699312913
6906.548487791637,-0.0012551680512691758
6906.54948756356,-0.001289000211096168
6906.550487335483,-0.0013226540808361567
6906.551487107406,-0.0013561202384011443
6906.552486879328,-0.001389389412073867
6906.553486651251,-0.0014224524842656404
6906.554486423174,-0.0014553004951479822
6906.555486195097,-0.001487924646156638
6906.556485967019,-0.0015203163033667272
6906.557485738942,-0.0015524670007378428
6906.558485510865,-0.0015843684432280524
6906.559485282787,-0.0016160125097758834
6906.560485054711,-0.0016473912561495122
6906.561484826633,-0.0016784969176625057
6906.562484598556,-0.0017093219117556044
6906.563484370478,-0.0017398588404441404
6906.564484142401,-0.0017701004926307991
6906.565483914324,-0.0018000398462835146
6906.566483686247,-0.0018296700704783782
6906.56748345817,-0.0018589845273074938
6906.568483230092,-0.0018879767736517837
6906.569483002015,-0.0019166405628187966
6906.570482773937,-0.0019449698460456161
6906.571482545861,-0.001972958773867016
6906.572482317783,-0.002000601697349059
6906.573482089706,-0.002027893169188394
6906.574481861629,-0.0020548279446775722
6906.575481633552,-0.002081400982536803
6906.576481405475,-0.0021076074456126636
6906.577481177397,-0.0021334427014443732
6906.57848094932,-0.002158902322698299
6906.579480721242,-0.0021839820874714074
6906.580480493165,-0.0022086779794643755
6906.581480265088,-0.0022329861880250965
6906.582480037011,-0.002256903108063312
6906.583479808934,-0.0022804253398371194
6906.584479580856,-0.002303549688612139
6906.585479352779,-0.002326273164194171
6906.586479124702,-0.00234859298033622
6906.587478896625,-0.0023705065540208306
6906.588478668547,-0.0023920115046187507
6906.58947844047,-0.0024131056529249966
6906.590478212393,-0.002433787020073499
6906.591477984315,-0.002454053826331595
6906.592477756239,-0.0024739044897757307
6906.593477528161,-0.002493337624849854
6906.594477300084,-0.0025123520408080764
6906.595477072006,-0.0025309467400432763
6906.596476843929,-0.0025491209163034153
6906.597476615852,-0.002566873952797408
6906.598476387775,-0.00258420542019247
6906.599476159698,-0.002601115074504916
6906.60047593162,-0.002617602854886453
6906.601475703543,-0.0026336688813080275
6906.602475475465,-0.0026493134521433145
6906.603475247389,-0.002664537041653928
6906.604475019311,-0.002679340297378391
6906.605474791234,-0.002693724037426848
6906.606474563157,-0.002707689247683433
6906.60747433508,-0.0027212370789181325
6906.608474107003,-0.00273436884380993
6906.609473878925,-0.002747086013882985
6906.610473650848,-0.002759390216357601
6906.61147342277,-0.002771283230917769
6906.612473194693,-0.0027827669863971292
6906.613472966616,-0.0027938435573852554
6906.614472738539,-0.0028045151607562257
6906.615472510462,-0.0028147841521215015
6906.616472282384,-0.002824653022209204
6906.617472054307,-0.002834124393171941
6906.61847182623,-0.002843201014825416
6906.619471598153,-0.002851885760820105
6906.620471370075,-0.0028601816247483835
6906.621471141998,-0.002868091716189546
6906.622470913921,-0.002875619256695225
6906.623470685843,-0.0028827675757178033
6906.624470457767,-0.002889540106484484
6906.625470229689,-0.0028959403818197204
6906.626470001612,-0.002901972029918837
6906.627469773534,-0.002907638770075697
6906.628469545458,-0.002912944408367356
6906.62946931738,-0.0029178928332987113
6906.630469089303,-0.0029224880114102013
6906.631468861226,-0.0029267339828516863
6906.632468633148,-0.002930634856925678
6906.633468405071,-0.0029341948076031534
6906.634468176994,-0.0029374180690152464
6906.635467948917,-0.0029403089309241862
6906.636467720839,-0.0029428717341769025
6906.637467492762,-0.0029451108661448077
6906.638467264685,-0.002947030756153324
6906.639467036608,-0.002948635870904764
6906.640466808531,-0.002949930709898213
6906.641466580453,-0.0029509198008500844
6906.642466352376,-0.0029516076951190103
6906.643466124298,-0.00295199896313876
6906.644465896221,-0.002952098189862855
6906.645465668144,-0.0029519099702245244
6906.646465440067,-0.0029514389046156452
6906.64746521199,-0.0029506895943882537
6906.648464983912,-0.0029496666373822014
6906.649464755835,-0.002948374623482471
6906.650464527758,-0.0029468181302096256
6906.651464299681,-0.0029450017183467844
6906.652464071603,-0.002942929927606463
6906.653463843526,-0.0029406072723405126
6906.654463615449,-0.002938038237296329
6906.655463387371,-0.002935227273422405
6906.656463159295,-0.002932178793726228
6906.657462931217,-0.0029288971691874464
6906.65846270314,-0.0029253867247291676
6906.659462475062,-0.002921651735250212
6906.660462246986,-0.002917696421721086
6906.661462018908,-0.002913524947346389
6906.662461790831,-0.0029091414137963475
6906.663461562754,-0.0029045498575100814
6906.664461334676,-0.0028997542460731727
6906.665461106599,-0.0028947584746720554
6906.666460878522,-0.002889566362627692
6906.667460650445,-0.002884181650011
6906.668460422367,-0.0028786079943424856
6906.66946019429,-0.002872848967378591
6906.670459966213,-0.002866908051987294
6906.671459738136,-0.00286078863911551
6906.672459510059,-0.0028544940248508744
6906.673459281981,-0.002848027407580446
6906.674459053904,-0.0028413918852488876
6906.675458825826,-0.002834590452718647
6906.676458597749,-0.002827625999234673
6906.677458369672,-0.0028205013059961806
6906.678458141595,-0.002813219043837999
6906.679457913518,-0.002805781771024016
6906.68045768544,-0.0027981919311551914
6906.681457457363,-0.002790451851194571
6906.682457229286,-0.0027825637396116476
6906.683457001209,-0.0027745296846483276
6906.684456773131,-0.0027663516527086612
6906.685456545054,-0.002758031486874377
6906.686456316977,-0.002749570905548146
6906.687456088899,-0.002740971501226366
6906.688455860823,-0.0027322347394031312
6906.689455632745,-0.0027233619576069114
6906.690455404668,-0.0027143543645713098
6906.69145517659,-0.0027052130395411197
6906.692454948514,-0.0026959389317147337
6906.693454720436,-0.002686532859823785
6906.694454492359,-0.0026769955118507564
6906.695454264282,-0.002667327444885174
6906.696454036204,-0.0026575290851188443
6906.697453808127,-0.0026476007279805005
6906.69845358005,-0.0026375425384101026
6906.699453351973,-0.002627354551272918
6906.700453123895,-0.0026170366719134052
6906.701452895818,-0.002606588676848813
6906.7024526677405,-0.0025960102146022923
6906.703452439664,-0.002585300806675172
6906.704452211587,-0.0025744598486579055
6906.705451983509,-0.002563486611479028
6906.706451755432,-0.002552380242791309
6906.707451527354,-0.0025411397684941624
6906.708451299277,-0.0025297640943912447
6906.7094510712,-0.0025182520079821257
6906.710450843123,-0.0025066021803868115
6906.711450615046,-0.0024948131684018183
6906.712450386968,-0.0024828834166863755
6906.713450158892,-0.002470811260077192
6906.714449930814,-0.0024585949260300236
6906.715449702737,-0.0024462325371860847
6906.716449474659,-0.002433722114061106
6906.717449246582,-0.002421061577854629
6906.7184490185045,-0.0024082487533768774
6906.719448790428,-0.0023952813720903346
6906.720448562351,-0.0023821570752629384
6906.721448334273,-0.0023688734172296055
6906.722448106196,-0.0023554278687586377
6906.723447878118,-0.002341817820519393
6906.724447650042,-0.002328040586647463
6906.725447421964,-0.0023140934084034935
6906.726447193887,-0.0022999734579216523
6906.72744696581,-0.002285677842043693
6906.728446737732,-0.0022712036062344947
6906.729446509655,-0.00225654773857492
6906.730446281578,-0.0022417071738278006
6906.731446053501,-0.002226678797572831
6906.732445825423,-0.0022114594504061293
6906.733445597346,-0.002196045932200177
6906.7344453692685,-0.002180435006419825
6906.735445141192,-0.002164623404490022
6906.736444913115,-0.002148607830210895
6906.737444685037,-0.0021323849642157955
6906.73844445696,-0.0021159514684679095
6906.739444228882,-0.002099303990791024
6906.740444000805,-0.002082439169430003
6906.741443772728,-0.0020653536376365046
6906.742443544651,-0.0020480440282754403
6906.743443316574,-0.0020305069784476446
6906.744443088496,-0.0020127391341241835
6906.74544286042,-0.0019947371547877034
6906.746442632342,-0.0019764977180761942
6906.747442404265,-0.0019580175244245236
6906.748442176187,-0.0019392933016990931
6906.74944194811,-0.0019203218098209599
6906.7504417200325,-0.0019010998453727827
6906.751441491956,-0.0018816242461849807
6906.752441263879,-0.0018618918958965263
6906.753441035801,-0.0018418997284858608
6906.754440807724,-0.001821644732767479
6906.755440579646,-0.001801123956849806
6906.75644035157,-0.0017803345125500657
6906.757440123492,-0.001759273579761921
6906.758439895415,-0.0017379384107717698
6906.759439667338,-0.0017163263345196763
6906.76043943926,-0.001694434760801029
6906.761439211183,-0.0016722611844051207
6906.762438983106,-0.0016498031891869548
6906.763438755029,-0.0016270584520686868
6906.764438526951,-0.001604024746967204
6906.765438298874,-0.0015806999486444508
6906.766438070797,-0.0015570820364772097
6906.76743784272,-0.001533169098143139
6906.768437614643,-0.001508959333219977
6906.769437386565,-0.0014844510566949015
6906.770437158488,-0.0014596427023811287
6906.77143693041,-0.0014345328262389068
6906.772436702334,-0.0014091201095981392
6906.773436474256,-0.0013834033622799604
6906.774436246179,-0.0013573815256146702
6906.775436018102,-0.0013310536753535376
6906.776435790024,-0.0013044190244721019
6906.777435561948,-0.0012774769258627125
6906.77843533387,-0.0012502268749141764
6906.779435105793,-0.001222668511976507
6906.780434877715,-0.001194801624708908
6906.781434649638,-0.0011666261503092581
6906.7824344215605,-0.001138142177623521
6906.783434193484,-0.0011093499491336503
6906.784433965407,-0.0010802498628227203
6906.785433737329,-0.0010508424739161585
6906.786433509252,-0.0010211284964981018
6906.787433281174,-0.000991108805002049
6906.788433053098,-0.0009607844355751326
6906.78943282502,-0.0009301565873154958
6906.790432596943,-0.00089922662338242
6906.791432368866,-0.0008679960719789988
6906.792432140788,-0.0008364666272072913
6906.793431912711,-0.0008046401497960095
6906.794431684634,-0.0007725186677009009
6906.795431456557,-0.0007401043765780794
6906.796431228479,-0.0007073996401306431
6906.797431000402,-0.0006744069903290067
6906.798430772325,-0.0006411291275054482
6906.799430544248,-0.0006075689203234435
6906.800430316171,-0.0005737294056224288
6906.801430088093,-0.0005396137881386932
6906.802429860016,-0.0005052254401031752
6906.803429631938,-0.000470567900717019
6906.804429403862,-0.00043564487550583754
6906.805429175784,-0.0004004602355537428
6906.806428947707,-0.0003650180166183169
6906.80742871963,-0.0003293224181278204
6906.808428491552,-0.0002933778020620498
6906.809428263476,-0.0002571886917183715
6906.810428035398,-0.00022075977036456856
6906.811427807321,-0.00018409587978025617
6906.812427579243,-0.0001472020186887388
6906.813427351166,-0.00011008334108130392
6906.8144271230885,-7.274515443606278e-05
6906.815426895012,-3.51929178335559e-05
6906.816426666935,2.5677600285630737e-06
6906.817426438857,4.053112291936874e-05
6906.81842621078,7.869126925456492e-05
6906.819425982702,0.0001170421543699213
6906.820425754626,0.0001555775928856733
6906.821425526548,0.00019429126115927335
6906.822425298471,0.0002331766998238519
6906.823425070394,0.00027222731640972204
6906.824424842316,0.0003114363880462409
6906.825424614239,0.00035079706424131444
6906.826424386162,0.00039030236973579393
6906.827424158085,0.00042994520742996274
6906.828423930007,0.000469718361379255
6906.82942370193,0.0005096144998562936
6906.830423473853,0.0005496261784762905
6906.831423245776,0.0005897458433828296
6906.832423017699,0.0006299658344910419
6906.833422789621,0.0006702783887851814
6906.834422561544,0.0007106756436676377
6906.835422333466,0.0007511496403564522
6906.83642210539,0.0007916923273284515
6906.837421877312,0.0008322955638051677
6906.838421649235,0.0008729511232787719
6906.839421421158,0.0009136506970752989
6906.84042119308,0.0009543858979524947
6906.841420965004,0.0009951482637296594
6906.842420736926,0.0010359292609468957
6906.843420508849,0.0010767202885512029
6906.844420280771,0.0011175126816068864
6906.845420052694,0.001158297715027786
6906.8464198246165,0.001199066607328855
6906.84741959654,0.0012398105243946564
6906.848419368463,0.001280520583262391
6906.849419140385,0.0013211878559170858
6906.850418912308,0.0013618033730966135
6906.851418684231,0.0014023581281042128
6906.852418456154,0.0014428430806262145
6906.853418228076,0.001483249160552686
6906.854417999999,0.0015235672717987502
6906.855417771922,0.0015637882961243802
6906.856417543844,0.0016039030969504935
6906.857417315768,0.001643902523169198
6906.85841708769,0.001683777412946041
6906.859416859613,0.0017235185975120922
6906.860416631535,0.0017631169049436685
6906.861416403458,0.0018025631639274912
6906.862416175381,0.0018418482075090452
6906.863415947304,0.0018809628768219177
6906.864415719227,0.0019198980247959083
6906.865415491149,0.0019586445198417545
6906.866415263072,0.0019971932495103776
6906.867415034994,0.002035535124124625
6906.868414806918,0.002073661080381574
6906.86941457884,0.002111562084923532
6906.870414350763,0.002149229137875947
6906.871414122686,0.0021866532763504987
6906.872413894608,0.0022238255779116973
6906.873413666532,0.0022607371640053484
6906.874413438454,0.00229737920334727
6906.875413210377,0.002333742915270662
6906.876412982299,0.0023698195730305375
6906.877412754222,0.002405600507063637
6906.8784125261445,0.002441077108202287
6906.879412298068,0.002476240830840734
6906.880412069991,0.0025110831960526206
6906.881411841913,0.002545595794658417
6906.882411613836,0.002579770290241845
6906.883411385759,0.0026135984221145546
6906.884411157682,0.0026470720082285705
6906.885410929604,0.0026801829480362933
6906.886410701527,0.002712923225298046
6906.88741047345,0.0027452849108373406
6906.888410245372,0.002777260165244124
6906.889410017296,0.0028088412415263227
6906.890409789218,0.0028400204877099666
6906.891409561141,0.0028707903493881315
6906.892409333063,0.0029011433722188847
6906.893409104986,0.002931072204372342
6906.894408876909,0.0029605695989269043
6906.895408648832,0.0029896284162147313
6906.896408420755,0.0030182416261164877
6906.897408192677,0.0030464023103054434
6906.8984079646,0.003074103664441055
6906.899407736522,0.0031013390003121876
6906.900407508446,0.003128101747930198
6906.901407280368,0.003154385457572116
6906.902407052291,0.0031801838017741653
6906.903406824214,0.0032054905772758353
6906.904406596136,0.0032302997069146603
6906.90540636806,0.0032546052414718176
6906.906406139982,0.003278401361468596
6906.907405911905,0.003301682378913727
6906.908405683827,0.003324442739001511
6906.90940545575,0.0033466770217606082
6906.910405227673,0.0033683799436533103
6906.911404999596,0.003389546359125069
6906.912404771519,0.003410171262104006
6906.913404543441,0.0034302497874501036
6906.914404315364,0.003449777212353737
6906.915404087287,0.003468748957683211
6906.91640385921,0.003487160589280945
6906.917403631132,0.0035050078192079373
6906.918403403055,0.003522286506936177
6906.919403174978,0.003538992660488661
6906.9204029469,0.0035551224375267305
6906.921402718824,0.003570672146384468
6906.922402490746,0.0035856382470499516
6906.923402262669,0.003600017352093177
6906.924402034591,0.0036138062275405166
6906.925401806514,0.003627001793695565
6906.926401578437,0.0036396011259062534
6906.92740135036,0.003651601455278102
6906.928401122283,0.003663000169333508
6906.929400894205,0.0036737948126169826
6906.930400666128,0.0036839830872462927
6906.93140043805,0.0036935628534095076
6906.932400209974,0.0037025321298079896
6906.933399981896,0.0037108890940454253
6906.934399753819,0.0037186320829630196
6906.935399525742,0.003725759592921005
6906.936399297665,0.0037322702800266557
6906.937399069588,0.003738162960309031
6906.93839884151,0.003743436609840721
6906.939398613433,0.0037480903648068995
6906.940398385355,0.003752123521522029
6906.941398157278,0.003755535536394633
6906.942397929201,0.003758326025840567
6906.943397701124,0.0037604947661452576
6906.944397473047,0.0037620416932753705
6906.945397244969,0.003762966902640355
6906.946397016892,0.003763270648804254
6906.947396788815,0.003762953345148137
6906.948396560738,0.0037620155634834553
6906.94939633266,0.003760458033616579
6906.950396104583,0.003758281642864766
6906.951395876506,0.0037554874355237807
6906.952395648428,0.0037520766122873966
6906.953395420352,0.0037480505296189973
6906.954395192274,0.003743410699075515
6906.955394964197,0.003738158786583953
6906.956394736119,0.003732296611670745
6906.957394508042,0.003725826146644242
6906.958394279965,0.003718749515730667
6906.959394051888,0.003711068994163879
6906.960393823811,0.0037027870072293694
6906.961393595733,0.0036939061292629296
6906.962393367656,0.003684429082604485
6906.963393139578,0.0036743587365076044
6906.964392911502,0.00366369810600525
6906.965392683424,0.0036524503507323024
6906.966392455347,0.0036406187737054157
6906.96739222727,0.003628206820060754
6906.968391999193,0.0036152180757501374
6906.969391771116,0.0036016562661961237
6906.970391543038,0.0035875252549065393
6906.971391314961,0.0035728290420489676
6906.972391086883,0.0035575717629856645
6906.973390858806,0.003541757686769383
6906.974390630729,0.003525391214600564
6906.975390402652,0.003508476878246389
6906.976390174575,0.003491019338422208
6906.977389946497,0.0034730233831359206
6906.97838971842,0.0034544939259959235
6906.979389490343,0.003435436004483278
6906.980389262266,0.0034158547781887845
6906.981389034188,0.0033957555270156675
6906.982388806111,0.0033751436493485937
6906.983388578034,0.0033540246601897407
6906.984388349956,0.003332404189262638
6906.98538812188,0.0033102879790845225
6906.986387893802,0.00328768188300796
6906.987387665725,0.0032645918632324975
6906.988387437647,0.0032410239887871637
6906.989387209571,0.003216984433484619
6906.990386981493,0.003192479473847819
6906.991386753416,0.003167515487010095
6906.992386525339,0.003142098948589593
6906.993386297261,0.0031162364305390806
6906.994386069184,0.0030899345989721704
6906.995385841107,0.003063200211967028
6906.99638561303,0.003036040117348623
6906.997385384952,0.0030084612504505327
6906.998385156875,0.0029804706318572595
6906.999384928798,0.002952075365127961
6907.000384700721,0.002923282634502475
6907.001384472644,0.0028940997025904817
6907.002384244566,0.0028645339080446606
6907.003384016489,0.002834592663218719
6907.004383788411,0.002804283451811242
6907.005383560334,0.002773613826496409
6907.006383332257,0.0027425914065427126
6907.00738310418,0.0027112238754209254
6907.008382876103,0.0026795189784026637
6907.009382648025,0.002647484520150983
6907.010382419948,0.002615128362304525
6907.011382191871,0.0025824584210568016
6907.012381963794,0.0025494826647322675
6907.013381735716,0.0025162091113608573
6907.014381507639,0.002482645826252689
6907.015381279562,0.0024488009195746535
6907.016381051484,0.002414682543930583
6907.017380823408,0.0023802988919466735
6907.01838059533,0.0023456581938637823
6907.019380367253,0.0023107687151381127
6907.020380139175,0.0022756387540517164
6907.021379911099,0.0022402766393341024
6907.022379683021,0.00220469072779611
6907.023379454944,0.0021688894019770513
6907.024379226867,0.002132881067805994
6907.025378998789,0.002096674152277912
6907.026378770712,0.0020602771011453366
6907.027378542635,0.002023698376626034
6907.028378314558,0.00198694645512714
6907.02937808648,0.0019500298249861263
6907.030377858403,0.0019129569842289023
6907.031377630326,0.0018757364383452913
6907.032377402249,0.0018383766980820983
6907.033377174172,0.001800886277253949
6907.034376946094,0.0017632736905720855
6907.035376718017,0.0017255474514913196
6907.036376489939,0.0016877160700753768
6907.037376261862,0.0016497880508808925
6907.038376033785,0.0016117718908603396
6907.039375805708,0.001573676077284174
6907.040375577631,0.0015355090856824778
6907.041375349553,0.0014972793778063635
6907.042375121476,0.0014589953996094031
6907.043374893399,0.001420665579249325
6907.044374665322,0.0013822983251102188
6907.045374437244,0.0013439020238454706
6907.046374209167,0.0013054850384416363
6907.04737398109,0.0012670557063034415
6907.048373753012,0.0012286223373600828
6907.049373524936,0.0011901932121930043
6907.050373296858,0.001151776580185321
6907.051373068781,0.001113380657693057
6907.052372840703,0.0010750136262383707
6907.053372612627,0.001036683630724927
6907.054372384549,0.0009983987776755914
6907.055372156472,0.0009601671334926307
6907.056371928395,0.0009219967227406307
6907.057371700317,0.0008838955264523703
6907.05837147224,0.0008458714804579123
6907.059371244163,0.0008079324737371845
6907.060371016086,0.0007700863467963374
6907.061370788008,0.0007323408900681567
6907.062370559931,0.0006947038423368125
6907.063370331854,0.0006571828891872208
6907.064370103777,0.0006197856614792809
6907.0653698757,0.000582519733847237
6907.066369647622,0.0005453926232243805
6907.067369419545,0.0005084117873932762
6907.068369191467,0.0004715846235616582
6907.06936896339,0.0004349184669641177
6907.070368735313,0.00039842058948967086
6907.071368507236,0.0003620981983352668
6907.072368279159,0.0003259584346852535
6907.073368051081,0.0002900083724167642
6907.074367823005,0.00025425501683094234
6907.075367594927,0.00021870530340988785
6907.07636736685,0.00018336609659920484
6907.077367138772,0.000148244188616046
6907.078366910695,0.00011334629828257737
6907.079366682618,7.86790698848123e-05
6907.080366454541,4.4249072056777065e-05
6907.081366226464,1.0062796689969229e-05
6907.082365998386,-2.387334213194667e-05
6907.083365770309,-5.755300917328808e-05
6907.084365542231,-9.096994906145893e-05
6907.085365314155,-0.0001241179872771474
6907.086365086077,-0.00015699103111977718
6907.087364858,-0.00018958307064839038
6907.088364629923,-0.00022188817959815522
6907.089364401845,-0.0002539005162726989
6907.090364173768,-0.00028561432441247215
6907.091363945691,-0.0003170239340393532
6907.092363717614,-0.0003481237622777002
6907.093363489536,-0.00037890831415206397
6907.094363261459,-0.0004093721833617657
6907.095363033382,-0.00043951005303253724
6907.096362805305,-0.0004693166964454027
6907.097362577228,-0.0004987869777429557
6907.09836234915,-0.0005279158526131732
6907.099362121073,-0.0005566983689508949
6907.100361892995,-0.0005851296674970865
6907.101361664918,-0.0006132049824559725
6907.102361436841,-0.0006409196420900721
6907.103361208764,-0.0006682690692930944
6907.104360980687,-0.0006952487821405674
6907.105360752609,-0.0007218543944179926
6907.106360524533,-0.0007480816161262473
6907.107360296455,-0.0007739262539639002
6907.108360068378,-0.0007993842117860712
6907.1093598403,-0.0008244514910394483
6907.110359612223,-0.0008491241911730721
6907.1113593841455,-0.0008733985100245046
6907.112359156069,-0.0008972707441810104
6907.113358927992,-0.0009207372893153924
6907.114358699914,-0.0009437946404961404
6907.115358471837,-0.0009664393924715704
6907.116358243759,-0.0009886682399276698
6907.117358015683,-0.0010104779777194088
6907.118357787605,-0.0010318655010753347
6907.119357559528,-0.001052827805775337
6907.120357331451,-0.0010733619883015293
6907.121357103373,-0.001093465245962272
6907.122356875296,-0.001113134876989407
6907.123356647219,-0.0011323682806088351
6907.124356419142,-0.001151162957084617
6907.125356191064,-0.001169516507736834
6907.126355962987,-0.0011874266349334874
6907.12735573491,-0.0012048911420567728
6907.128355506833,-0.0012219079334441117
6907.129355278756,-0.0012384750143043673
6907.130355050678,-0.0012545904906097038
6907.131354822601,-0.0012702525689635663
6907.132354594523,-0.0012854595564452617
6907.133354366447,-0.0013002098604315993
6907.134354138369,-0.001314501988396033
6907.135353910292,-0.0013283345476857202
6907.136353682215,-0.0013417062452769
6907.137353454137,-0.0013546158875089866
6907.138353226061,-0.0013670623797977753
6907.139352997983,-0.0013790447263281528
6907.140352769906,-0.001390562029726704
6907.141352541828,-0.00140161349071459
6907.142352313751,-0.0014121984077410529
6907.1433520856735,-0.0014223161765978861
6907.144351857597,-0.0014319662900151825
6907.14535162952,-0.001441148337238677
6907.146351401442,-0.0014498620035890062
6907.147351173365,-0.001458107070003231
6907.148350945287,-0.0014658834125590024
6907.149350717211,-0.0014731910019817782
6907.150350489133,-0.001480029903135522
6907.151350261056,-0.0014864002744973239
6907.152350032979,-0.0014923023676163753
6907.153349804901,-0.001497736526557723
6907.154349576824,-0.0015027031873312217
6907.155349348747,-0.0015072028773060807
6907.15634912067,-0.001511236214611414
6907.157348892592,-0.001514803907523203
6907.158348664515,-0.0015179067538380804
6907.159348436438,-0.001520545640234357
6907.160348208361,-0.001522721541620707
6907.161347980284,-0.0015244355204729202
6907.162347752206,-0.0015256887261591318
6907.163347524129,-0.001526482394253906
6907.164347296051,-0.001526817845841542
6907.165347067975,-0.0015266964868089347
6907.166346839897,-0.0015261198071282918
6907.16734661182,-0.0015250893801299777
6907.168346383743,-0.0015236068617657196
6907.169346155665,-0.0015216739898623831
6907.170345927589,-0.0015192925833664855
6907.171345699511,-0.0015164645415795912
6907.172345471434,-0.0015131918433847016
6907.173345243356,-0.0015094765464637333
6907.174345015279,-0.0015053207865061435
6907.1753447872015,-0.0015007267764087493
6907.176344559125,-0.0014956968054667505
6907.177344331048,-0.0014902332385559533
6907.17834410297,-0.0014843385153061645
6907.179343874893,-0.001478015149265721
6907.180343646815,-0.0014712657270571333
6907.181343418739,-0.0014640929075238375
6907.182343190661,-0.0014564994208680871
6907.183342962584,-0.0014484880677800775
6907.184342734507,-0.001440061718558454
6907.185342506429,-0.001431223312222436
6907.186342278352,-0.0014219758556158518
6907.187342050275,-0.0014123224225034534
6907.188341822198,-0.0014022661526599462
6907.18934159412,-0.001391810250952238
6907.190341366043,-0.0013809579864154727
6907.191341137966,-0.0013697126913234884
6907.192340909889,-0.001358077760254389
6907.193340681812,-0.0013460566491519835
6907.194340453734,-0.0013336528743838796
6907.195340225657,-0.0013208700117970523
6907.196339997579,-0.0013077116957717302
6907.197339769503,-0.001294181618274451
6907.198339541425,-0.0012802835279111446
6907.199339313348,-0.0012660212289810993
6907.200339085271,-0.0012513985805326646
6907.201338857193,-0.001236419495421535
6907.202338629117,-0.0012210879393724664
6907.203338401039,-0.0012054079300453048
6907.204338172962,-0.0011893835361062703
6907.205337944884,-0.0011730188763055343
6907.206337716807,-0.0011563181185622608
6907.2073374887295,-0.0011392854790584091
6907.208337260653,-0.001121925221342726
6907.209337032576,-0.001104241655446456
6907.210336804498,-0.0010862391370123725
6907.211336576421,-0.0010679220664387824
6907.212336348344,-0.0010492948880401678
6907.213336120267,-0.001030362089226109
6907.214335892189,-0.0010111281997000937
6907.215335664112,-0.000991597790679753
6907.216335436035,-0.0009717754741400032
6907.217335207957,-0.0009516659020804917
6907.218334979881,-0.0009312737658186762
6907.219334751803,-0.0009106037953097866
6907.220334523726,-0.0008896607584948379
6907.221334295648,-0.0008684494606777833
6907.222334067571,-0.0008469747439328138
6907.223333839494,-0.0008252414865427279
6907.224333611417,-0.0008032546024692062
6907.22533338334,-0.0007810190408557364
6907.226333155262,-0.00075853978556385
6907.227332927185,-0.0007358218547432535
6907.228332699107,-0.0007128703004363703
6907.229332471031,-0.000689690208217774
6907.230332242953,-0.00066628669686898
6907.231332014876,-0.0006426649180890652
6907.232331786799,-0.0006188300562415825
6907.233331558721,-0.0005947873281382174
6907.234331330645,-0.0005705419828595902
6907.235331102567,-0.0005460993016135464
6907.23633087449,-0.0005214645976311975
6907.237330646412,-0.0004966432161008848
6907.238330418335,-0.0004716405341401412
6907.2393301902575,-0.0004464619608056177
6907.240329962181,-0.00042111293714081446
6907.241329734104,-0.00039559893626131814
6907.242329506026,-0.0003699254634770926
6907.243329277949,-0.0003440980564512025
6907.244329049872,-0.0003181222853941745
6907.245328821795,-0.0002920037532930273
6907.246328593717,-0.00026574809617383783
6907.24732836564,-0.0002393609833965683
6907.248328137563,-0.00021284811798076176
6907.249327909485,-0.00018621523696063207
6907.250327681409,-0.0001594681117680246
6907.251327453331,-0.00013261254864170224
6907.252327225254,-0.00010565438906140675
6907.253326997176,-7.859951020514614e-05
6907.254326769099,-5.145382542815825e-05
6907.255326541022,-2.4223284761988758e-05
6907.256326312945,3.086124567898077e-06
6907.257326084868,3.0468377607590206e-05
6907.25832585679,5.791741112493249e-05
6907.259325628713,8.542712304615814e-05
6907.260325400635,0.00011299137188067932
6907.261325172559,0.00014060397613580836
6907.262324944481,0.0001682587137232192
6907.263324716404,0.00019594932135899904
6907.264324488327,0.00022366949395918217
6907.265324260249,0.0002514128840327088
6907.266324032173,0.0002791731010738088
6907.267323804095,0.0003069437109558767
6907.268323576018,0.0003347182353289831
6907.26932334794,0.000362490151023256
6907.270323119863,0.00039025288946046015
6907.271322891786,0.0004179998360761986
6907.272322663709,0.000445724329755248
6907.273322435632,0.00047341966228262196
6907.274322207554,0.0005010790778130294
6907.275321979477,0.000528695772361461
6907.2763217514,0.0005562628933176877
6907.277321523323,0.0005837735389874973
6907.278321295245,0.0006112207581635106
6907.279321067168,0.0006385975497284358
6907.280320839091,0.0006658968622936271
6907.281320611013,0.0006931115938758257
6907.282320382937,0.0007202345916149701
6907.283320154859,0.0007472586515359666
6907.284319926782,0.0007741765183572995
6907.285319698704,0.0008009808853493418
6907.286319470627,0.0008276643942452019
6907.28731924255,0.0008542196352069245
6907.288319014473,0.0008806391468498461
6907.289318786396,0.0009069154163278982
6907.290318558318,0.0009330408794826411
6907.291318330241,0.0009590079210587997
6907.292318102163,0.0009848088749890539
6907.293317874087,0.001010436024750819
6907.294317646009,0.0010358816037977234
6907.295317417932,0.0010611377960684767
6907.296317189855,0.0010861967365758019
6907.297316961778,0.00111105051207809
6907.298316733701,0.0011356911618364345
6907.299316505623,0.001160110678459693
6907.300316277546,0.0011843010088402185
6907.301316049468,0.0012082540551828982
6907.302315821391,0.0012319616761301212
6907.303315593314,0.0012554156879852868
6907.304315365237,0.0012786078660374516
6907.30531513716,0.0013015299459897128
6907.306314909082,0.0013241736254939278
6907.307314681005,0.00134653056579438
6907.308314452928,0.001368592393483026
6907.309314224851,0.0013903507023689634
6907.310313996773,0.0014117970554647522
6907.311313768696,0.001432922987092213
6907.312313540619,0.001453720005110283
6907.313313312541,0.0014741795932674755
6907.314313084465,0.0014942932136814315
6907.315312856387,0.0015140523094480174
6907.31631262831,0.001533448307382362
6907.317312400232,0.0015524726208941883
6907.318312172155,0.00157111665299975
6907.319311944078,0.0015893717994726437
6907.320311716001,0.0016072294521357236
6907.321311487924,0.0016246810022962728
6907.322311259846,0.0016417178443264998
6907.323311031769,0.0016583313793913062
6907.324310803691,0.0016745130193251078
6907.325310575615,0.001690254190659301
6907.326310347537,0.0017055463388017185
6907.32731011946,0.0017203809323691295
6907.328309891383,0.0017347494676735258
6907.329309663306,0.0017486434733625848
6907.330309435229,0.0017620545152143214
6907.331309207151,0.001774974201085541
6907.332308979074,0.001787394186013282
6907.333308750996,0.0017993061774679924
6907.334308522919,0.001810701940756732
6907.335308294842,0.0018215733045742076
6907.336308066765,0.0018319121666989454
6907.337307838688,0.0018417104998313491
6907.33830761061,0.001850960357569829
6907.339307382533,0.0018596538805205746
6907.340307154456,0.0018677833025359278
6907.341306926379,0.0018753409570756983
6907.342306698301,0.0018823192836851753
6907.343306470224,0.0018887108345830106
6907.344306242147,0.0018945082813515918
6907.345306014069,0.0018997044217219689
6907.346305785993,0.0019042921864448482
6907.347305557915,0.0019082646462385989
6907.348305329838,0.0019116150188046377
6907.34930510176,0.0019143366758999647
6907.350304873684,0.00191642315045603
6907.351304645606,0.001917868143732526
6907.352304417529,0.001918665532494113
6907.353304189452,0.00191880937619752
6907.354303961374,0.0019182939241758675
6907.355303733297,0.001917113622806469
6907.35630350522,0.0019152631226477628
6907.357303277143,0.0019127372855304195
6907.358303049065,0.0019095311915870747
6907.359302820988,0.0019056401462045833
6907.360302592911,0.0019010596868822142
6907.361302364834,0.0018957855899788458
6907.362302136757,0.001889813877332022
6907.363301908679,0.0018831408227316952
6907.364301680602,0.001875762958231623
6907.365301452524,0.0018676770802816523
6907.366301224447,0.0018588802556645458
6907.36730099637,0.0018493698272215174
6907.368300768293,0.0018391434193512632
6907.369300540216,0.0018281989432679736
6907.370300312138,0.001816534602004558
6907.371300084061,0.0018041488951481258
6907.372299855984,0.0017910406232956055
6907.373299627907,0.0017772088922182825
6907.374299399829,0.001762653116724977
6907.375299171752,0.001747373024214587
6907.376298943675,0.001731368657909763
6907.377298715597,0.0017146403797645338
6907.378298487521,0.0016971888730397612
6907.379298259443,0.001679015144541348
6907.380298031366,0.0016601205265171582
6907.381297803288,0.0016405066782096518
6907.382297575212,0.0016201755870622657
6907.383297347134,0.0015991295695786307
6907.384297119057,0.0015773712718347506
6907.38529689098,0.0015549036696453193
6907.386296662902,0.0015317300683863667
6907.387296434825,0.0015078541024774348
6907.388296206748,0.0014832797345274344
6907.389295978671,0.0014580112541492342
6907.390295750593,0.0014320532764488683
6907.391295522516,0.0014054107401959802
6907.392295294439,0.001378088905682761
6907.393295066362,0.001350093352279203
6907.394294838285,0.001321429975692946
6907.395294610207,0.0012921049849424044
6907.39629438213,0.0012621248990522013
6907.397294154052,0.0012314965434802418
6907.398293925975,0.0012002270462860049
6907.399293697898,0.0011683238340498361
6907.400293469821,0.0011357946275531677
6907.401293241744,0.0011026474372296665
6907.402293013666,0.0010688905583973425
6907.403292785589,0.0010345325662816148
6907.404292557512,0.0009995823108392685
6907.405292329435,0.0009640489113931407
6907.406292101357,0.0009279417510872474
6907.40729187328,0.000891270471171928
6907.408291645203,0.0008540449651284267
6907.409291417125,0.0008162753726421729
6907.410291189049,0.0007779720734338736
6907.411290960971,0.0007391456809573734
6907.412290732894,0.0006998070359730775
6907.413290504816,0.00065996720000555
6907.41429027674,0.0006196374486936946
6907.415290048662,0.0005788292650417104
6907.416289820585,0.0005375543325787901
6907.417289592508,0.0004958245284353088
6907.41828936443,0.0004536519163430153
6907.419289136353,0.0004110487395665172
6907.420288908276,0.00036802741377312047
6907.421288680199,0.0003246005198478765
6907.422288452121,0.0002807807966604975
6907.423288224044,0.00023658113379063672
6907.424287995967,0.00019201456421788154
6907.42528776789,0.00014709425698266818
6907.426287539813,0.00010183350982418886
6907.427287311735,5.624574180122527e-05
6907.428287083658,1.0344485901703096e-05
6907.42928685558,-3.585661835336916e-05
6907.430286627503,-8.234383230604355e-05
6907.431286399426,-0.00012910332555225268
6907.432286171349,-0.0001761211833220337
6907.433285943272,-0.00022338341384402284
6907.434285715194,-0.00027087595568923214
6907.435285487118,-0.0003185846850892707
6907.43628525904,-0.00036649542322432797
6907.437285030963,-0.00041459394347638734
6907.438284802885,-0.0004628659786432775
6907.439284574808,-0.0005112972281092891
6907.440284346731,-0.0005598733649681805
6907.441284118654,-0.000608580043094484
6907.442283890577,-0.0006574029041591087
6907.443283662499,-0.0007063275845853197
6907.444283434422,-0.0007553397224412665
6907.445283206344,-0.0008044249642653199
6907.446282978268,-0.0008535689718205809
6907.44728275019,-0.000902757428775016
6907.448282522113,-0.0009519760473038063
6907.449282294036,-0.0010012105746106197
6907.450282065958,-0.0010504467993646626
6907.451281837881,-0.0010996705580505056
6907.452281609804,-0.001148867741227828
6907.453281381727,-0.0011980242996983705
6907.454281153649,-0.0012471262505775215
6907.455280925572,-0.0012961596832681123
6907.456280697495,-0.0013451107653341266
6907.457280469418,-0.0013939657482721825
6907.458280241341,-0.001442710973178789
6907.459280013263,-0.001491332876311532
6907.460279785186,-0.0015398179945424998
6907.461279557108,-0.0015881529707023887
6907.462279329031,-0.0016363245588138732
6907.463279100954,-0.0016843196292129165
6907.464278872877,-0.0017321251735567978
6907.4652786448,-0.0017797283097177028
6907.466278416722,-0.0018271162865607885
6907.467278188646,-0.0018742764886057024
6907.468277960568,-0.0019211964405705874
6907.469277732491,-0.001967863811797649
6907.470277504413,-0.0020142664205594126
6907.471277276336,-0.002060392238244852
6907.472277048259,-0.002106229393424603
6907.473276820182,-0.0021517661757945394
6907.474276592105,-0.0021969910399970184
6907.475276364027,-0.002241892609319138
6907.47627613595,-0.00228645967926738
6907.477275907872,-0.002330681221018062
6907.478275679796,-0.002374546384743094
6907.479275451718,-0.0024180445028106445
6907.480275223641,-0.002461165092860438
6907.481274995564,-0.002503897860753536
6907.482274767486,-0.0025462327033965665
6907.483274539409,-0.0025881597114404717
6907.484274311332,-0.0026296691718539086
6907.485274083255,-0.0026707515703714903
6907.486273855177,-0.0027113975938170675
6907.4872736271,-0.0027515981323022595
6907.488273399024,-0.00279134428130043
6907.489273170946,-0.002830627343596275
6907.490272942869,-0.0028694388311111883
6907.491272714791,-0.002907770466604559
6907.492272486714,-0.0029456141852511842
6907.493272258636,-0.0029829621360950133
6907.49427203056,-0.0030198066833794983
6907.495271802482,-0.0030561404077549064
6907.496271574405,-0.0030919561073630346
6907.497271346328,-0.0031272467987998654
6907.49827111825,-0.0031620057179567933
6907.499270890174,-0.0031962263207411593
6907.500270662096,-0.0032299022836768925
6907.501270434019,-0.0032630275043861504
6907.502270205941,-0.0032955961019528884
6907.503269977864,-0.003327602417169333
6907.5042697497865,-0.0033590410126663056
6907.50526952171,-0.0033899066729283296
6907.506269293633,-0.003420194404194414
6907.507269065555,-0.0034498994342453517
6907.508268837478,-0.0034790172120783163
6907.5092686094,-0.003507543407469506
6907.510268381324,-0.0035354739104255088
6907.511268153246,-0.003562804830524076
6907.512267925169,-0.0035895324961449787
6907.513267697092,-0.0036156534535916776
6907.514267469014,-0.003641164466104637
6907.515267240937,-0.0036660625127672136
6907.51626701286,-0.003690344787305162
6907.517266784783,-0.0037140086967809224
6907.518266556705,-0.0037370518601839518
6907.519266328628,-0.003759472106918454
6907.520266100551,-0.0037812674751899564
6907.521265872474,-0.0038024362102922573
6907.522265644397,-0.0038229767627963093
6907.523265416319,-0.0038428877866426496
6907.524265188242,-0.003862168137139014
6907.525264960164,-0.003880816868864804
6907.526264732088,-0.0038988332334841114
6907.52726450401,-0.00391621667746903
6907.528264275933,-0.00393296683973503
6907.529264047856,-0.003949083549190265
6907.530263819778,-0.003964566822200715
6907.531263591702,-0.003979416859973163
6907.532263363624,-0.0039936340458580685
6907.533263135547,-0.004007218942574418
6907.534262907469,-0.004020172289358726
6907.535262679392,-0.004032494999040331
6907.5362624513145,-0.004044188155045161
6907.537262223238,-0.004055253008330144
6907.538261995161,-0.004065690974250386
6907.539261767083,-0.004075503629361287
6907.540261539006,-0.004084692708157668
6907.541261310928,-0.004093260099752026
6907.542261082852,-0.004101207844494007
6907.543260854774,-0.004108538130533187
6907.544260626697,-0.004115253290327254
6907.54526039862,-0.004121355797097704
6907.546260170542,-0.00412684826123519
6907.547259942465,-0.00413173342665669
6907.548259714388,-0.004136014167116699
6907.549259486311,-0.004139693482474704
6907.550259258233,-0.0041427744949212204
6907.551259030156,-0.004145260445164744
6907.552258802079,-0.004147154688581999
6907.553258574002,-0.004148460691333921
6907.554258345925,-0.004149182026449879
6907.555258117847,-0.004149322369882688
6907.55625788977,-0.004148885496537048
6907.557257661692,-0.004147875276274054
6907.558257433616,-0.0041462956698945334
6907.559257205538,-0.004144150725103988
6907.560256977461,-0.004141444572461962
6907.561256749384,-0.004138181421318678
6907.562256521306,-0.0041343655557418025
6907.56325629323,-0.004130001330436162
6907.564256065152,-0.004125093166659232
6907.565255837075,-0.004119645548135136
6907.566255608997,-0.004113663016969889
6907.56725538092,-0.004107150169570542
6907.5682551528425,-0.0041001116525708385
6907.569254924766,-0.004092552158765953
6907.570254696689,-0.0040844764230588285
6907.571254468611,-0.004075889218420615
6907.572254240534,-0.00406679535186766
6907.573254012457,-0.004057199660457501
6907.57425378438,-0.0040471070073062505
6907.575253556302,-0.004036522277629705
6907.576253328225,-0.004025450374810488
6907.577253100148,-0.004013896216493458
6907.57825287207,-0.004001864730711568
6907.579252643994,-0.00398936085204436
6907.580252415916,-0.003976389517811257
6907.581252187839,-0.00396295566430179
6907.582251959761,-0.003949064223044942
6907.583251731684,-0.003934720117119698
6907.584251503607,-0.003919928257508884
6907.58525127553,-0.003904693539498351
6907.586251047453,-0.003889020839123476
6907.587250819375,-0.00387291500966497
6907.588250591298,-0.003856380878195965
6907.58925036322,-0.0038394232421823777
6907.590250135144,-0.003822046866138587
6907.591249907066,-0.0038042564783405254
6907.592249678989,-0.0037860567675983493
6907.593249450912,-0.003767452380090915
6907.594249222834,-0.003748447916264377
6907.595248994758,-0.0037290479277972905
6907.59624876668,-0.003709256914634663
6907.597248538603,-0.003689079322093469
6907.598248310525,-0.0036685195380421892
6907.599248082448,-0.003647581890157003
6907.6002478543705,-0.003626270643257286
6907.601247626294,-0.0036045899967231078
6907.602247398217,-0.0035825440819973998
6907.603247170139,-0.003560136960175436
6907.604246942062,-0.0035373726196841616
6907.605246713985,-0.003514254974053782
6907.606246485908,-0.003490787859783848
6907.60724625783,-0.0034669750343058934
6907.608246029753,-0.003442820174044462
6907.609245801676,-0.003418326872578189
6907.610245573598,-0.0033934986389024847
6907.611245345522,-0.0033683388957952585
6907.612245117444,-0.0033428509782871046
6907.613244889367,-0.0033170381322373734
6907.614244661289,-0.0032909035130175737
6907.615244433212,-0.0032644501843035792
6907.616244205135,-0.003237681116978134
6907.617243977058,-0.003210599188145151
6907.618243748981,-0.003183207180257291
6907.619243520903,-0.003155507780358258
6907.620243292826,-0.003127503579441228
6907.621243064748,-0.003099197071924703
6907.622242836672,-0.0030705906552470426
6907.623242608594,-0.003041686629580797
6907.624242380517,-0.003012487197667874
6907.62524215244,-0.0029829944647764574
6907.626241924362,-0.0029532104387804434
6907.627241696286,-0.0029231370303620507
6907.628241468208,-0.0028927760533380953
6907.629241240131,-0.0028621292251102518
6907.630241012053,-0.0028311981672394567
6907.631240783976,-0.0027999844061444286
6907.632240555899,-0.0027684893739241046
6907.633240327822,-0.0027367144093036126
6907.634240099745,-0.002704660758703245
6907.635239871667,-0.002672329577429729
6907.63623964359,-0.002639721930988927
6907.637239415513,-0.0026068387965189595
6907.638239187436,-0.0025736810643425894
6907.639238959358,-0.0025402495396375617
6907.640238731281,-0.002506544944223451
6907.641238503204,-0.0024725679184634244
6907.642238275126,-0.0024383190232791776
6907.64323804705,-0.0024037987422771577
6907.644237818972,-0.00236900748398401
6907.645237590895,-0.0023339455841890466
6907.646237362817,-0.0022986133083913746
6907.64723713474,-0.0022630108543491884
6907.648236906663,-0.002227138354728615
6907.649236678586,-0.002190995879849398
6907.650236450509,-0.0021545834405245945
6907.651236222431,-0.0021179009909913695
6907.652235994354,-0.00208094843192986
6907.653235766276,-0.0020437256135669955
6907.6542355382,-0.0020062323388620666
6907.655235310122,-0.001968468366770744
6907.656235082045,-0.0019304334155841763
6907.657234853968,-0.001892127166339715
6907.658234625891,-0.0018535492662997571
6907.659234397814,-0.0018146993324951114
6907.660234169736,-0.001775576955329251
6907.661233941659,-0.0017361817022397519
6907.662233713581,-0.001696513121413178
6907.663233485504,-0.0016565707455496407
6907.664233257427,-0.0016163540956732156
6907.66523302935,-0.0015758626849843684
6907.666232801273,-0.0015350960227504828
6907.667232573195,-0.001494053618230529
6907.668232345118,-0.0014527349846298208
6907.669232117041,-0.0014111396430807337
6907.670231888964,-0.001369267126645154
6907.671231660886,-0.0013271169843343635
6907.672231432809,-0.0012846887851420056
6907.673231204732,-0.0012419821220857542
6907.674230976654,-0.0011989966162533024
6907.675230748578,-0.001155731920848304
6907.6762305205,-0.0011121877252319237
6907.677230292423,-0.001068363758955673
6907.678230064345,-0.001024259795781247
6907.679229836268,-0.0009798756576831179
6907.680229608191,-0.0009352112188296955
6907.681229380114,-0.0008902664095389275
6907.682229152037,-0.0008450412202043011
6907.683228923959,-0.0007995357051873058
6907.684228695882,-0.0007537499866725479
6907.685228467804,-0.000707684258481872
6907.686228239728,-0.0006613387898440232
6907.68722801165,-0.0006147139291165688
6907.688227783573,-0.0005678101074569658
6907.689227555496,-0.0005206278424398118
6907.690227327419,-0.00047316774161745395
6907.691227099342,-0.00042543050602127845
6907.692226871264,-0.00037741693360113563
6907.693226643187,-0.00032912792260048594
6907.694226415109,-0.0002805644748649693
6907.695226187032,-0.0002317276990822009
6907.696225958955,-0.0001826188139506956
6907.697225730878,-0.00013323915127591834
6907.698225502801,-8.359015899155391e-05
6907.699225274723,-3.367340410418196e-05
6907.700225046646,1.6509424440355625e-05
6907.701224818569,6.69565129705062e-05
6907.702224590492,0.00011766592038397909
6907.703224362414,0.00016863557552553604
6907.704224134337,0.00021986327464889645
6907.70522390626,0.00027134667896396654
6907.706223678182,0.0003230833122705286
6907.707223450106,0.0003750705586794768
6907.708223222028,0.0004273056604226629
6907.709222993951,0.00047978571575242775
6907.710222765873,0.0005325076769319402
6907.711222537797,0.0005854683483175396
6907.712222309719,0.0006386643845343689
6907.713222081642,0.0006920922887466845
6907.714221853565,0.0007457484110243376
6907.715221625487,0.0007996289468070115
6907.71622139741,0.000853729935467887
6907.717221169333,0.0009080472589784638
6907.718220941256,0.0009625766406762911
6907.719220713178,0.0010173136441373365
6907.720220485101,0.0010722536721546718
6907.721220257024,0.001127391965825063
6907.722220028947,0.0011827236037449478
6907.72321980087,0.0012382435013171477
6907.724219572792,0.0012939464101695197
6907.725219344715,0.0013498269176865842
6907.726219116637,0.0014058794466549876
6907.72721888856,0.0014620982550234724
6907.728218660483,0.0015184774357778364
6907.729218432406,0.0015750109169311813
6907.730218204329,0.0016316924616295572
6907.731217976251,0.0016885156683729224
6907.732217748174,0.0017454739713511334
6907.733217520097,0.0018025606408944555
6907.73421729202,0.0018597687840378795
6907.735217063942,0.0019170913451983435
6907.736216835865,0.0019745211069638023
6907.737216607788,0.0020320506909929656
6907.73821637971,0.0020896725590244533
6907.739216151634,0.002147379013994045
6907.740215923556,0.002205162201258687
6907.741215695479,0.002263014109925894
6907.742215467401,0.0023209265742871756
6907.743215239325,0.0023788912753540743
6907.744215011247,0.0024368997424954113
6907.74521478317,0.0024949433551742875
6907.746214555093,0.002553013344783388
6907.747214327015,0.0026111007965771227
6907.748214098938,0.0026691966516991616
6907.749213870861,0.0027272917093039395
6907.750213642784,0.0027853766287707533
6907.751213414706,0.002843441932009092
6907.752213186629,0.002901478005853867
6907.753212958552,0.0029594751045492144
6907.754212730475,0.0030174233523195264
6907.755212502398,0.0030753127460263372
6907.75621227432,0.0031331331579096105
6907.757212046243,0.0031908743384119103
6907.758211818165,0.0032485259190838307
6907.759211590088,0.0033060774155689505
6907.760211362011,0.0033635182306664666
6907.761211133934,0.003420837657469529
6907.762210905857,0.0034780248825772007
6907.763210677779,0.0035350689893778723
6907.764210449702,0.0035919589614018693
6907.765210221625,0.0036486836857409465
6907.766209993548,0.003705231956532318
6907.76720976547,0.0037615924785048484
6907.768209537393,0.0038177538705850057
6907.769209309316,0.0038737046695601885
6907.770209081238,0.003929433333797039
6907.771208853162,0.003984928247012345
6907.772208625084,0.004040177722094162
6907.773208397007,0.004095170004970802
6907.774208168929,0.0041498932785253425
6907.775207940853,0.004204335666553343
6907.776207712775,0.004258485237761492
6907.777207484698,0.004312330009805024
6907.778207256621,0.004365857953361814
6907.779207028543,0.004419056996241195
6907.780206800466,0.004471915027525625
6907.781206572389,0.0045244199017434586
6907.782206344312,0.004576559443071115
6907.783206116234,0.004628321449563024
6907.784205888157,0.004679693697407763
6907.78520566008,0.00473066394520886
6907.786205432003,0.004781219938288716
6907.787205203926,0.004831349413014113
6907.788204975848,0.004881040101141794
6907.789204747771,0.004930279734182518
6907.790204519693,0.004979056047782001
6907.791204291616,0.0050273567861170805
6907.792204063539,0.00507516970630538
6907.793203835462,0.005122482582826694
6907.794203607385,0.0051692832119542625
6907.795203379307,0.00521555941619403
6907.796203151231,0.005261299048729966
6907.797202923153,0.005306489997873448
6907.798202695076,0.005351120191514669
6907.799202466998,0.005395177601574022
6907.800202238921,0.005438650248451367
6907.801202010844,0.005481526205471137
6907.802201782767,0.005523793603321228
6907.80320155469,0.005565440634483714
6907.804201326612,0.00560645555765549
6907.805201098535,0.0056468267021569565
6907.806200870457,0.005686542472326934
6907.807200642381,0.005725591351902003
6907.808200414303,0.0057639619083784625
6907.809200186226,0.005801642797355108
6907.810199958149,0.005838622766855015
6907.811199730071,0.005874890661624487
6907.812199501994,0.005910435427407327
6907.813199273917,0.005945246115192545
6907.81419904584,0.005979311885433578
6907.815198817762,0.0060126220122370625
6907.816198589685,0.006045165887519122
6907.817198361608,0.006076933025127098
6907.818198133531,0.006107913064924536
6907.819197905454,0.006138095776837283
6907.820197677376,0.0061674710648584935
6907.821197449299,0.006196028971010442
6907.822197221221,0.006223759679261202
6907.823196993144,0.006250653519394322
6907.824196765067,0.006276700970829915
6907.82519653699,0.006301892666395712
6907.826196308913,0.006326219396046878
6907.827196080835,0.006349672110533625
6907.828195852759,0.006372241925015824
6907.829195624681,0.006393920122624025
6907.830195396604,0.00641469815796642
6907.831195168526,0.0064345676605814485
6907.832194940449,0.006453520438335758
6907.833194712372,0.006471548480767366
6907.834194484295,0.0064886439623738495
6907.835194256218,0.0065047992458454485
6907.83619402814,0.006520006885242901
6907.837193800063,0.006534259629119798
6907.838193571985,0.00654755042358918
6907.839193343909,0.006559872415333992
6907.840193115831,0.006571218954560909
6907.841192887754,0.006581583597896932
6907.842192659677,0.006590960111227989
6907.843192431599,0.006599342472478674
6907.844192203522,0.006606724874332043
6907.845191975445,0.0066131017268882914
6907.846191747368,0.006618467660260979
6907.84719151929,0.0066228175271094095
6907.848191291213,0.0066261464051056975
6907.8491910631365,0.006628449599335064
6907.850190835059,0.006629722644627901
6907.851190606982,0.00662996130782223
6907.852190378904,0.0066291615899552615
6907.853190150827,0.006627319728382876
6907.854189922749,0.0066244321988259336
6907.855189694673,0.006620495717342443
6907.856189466595,0.006615507242224701
6907.857189238518,0.006609463975820577
6907.858189010441,0.00660236336627817
6907.859188782363,0.006594203109213112
6907.860188554287,0.006584981149297756
6907.861188326209,0.006574695681771499
6907.862188098132,0.006563345153871432
6907.863187870054,0.006550928266182471
6907.864187641977,0.00653744397390609
6907.8651874139,0.006522891488046743
6907.866187185823,0.00650727027651503
6907.867186957746,0.0064905800651466235
6907.868186729668,0.006472820838635957
6907.869186501591,0.006453992841383669
6907.870186273513,0.006434096578256768
6907.871186045437,0.006413132815260542
6907.872185817359,0.006391102580121228
6907.873185589282,0.006368007162778538
6907.874185361205,0.006343848115787132
6907.875185133127,0.006318627254626249
6907.87618490505,0.006292346657916749
6907.877184676973,0.006265008667544931
6907.878184448896,0.006236615888692595
6907.879184220818,0.006207171189772925
6907.880183992741,0.006176677702271883
6907.8811837646645,0.006145138820494952
6907.882183536587,0.006112558201219172
6907.88318330851,0.006078939763250531
6907.884183080432,0.0060442876868868865
6907.885182852355,0.006008606413286707
6907.886182624277,0.005971900643743989
6907.887182396201,0.005934175338869835
6907.888182168123,0.005895435717681123
6907.889181940046,0.005855687256596848
6907.890181711969,0.00581493568834265
6907.891181483891,0.0057731870007640945
6907.892181255815,0.005730447435549282
6907.893181027737,0.005686723486861342
6907.89418079966,0.005642021899881396
6907.895180571582,0.005596349669262603
6907.896180343505,0.005549714037495908
6907.897180115428,0.00550212249318811
6907.898179887351,0.005453582769252957
6907.899179659274,0.005404102841015949
6907.900179431196,0.005353690924233595
6907.901179203119,0.005302355473027939
6907.902178975041,0.0052501051777372465
6907.903178746965,0.005196948962683864
6907.904178518887,0.0051428959838603445
6907.90517829081,0.00508795562653505
6907.906178062733,0.005032137502778494
6907.907177834655,0.004975451448911765
6907.908177606578,0.0049179075228784255
6907.909177378501,0.004859516001541317
6907.910177150424,0.004800287377905733
6907.911176922346,0.004740232358270421
6907.912176694269,0.004679361859307876
6907.913176466192,0.0046176870050753825
6907.914176238115,0.0045552191239583055
6907.915176010038,0.004491969745547162
6907.91617578196,0.004427950597450088
6907.917175553883,0.004363173602042384
6907.918175325805,0.004297650873154941
6907.919175097729,0.004231394712703362
6907.920174869651,0.004164417607259703
6907.921174641574,0.004096732224568749
6907.922174413497,0.0040283514100108225
6907.923174185419,0.003959288183013074
6907.924173957343,0.0038895557334112083
6907.925173729265,0.0038191674177635534
6907.926173501188,0.00374813675561935
6907.92717327311,0.0036764774257430693
6907.928173045033,0.00360420326229655
6907.929172816956,0.003531328250980694
6907.930172588879,0.0034578665251383985
6907.931172360802,0.003383832361820355
6907.932172132724,0.003309240177815246
6907.933171904647,0.0032341045256458435
6907.93417167657,0.003158440089532498
6907.935171448493,0.003082261681325493
6907.936171220415,0.00300558423640781
6907.937170992338,0.0029284228095699054
6907.938170764261,0.0028507925708582144
6907.939170536183,0.002772708801399196
6907.940170308107,0.0026941868892009016
6907.941170080029,0.0026152423249341437
6907.942169851952,0.0025358906976955314
6907.943169623874,0.0024561476907547504
6907.944169395797,0.002376029077288604
6907.94516916772,0.002295550716104421
6907.946168939643,0.0022147285473554834
6907.947168711566,0.002133578588251115
6907.948168483488,0.002052116928764001
6907.949168255411,0.0019703597273371914
6907.950168027333,0.0018883232065930898
6907.951167799257,0.0018060236490465716
6907.952167571179,0.0017234773928241959
6907.953167343102,0.0016407008273913112
6907.954167115025,0.0015577103892886993
6907.955166886947,0.0014745225578802479
6907.956166658871,0.0013911538511130511
6907.957166430793,0.001307620821291234
6907.958166202716,0.0012239400508647182
6907.959165974638,0.0011401281482340717
6907.960165746561,0.0010562017435724867
6907.961165518484,0.0009721774846658305
6907.962165290407,0.0008880720327716131
6907.96316506233,0.0008039020584975897
6907.964164834252,0.0007196842377006098
6907.965164606175,0.0006354352474062021
6907.966164378098,0.0005511717617493057
6907.967164150021,0.0004669104479364917
6907.968163921943,0.00038266796223000536
6907.969163693866,0.00029846094595398237
6907.970163465789,0.00021430602152325173
6907.971163237711,0.00013021978849521356
6907.972163009635,4.6218819645363514e-05
6907.973162781557,-3.768034293288283e-05
6907.97416255348,-0.00012146119170334114
6907.975162325402,-0.0002051072575364054
6907.976162097325,-0.00028860211353177746
6907.977161869248,-0.00037192937881375566
6907.978161641171,-0.00045507272229826183
6907.979161413094,-0.0005380158664307872
6907.980161185016,-0.0006207425908944139
6907.981160956939,-0.0007032367362870165
6907.982160728861,-0.000785482207766681
6907.983160500785,-0.0008674629786643084
6907.984160272707,-0.000949163094062332
6907.98516004463,-0.0010305666743384639
6907.986159816553,-0.001111657918673398
6907.987159588475,-0.0011924211085214236
6907.988159360399,-0.001272840611042956
6907.989159132321,-0.0013529008824980531
6907.990158904244,-0.0014325864716000513
6907.991158676166,-0.0015118820228285168
6907.992158448089,-0.0015907722797007646
6907.993158220012,-0.0016692420880012181
6907.994157991935,-0.0017472763989679204
6907.995157763858,-0.0018248602724355253
6907.99615753578,-0.001901978879934149
6907.997157307703,-0.00197861750774351
6907.998157079626,-0.0020547615599018658
6907.999156851549,-0.0021303965611693516
6908.000156623471,-0.002205508159945432
6908.001156395394,-0.0022800821311402915
6908.002156167317,-0.002354104379000077
6908.003155939239,-0.002427560939886016
6908.004155711163,-0.002500437985007492
6908.005155483085,-0.0025727218231092522
6908.006155255008,-0.0026443989031129703
6908.00715502693,-0.0027154558167134697
6908.008154798853,-0.0027858793009299565
6908.009154570776,-0.0028556562406126572
6908.010154342699,-0.0029247736709052735
6908.011154114622,-0.0029932187796636494
6908.012153886544,-0.0030609789098309864
6908.013153658467,-0.0031280415617698444
6908.014153430389,-0.003194394395551074
6908.015153202313,-0.00326002523319968
6908.016152974235,-0.003324922060897527
6908.017152746158,-0.0033890730311426534
6908.018152518081,-0.003452466464864914
6908.019152290004,-0.003515090853497589
6908.020152061927,-0.0035769348610045883
6908.021151833849,-0.0036379873258628862
6908.022151605772,-0.0036982372629997865
6908.023151377694,-0.003757673865684595
6908.024151149617,-0.003816286507374218
6908.02515092154,-0.003874064743512159
6908.026150693463,-0.003930998313280359
6908.027150465386,-0.0039870771413033305
6908.028150237308,-0.0040422913393040865
6908.029150009231,-0.0040966312077114556
6908.030149781154,-0.004150087237218501
6908.031149553077,-0.004202650110291886
6908.032149324999,-0.004254310702632124
6908.033149096922,-0.004305060084584741
6908.034148868845,-0.0043548895225023945
6908.035148640767,-0.00440379048005795
6908.036148412691,-0.004451754619508479
6908.037148184613,-0.004498773802910064
6908.038147956536,-0.004544840093283282
6908.039147728458,-0.0045899457557291735
6908.040147500381,-0.004634083258495571
6908.041147272304,-0.004677245273993664
6908.042147044227,-0.0047194246797647825
6908.04314681615,-0.0047606145593975
6908.044146588072,-0.004800808203395227
6908.045146359995,-0.0048399991099946004
6908.046146131917,-0.004878180985935055
6908.047145903841,-0.004915347747180012
6908.048145675763,-0.0049514935195901786
6908.049145447686,-0.004986612639549468
6908.050145219609,-0.005020699654544051
6908.051144991532,-0.005053749323695084
6908.052144763455,-0.005085756618245647
6908.053144535377,-0.005116716722002459
6908.0541443073,-0.005146625031732954
6908.055144079222,-0.005175477157518294
6908.056143851145,-0.005203268923062949
6908.057143623068,-0.005229996365961487
6908.058143394991,-0.005255655737923239
6908.059143166914,-0.005280243504955532
6908.060142938836,-0.005303756347506227
6908.061142710759,-0.005326191160566339
6908.062142482682,-0.005347545053733614
6908.063142254605,-0.0053678153512380315
6908.064142026527,-0.005386999591930347
6908.06514179845,-0.00540509552923488
6908.066141570373,-0.005422101131067859
6908.067141342295,-0.005438014579722665
6908.068141114219,-0.005452834271723361
6908.069140886141,-0.005466558817647866
6908.070140658064,-0.005479187041922122
6908.071140429986,-0.005490717982586552
6908.07214020191,-0.005501150891036065
6908.073139973832,-0.00551048523173481
6908.074139745755,-0.005518720681906816
6908.075139517678,-0.00552585713120362
6908.0761392896,-0.005531894681349891
6908.077139061523,-0.005536833645767995
6908.078138833446,-0.005540674549182386
6908.079138605369,-0.0055434181272045364
6908.080138377291,-0.00554506532589904
6908.081138149214,-0.005545617301331326
6908.082137921137,-0.0055450754190972526
6908.08313769306,-0.00554344125383466
6908.084137464983,-0.005540716588716838
6908.085137236905,-0.005536903414927614
6908.086137008828,-0.00553200393111774
6908.08713678075,-0.0055260205428420955
6908.088136552673,-0.0055189558619772065
6908.089136324596,-0.005510812706118541
6908.090136096519,-0.005501594097957083
6908.091135868442,-0.005491303264634694
6908.092135640364,-0.005479943637077822
6908.093135412287,-0.005467518849309125
6908.09413518421,-0.005454032737736596
6908.095134956133,-0.00543948934041984
6908.096134728055,-0.0054238928963131995
6908.097134499978,-0.005407247844485484
6908.098134271901,-0.005389558823316163
6908.099134043823,-0.00537083066966793
6908.100133815747,-0.0053510684180355615
6908.101133587669,-0.005330277299671041
6908.102133359592,-0.0053084627416848836
6908.103133131514,-0.005285630366123611
6908.104132903438,-0.005261785989023349
6908.10513267536,-0.005236935619439561
6908.106132447283,-0.005211085458452981
6908.107132219206,-0.005184241898151913
6908.108131991128,-0.00515641152059116
6908.109131763051,-0.005127601096727971
6908.110131534974,-0.005097817585335493
6908.111131306897,-0.005067068131894327
6908.112131078819,-0.005035360067462879
6908.113130850742,-0.005002700907527224
6908.114130622665,-0.004969098350831294
6908.115130394588,-0.0049345602781882296
6908.116130166511,-0.004899094751273817
6908.117129938433,-0.004862710011402987
6908.118129710356,-0.004825414478290482
6908.119129482278,-0.0047872167487968955
6908.120129254201,-0.004748125595661417
6908.121129026124,-0.004708149966222687
6908.122128798047,-0.004667298981129267
6908.12312856997,-0.004625581933041216
6908.124128341892,-0.004583008285324266
6908.125128113815,-0.004539587670738013
6908.126127885738,-0.004495329890119437
6908.127127657661,-0.004450244911062969
6908.128127429583,-0.004404342866598153
6908.129127201506,-0.00435763405386583
6908.130126973429,-0.004310128932793653
6908.131126745351,-0.004261838124771601
6908.132126517275,-0.004212772411328083
6908.133126289197,-0.004162942732807112
6908.13412606112,-0.004112360187046983
6908.135125833042,-0.00406103602806083
6908.136125604966,-0.004008981664719463
6908.137125376888,-0.003956208659436819
6908.138125148811,-0.0039027287268584457
6908.139124920734,-0.003848553732553353
6908.140124692656,-0.0037936956917095418
6908.141124464579,-0.0037381667678334347
6908.142124236502,-0.003681979271453273
6908.143124008425,-0.0036251456588264185
6908.144123780347,-0.0035676785306502767
6908.14512355227,-0.0035095906307764
6908.146123324193,-0.0034508948449271195
6908.147123096116,-0.0033916041994138833
6908.148122868039,-0.003331731859856319
6908.149122639961,-0.0032712911299009333
6908.150122411884,-0.003210295449938298
6908.151122183806,-0.0031487583958175612
6908.152121955729,-0.003086693677557106
6908.153121727652,-0.003024115138050227
6908.154121499575,-0.002961036751764671
6908.155121271498,-0.002897472623434907
6908.15612104342,-0.0028334369867459796
6908.157120815344,-0.0027689442030077835
6908.158120587266,-0.0027040087598185925
6908.159120359189,-0.002638645269716665
6908.160120131111,-0.0025728684688187415
6908.161119903034,-0.0025066932154442436
6908.162119674957,-0.0024401344887239646
6908.16311944688,-0.0023732073871920527
6908.164119218803,-0.0023059271273600528
6908.165118990725,-0.002238309042271759
6908.166118762648,-0.0021703685800375815
6908.16711853457,-0.002102121302347075
6908.168118306494,-0.0020335828829582013
6908.169118078416,-0.0019647691061617997
6908.170117850339,-0.0018956958652196368
6908.171117622262,-0.0018263791607742803
6908.172117394184,-0.001756835099228937
6908.173117166107,-0.0016870798910952744
6908.17411693803,-0.001617129849307184
6908.175116709953,-0.0015470013874983788
6908.176116481875,-0.001476711018241693
6908.177116253798,-0.0014062753512479253
6908.178116025721,-0.0013357110915220465
6908.179115797644,-0.0012650350374745877
6908.180115569567,-0.0011942640789860159
6908.181115341489,-0.0011234151954219013
6908.182115113412,-0.0010525054535966713
6908.183114885334,-0.0009815520056837225
6908.184114657257,-0.0009105720870696513
6908.18511442918,-0.0008395830141503614
6908.186114201103,-0.0007686021820668258
6908.187113973026,-0.0006976470623783309
6908.188113744948,-0.0006267352006710979
6908.189113516872,-0.0005558842141002629
6908.190113288794,-0.00048511178886329585
6908.191113060717,-0.0004144356776030161
6908.192112832639,-0.00034387369673843877
6908.193112604562,-0.000273443723721739
6908.194112376485,-0.00020316369421965875
6908.195112148408,-0.0001330515992177078
6908.196111920331,-6.312548204553942e-05
6908.197111692253,6.596564678093321e-06
6908.198111464176,7.609640218236972e-05
6908.199111236098,0.00014535584876497145
6908.200111008022,0.0002143566830977194
6908.201110779944,0.0002830806476187832
6908.202110551867,0.000351509452012937
6908.20311032379,0.00041962477678129576
6908.204110095712,0.00048740827690192505
6908.205109867635,0.0005548415855826806
6908.206109639558,0.0006219063181076071
6908.207109411481,0.0006885840757782039
6908.208109183403,0.0007548564499508518
6908.209108955326,0.000820705026171676
6908.2101087272495,0.0008861113884101026
6908.211108499172,0.0009510571233923357
6908.212108271095,0.001015523825035975
6908.213108043017,0.0010794930989869872
6908.21410781494,0.0011429465672602875
6908.215107586862,0.001205865872985277
6908.216107358786,0.001268232685257808
6908.217107130708,0.0013300287041002157
6908.218106902631,0.0013912356655312067
6908.219106674554,0.0014518353467475088
6908.220106446476,0.0015118095714192128
6908.2211062184,0.001571140215100697
6908.222105990322,0.0016298092107588959
6908.223105762245,0.0016877985544205085
6908.224105534167,0.0017450903109395275
6908.22510530609,0.0018016666198862686
6908.226105078013,0.0018575097015588802
6908.227104849936,0.001912601863118136
6908.228104621859,0.00196692550484617
6908.229104393781,0.002020463126529663
6908.230104165704,0.002073197333967865
6908.231103937626,0.0021251108456056835
6908.23210370955,0.0021761864992919165
6908.233103481472,0.0022264072591625097
6908.234103253395,0.0022757562226485323
6908.235103025318,0.002324216627608317
6908.23610279724,0.0023717718595829716
6908.237102569163,0.0024184054591741876
6908.238102341086,0.00246410112954296
6908.239102113009,0.002508842744027512
6908.240101884931,0.0025526143538783337
6908.241101656854,0.002595400196107834
6908.2421014287775,0.0026371847014516683
6908.2431012007,0.0026779525024383404
6908.244100972623,0.002717688441563197
6908.245100744545,0.0027563775795624466
6908.246100516468,0.0027940052037823573
6908.24710028839,0.0028305568366382913
6908.248100060314,0.0028660182441577952
6908.249099832236,0.0029003754446014977
6908.250099604159,0.0029336147171551206
6908.251099376082,0.002965722610685459
6908.252099148004,0.0029966859525527027
6908.253098919928,0.0030264918574709945
6908.25409869185,0.003055127736408578
6908.255098463773,0.0030825813055183624
6908.256098235695,0.0031088405950891757
6908.257098007618,0.003133893958507456
6908.258097779541,0.0031577300812185723
6908.259097551464,0.0031803379896764654
6908.260097323387,0.0032017070602697725
6908.261097095309,0.003221827028212076
6908.262096867232,0.0032406879963834123
6908.263096639154,0.0032582804441096107
6908.264096411078,0.003274595235865516
6908.265096183,0.0032896236298875824
6908.266095954923,0.003303357286680795
6908.267095726846,0.0033157882774043496
6908.268095498768,0.0033269090921200367
6908.269095270691,0.003336712647886769
6908.270095042614,0.003345192296684264
6908.271094814537,0.0033523418331484704
6908.272094586459,0.0033581555021009305
6908.273094358382,0.0033626280058539353
6908.2740941303055,0.0033657545112730316
6908.275093902228,0.003367530656578254
6908.276093674151,0.0033679525578654184
6908.277093446073,0.003367016815328999
6908.278093217996,0.003364720519168506
6908.279092989918,0.0033610612551608415
6908.280092761842,0.0033560371098819075
6908.281092533764,0.0033496466755615854
6908.282092305687,0.003341889054557249
6908.28309207761,0.00333276386343205
6908.284091849532,0.003322271236625363
6908.285091621456,0.0033104118297039888
6908.286091393378,0.003297186822183945
6908.287091165301,0.0032825979199138993
6908.288090937223,0.003266647357012604
6908.289090709146,0.0032493378973540124
6908.290090481069,0.003230672835595124
6908.291090252992,0.003210655997742975
6908.292090024915,0.0031892917412585523
6908.293089796837,0.003166584954696731
6908.29408956876,0.0031425410568826154
6908.295089340683,0.0031171659956259106
6908.296089112606,0.0030904662459761297
6908.297088884528,0.0030624488080226026
6908.298088656451,0.003033121204244357
6908.299088428374,0.0030024914764160276
6908.300088200296,0.0029705681820769614
6908.30108797222,0.00293736039057166
6908.302087744142,0.0029028776786706348
6908.303087516065,0.0028671301257815773
6908.304087287987,0.0028301283087615635
6908.30508705991,0.0027918832963416762
6908.306086831833,0.0027524066431760977
6908.307086603756,0.002711710383528246
6908.308086375679,0.002669807024606981
6908.309086147601,0.002626709539566283
6908.310085919524,0.002582431360182047
6908.311085691446,0.002536986369219857
6908.31208546337,0.0024903888925076815
6908.313085235292,0.0024426536907275064
6908.314085007215,0.0023937959509398496
6908.315084779138,0.0023438312778550205
6908.31608455106,0.002292775684864812
6908.317084322984,0.002240645584848124
6908.318084094906,0.002187457780763782
6908.319083866829,0.0021332294560435687
6908.320083638751,0.0020779781647982144
6908.321083410674,0.002021721821848821
6908.3220831825965,0.001964478692595884
6908.32308295452,0.001906267382737809
6908.324082726443,0.0018471068278505687
6908.325082498365,0.001787016282839939
6908.326082270288,0.0017260153112775849
6908.327082042211,0.0016641237746321251
6908.328081814134,0.0016013618214061835
6908.329081586056,0.0015377498761903086
6908.330081357979,0.0014733086286445065
6908.331081129902,0.0014080590224179437
6908.332080901824,0.001342022244017151
6908.333080673748,0.0012752197116327488
6908.33408044567,0.001207673063934406
6908.335080217593,0.0011394041488433958
6908.336079989515,0.001070435012291816
6908.337079761438,0.0010007878869772488
6908.338079533361,0.0009304851811213744
6908.339079305284,0.0008595494672407937
6908.340079077207,0.0007880034709380443
6908.341078849129,0.0007158700597205067
6908.342078621052,0.0006431722318545839
6908.343078392974,0.000569933105262197
6908.344078164898,0.0004961759064662899
6908.34507793682,0.00042192395959169917
6908.346077708743,0.00034720067542741336
6908.347077480666,0.0002720295405559698
6908.348077252588,0.00019643410655549416
6908.349077024512,0.00012043797927969333
6908.350076796434,4.4064808220946844e-05
6908.351076568357,-3.266172403850274e-05
6908.352076340279,-0.00010971791228239514
6908.353076112202,-0.00018708003901860302
6908.354075884125,-0.0002647243847349965
6908.355075656048,-0.0003426272380485831
6908.356075427971,-0.0004207649057436565
6908.357075199893,-0.0004991137226948793
6908.358074971816,-0.0005776500616714317
6908.359074743739,-0.0006563503430185671
6908.360074515662,-0.0007351910442131209
6908.361074287584,-0.0008141487092897017
6908.362074059507,-0.0008931999581344677
6908.36307383143,-0.0009723214956435389
6908.364073603352,-0.0010514901207432424
6908.365073375276,-0.0011306827352695074
6908.366073147198,-0.0012098763527038563
6908.367072919121,-0.0012890481067635632
6908.368072691043,-0.0013681752598436756
6908.369072462966,-0.0014472352113087145
6908.370072234889,-0.001526205505631985
6908.371072006812,-0.0016050638403805378
6908.372071778735,-0.0016837880740439215
6908.373071550657,-0.0017623562337049687
6908.37407132258,-0.0018407465225509603
6908.375071094502,-0.0019189373272236149
6908.376070866426,-0.0019969072250064284
6908.377070638348,-0.002074634990847976
6908.378070410271,-0.0021520996042198484
6908.379070182194,-0.0022292802558079644
6908.380069954117,-0.0023061563540360346
6908.38106972604,-0.002382707531420036
6908.382069497962,-0.0024589136507525986
6908.383069269885,-0.0025347548111162694
6908.384069041807,-0.0026102113537246644
6908.38506881373,-0.0026852638675905877
6908.386068585653,-0.0027598931950202454
6908.387068357576,-0.0028340804369327423
6908.388068129499,-0.002907806958004132
6908.389067901421,-0.002981054391635369
6908.390067673344,-0.0030538046447436224
6908.391067445267,-0.0031260399023765495
6908.39206721719,-0.0031977426321492504
6908.393066989112,-0.0032688955885037648
6908.394066761035,-0.0033394818167910897
6908.395066532958,-0.0034094846571757816
6908.39606630488,-0.003478887748363258
6908.397066076804,-0.003547675031149892
6908.398065848726,-0.0036158307517959462
6908.399065620649,-0.0036833394652213214
6908.400065392571,-0.0037501860380240374
6908.401065164494,-0.003816355651321318
6908.402064936417,-0.003881833803413126
6908.40306470834,-0.0039466063122680275
6908.404064480263,-0.004010659317831362
6908.405064252185,-0.004073979284155865
6908.406064024108,-0.0041365530013551316
6908.40706379603,-0.004198367587380529
6908.408063567954,-0.0042594104896224215
6908.409063339876,-0.00431966948633672
6908.410063111799,-0.004379132687897879
6908.411062883722,-0.004437788537879542
6908.412062655645,-0.004495625813964044
6908.413062427568,-0.004552633628682022
6908.41406219949,-0.004608801429983372
6908.415061971413,-0.0046641190016408676
6908.416061743335,-0.004718576463487784
6908.417061515258,-0.004772164271491005
6908.418061287181,-0.004824873217661206
6908.419061059104,-0.004876694429801894
6908.420060831027,-0.004927619371099242
6908.421060602949,-0.004977639839554899
6908.422060374872,-0.005026747967264081
6908.423060146795,-0.005074936219541482
6908.424059918718,-0.005122197393897709
6908.42505969064,-0.005168524618869087
6908.426059462563,-0.0052139113527038365
6908.427059234486,-0.005258351381907757
6908.428059006408,-0.005301838819652623
6908.429058778332,-0.005344368104050593
6908.430058550254,-0.005385933996297933
6908.431058322177,-0.005426531578691366
6908.432058094099,-0.005466156252520282
6908.433057866023,-0.005504803735837953
6908.434057637945,-0.005542470061114754
6908.435057409868,-0.005579151572776286
6908.436057181791,-0.005614844924629133
6908.437056953713,-0.005649547077176925
6908.438056725636,-0.005683255294829267
6908.439056497559,-0.005715967143006098
6908.440056269482,-0.005747680485140073
6908.441056041404,-0.005778393479579606
6908.442055813327,-0.0058081045763953235
6908.44305558525,-0.00583681251409276
6908.444055357173,-0.005864516316234169
6908.445055129096,-0.005891215287972381
6908.446054901018,-0.0059169090124996495
6908.447054672941,-0.005941597347414447
6908.448054444863,-0.005965280421009176
6908.449054216786,-0.0059879586284817795
6908.450053988709,-0.006009632628074269
6908.451053760632,-0.006030303337141253
6908.452053532555,-0.006049971928151587
6908.453053304477,-0.006068639824626397
6908.4540530764,-0.006086308697016766
6908.455052848323,-0.006102980458524422
6908.456052620246,-0.006118657260868802
6908.457052392168,-0.006133341490003804
6908.458052164091,-0.006147035761787476
6908.459051936014,-0.006159742917607822
6908.460051707936,-0.006171466019967817
6908.46105147986,-0.006182208348032669
6908.462051251782,-0.00619197339314228
6908.463051023705,-0.006200764854291819
6908.464050795627,-0.006208586633583322
6908.465050567551,-0.006215442831651177
6908.466050339473,-0.0062213377430643865
6908.467050111396,-0.006226275851708564
6908.468049883319,-0.0062302618261506
6908.469049655241,-0.006233300514988987
6908.470049427164,-0.0062353969421928175
6908.471049199087,-0.006236556302432511
6908.47204897101,-0.00623678395640536
6908.473048742932,-0.006236085426159031
6908.474048514855,-0.006234466390416162
6908.475048286778,-0.006231932679903216
6908.476048058701,-0.006228490272686722
6908.477047830624,-0.006224145289519998
6908.478047602546,-0.006218903989203364
6908.479047374469,-0.006212772763960795
6908.480047146391,-0.006205758134835882
6908.481046918314,-0.006197866747109902
6908.482046690237,-0.006189105365744707
6908.48304646216,-0.006179480870853072
6908.484046234083,-0.006169000253199067
6908.485046006005,-0.006157670609730886
6908.486045777928,-0.006145499139148454
6908.487045549851,-0.006132493137507909
6908.488045321774,-0.0061186599938648925
6908.489045093696,-0.0061040071859583085
6908.490044865619,-0.0060885422759359735
6908.491044637542,-0.0060722729061233405
6908.492044409464,-0.006055206794836279
6908.493044181388,-0.006037351732238717
6908.49404395331,-0.006018715576245843
6908.495043725233,-0.005999306248473491
6908.496043497155,-0.0059791317302344184
6908.497043269079,-0.005958200058582195
6908.498043041001,-0.005936519322403619
6908.499042812924,-0.005914097658560616
6908.500042584847,-0.0058909432480827055
6908.501042356769,-0.005867064312411175
6908.502042128692,-0.005842469109696107
6908.503041900615,-0.005817165931147475
6908.504041672538,-0.005791163097441491
6908.50504144446,-0.005764468955183367
6908.506041216383,-0.005737091873427711
6908.507040988306,-0.005709040240257735
6908.508040760229,-0.005680322459424499
6908.509040532152,-0.005650946947047368
6908.510040304074,-0.005620922128376867
6908.511040075997,-0.005590256434621016
6908.512039847919,-0.005558958299836098
6908.513039619842,-0.005527036157882694
6908.514039391765,-0.005494498439447638
6908.515039163688,-0.005461353569132324
6908.516038935611,-0.005427609962607733
6908.517038707533,-0.005393276023836397
6908.518038479457,-0.005358360142361536
6908.519038251379,-0.005322870690663643
6908.520038023302,-0.005286816021584848
6908.521037795224,-0.005250204465821481
6908.522037567147,-0.005213044329485257
6908.52303733907,-0.005175343891733532
6908.524037110993,-0.005137111402469027
6908.525036882916,-0.005098355080109362
6908.526036654838,-0.005059083109426747
6908.527036426761,-0.0050193036394581
6908.528036198683,-0.004979024781485896
6908.529035970607,-0.004938254607090041
6908.530035742529,-0.004897001146271093
6908.531035514452,-0.004855272385645192
6908.532035286375,-0.004813076266711068
6908.533035058297,-0.00477042068418956
6908.53403483022,-0.004727313484436045
6908.535034602143,-0.004683762463926169
6908.536034374066,-0.004639775367815281
6908.537034145988,-0.004595359888571835
6908.538033917911,-0.004550523664685034
6908.539033689834,-0.004505274279446846
6908.540033461757,-0.004459619259808514
6908.54103323368,-0.004413566075311641
6908.542033005602,-0.004367122137093906
6908.543032777525,-0.004320294796969457
6908.544032549447,-0.004273091346584022
6908.54503232137,-0.0042255190166447
6908.546032093293,-0.004177584976224391
6908.547031865216,-0.0041292963321407005
6908.548031637139,-0.0040806601284090705
6908.549031409061,-0.004031683345769763
6908.550031180985,-0.003982372901288192
6908.551030952907,-0.003932735648027951
6908.55203072483,-0.003882778374795736
6908.553030496752,-0.00383250780595722
6908.554030268675,-0.003781930601322787
6908.555030040598,-0.003731053356101901
6908.556029812521,-0.003679882600924774
6908.557029584444,-0.0036284248019299
6908.558029356366,-0.0035766863609159594
6908.559029128289,-0.003524673615556548
6908.560028900211,-0.0034723928396761345
6908.561028672135,-0.0034198502435856446
6908.562028444057,-0.0033670519744760197
6908.56302821598,-0.003314004116868084
6908.564027987903,-0.003260712693117014
6908.565027759825,-0.0032071836639696906
6908.566027531748,-0.0031534229291731914
6908.567027303671,-0.0030994363281326774
6908.568027075594,-0.0030452296406168968
6908.569026847516,-0.0029908085875095217
6908.570026619439,-0.002936178831604482
6908.5710263913625,-0.002881345978443404
6908.572026163285,-0.0028263155771931755
6908.573025935208,-0.002771093121561553
6908.57402570713,-0.0027156840507486023
6908.575025479053,-0.0026600937504316653
6908.576025250975,-0.0026043275537814617
6908.577025022899,-0.002548390742506853
6908.578024794821,-0.0024922885479257474
6908.579024566744,-0.0024360261520596205
6908.580024338667,-0.0023796086887491394
6908.581024110589,-0.0023230412447884006
6908.582023882513,-0.0022663288610753436
6908.583023654435,-0.0022094765337759216
6908.584023426358,-0.0021524892154996486
6908.58502319828,-0.0020953718164841285
6908.586022970203,-0.002038129205786148
6908.587022742126,-0.0019807662124768726
6908.588022514049,-0.0019232876268386182
6908.589022285972,-0.0018656982015606176
6908.590022057894,-0.001808002652931145
6908.591021829817,-0.001750205662023338
6908.592021601739,-0.0016923118758720647
6908.593021373663,-0.0016343259086392514
6908.594021145585,-0.0015762523427651992
6908.595020917508,-0.0015180957301035877
6908.596020689431,-0.001459860593038036
6908.597020461353,-0.0014015514255782645
6908.598020233276,-0.0013431726944340585
6908.599020005199,-0.0012847288400653666
6908.600019777122,-0.0012262242777069839
6908.601019549044,-0.0011676633983663744
6908.602019320967,-0.0011090505697932773
6908.6030190928905,-0.0010503901374198392
6908.604018864813,-0.0009916864252701378
6908.605018636736,-0.0009329437368381006
6908.606018408658,-0.0008741663559329801
6908.607018180581,-0.000815358547491722
6908.608017952503,-0.0007565245583577374
6908.609017724427,-0.0006976686180257616
6908.610017496349,-0.0006387949393526351
6908.611017268272,-0.0005799077192339864
6908.612017040195,-0.000521011139246913
6908.613016812117,-0.00046210936625887023
6908.614016584041,-0.0004032065530030756
6908.615016355963,-0.0003443068386208153
6908.616016127886,-0.0002854143491711152
6908.617015899808,-0.00022653319810829226
6908.618015671731,-0.0001676674867279477
6908.619015443654,-0.00010882130458199457
6908.620015215577,-4.999872986333291e-05
6908.6210149875,8.796170239195221e-06
6908.622014759422,6.755933921490761e-05
6908.623014531345,0.00012628673093372035
6908.624014303267,0.00018497430937611356
6908.625014075191,0.00024361804838970064
6908.626013847113,0.00030221393147134446
6908.627013619036,0.00036075795157362585
6908.628013390959,0.0004192461109343368
6908.629013162881,0.00047767442092756004
6908.630012934804,0.0005360389019348127
6908.631012706727,0.0005943355832346793
6908.63201247865,0.0006525605029093463
6908.633012250572,0.0007107097077664716
6908.634012022495,0.0007687792532748706
6908.6350117944185,0.0008267652035125796
6908.636011566341,0.0008846636311259602
6908.637011338264,0.0009424706172986282
6908.638011110186,0.0010001822517291207
6908.639010882109,0.0010577946326163472
6908.640010654031,0.0011153038666519921
6908.641010425955,0.0011727060690191334
6908.642010197877,0.0012299973633964358
6908.6430099698,0.0012871738819673533
6908.644009741723,0.0013442317654338654
6908.645009513645,0.0014011671630343797
6908.646009285569,0.0014579762325655622
6908.647009057491,0.0015146551404080215
6908.648008829414,0.0015712000615559552
6908.649008601336,0.0016276071796510665
6908.650008373259,0.0016838726870212458
6908.651008145182,0.0017399927847246686
6908.652007917105,0.001795963682600052
6908.653007689028,0.0018517815993238289
6908.65400746095,0.0019074427624749591
6908.655007232873,0.001962943408608031
6908.656007004796,0.002018279783335237
6908.657006776719,0.0020734481414177866
6908.658006548641,0.0021284447468673516
6908.659006320564,0.002183265873058195
6908.660006092487,0.0022379078028507637
6908.661005864409,0.0022923668287276535
6908.662005636333,0.002346639252943014
6908.663005408255,0.002400721387686616
6908.664005180178,0.0024546095552639277
6908.6650049521,0.002508300088293649
6908.666004724023,0.0025617893299241905
6908.6670044959465,0.0026150736340705676
6908.668004267869,0.0026681493656730876
6908.669004039792,0.0027210129009790497
6908.670003811714,0.0027736606278484888
6908.671003583637,0.0028260889460847765
6908.672003355559,0.002878294267790686
6908.673003127483,0.002930273017750336
6908.674002899405,0.0029820216338372844
6908.675002671328,0.0030335365674488924
6908.676002443251,0.0030848142839670126
6908.677002215173,0.003135851263244968
6908.678001987097,0.003186644000120757
6908.679001759019,0.003237189004956337
6908.680001530942,0.0032874828042028046
6908.681001302864,0.003337521940991212
6908.682001074787,0.00338730297574871
6908.68300084671,0.0034368224868396267
6908.684000618633,0.0034860770712310243
6908.685000390556,0.0035350633451821864
6908.686000162478,0.0035837779449573908
6908.686999934401,0.0036322175275612335
6908.687999706324,0.0036803787714956857
6908.688999478247,0.003728258377537992
6908.689999250169,0.003775853069538456
6908.690999022092,0.003823159595237105
6908.691998794015,0.0038701747270981925
6908.692998565937,0.003916895263161459
6908.693998337861,0.00396331802790903
6908.694998109783,0.004009439873146813
6908.695997881706,0.00405525767889922
6908.696997653628,0.004100768354316036
6908.697997425551,0.004145968838590228
6908.6989971974745,0.004190856101885473
6908.699996969397,0.004235427146272135
6908.70099674132,0.004279679006670435
6908.701996513242,0.0043236087517994765
6908.702996285165,0.0043672134851308044
6908.703996057087,0.004410490345845123
6908.704995829011,0.004453436509790787
6908.705995600933,0.004496049190442613
6908.706995372856,0.004538325639859525
6908.707995144779,0.0045802631496394694
6908.708994916701,0.004621859051870011
6908.709994688625,0.004663110720072939
6908.710994460547,0.00470401557014122
6908.71199423247,0.004744571061266592
6908.712994004392,0.004784774696856127
6908.713993776315,0.004824624025436081
6908.714993548238,0.004864116641541388
6908.715993320161,0.004903250186589159
6908.716993092084,0.004942022349734637
6908.717992864006,0.004980430868708087
6908.718992635929,0.0050184735306311986
6908.719992407852,0.005056148172811666
6908.720992179775,0.005093452683514722
6908.721991951697,0.005130385002710477
6908.72299172362,0.005166943122796011
6908.723991495543,0.005203125089291252
6908.724991267465,0.005238929001507754
6908.725991039389,0.005274353013189546
6908.726990811311,0.005309395333125284
6908.727990583234,0.005344054225731016
6908.728990355156,0.00537832801160289
6908.729990127079,0.0054122150680391895
6908.730989899002,0.005445713829531123
6908.731989670925,0.005478822788221838
6908.732989442848,0.005511540494333208
6908.73398921477,0.00554386555655998
6908.734988986693,0.005575796642430995
6908.735988758615,0.005607332478637268
6908.736988530539,0.005638471851326821
6908.737988302461,0.005669213606366214
6908.738988074384,0.005699556649568792
6908.739987846307,0.005729499946889681
6908.74098761823,0.0057590425245876205
6908.741987390153,0.005788183469353652
6908.742987162075,0.005816921928406786
6908.743986933998,0.005845257109556685
6908.74498670592,0.005873188281233447
6908.745986477843,0.005900714772484606
6908.746986249766,0.005927835972939399
6908.747986021689,0.0059545513327403906
6908.748985793612,0.005980860362442562
6908.749985565534,0.006006762632879967
6908.750985337457,0.006032257775000051
6908.75198510938,0.006057345479665766
6908.752984881303,0.006082025497425551
6908.753984653225,0.006106297638251275
6908.754984425148,0.006130161771244192
6908.755984197071,0.0061536178243089676
6908.756983968993,0.006176665783795792
6908.757983740917,0.006199305694110651
6908.758983512839,0.006221537657293846
6908.759983284762,0.00624336183256685
6908.760983056684,0.006264778435847722
6908.761982828607,0.006285787739235341
6908.76298260053,0.00630639007046282
6908.763982372453,0.006326585812320656
6908.764982144376,0.006346375402050321
6908.765981916298,0.00636575933070923
6908.766981688221,0.006384738142508231
6908.767981460143,0.006403312434122922
6908.768981232067,0.006421482853980277
6908.769981003989,0.006439250101522088
6908.770980775912,0.006456614926446798
6908.771980547835,0.006473578127931265
6908.772980319758,0.006490140553833936
6908.773980091681,0.006506303099880874
6908.774979863603,0.006522066708836044
6908.775979635526,0.006537432369657283
6908.776979407448,0.0065524011166394145
6908.777979179371,0.006566974028546035
6908.778978951294,0.006581152227731648
6908.779978723217,0.006594936879255794
6908.78097849514,0.006608329189990901
6908.781978267062,0.006621330407725501
6908.782978038985,0.006633941820264351
6908.783977810908,0.006646164754526889
6908.784977582831,0.006658000575645255
6908.785977354753,0.006669450686063012
6908.786977126676,0.006680516524635535
6908.787976898599,0.006691199565732911
6908.788976670521,0.006701501318346161
6908.789976442445,0.00671142332519744
6908.790976214367,0.00672096716185486
6908.79197598629,0.006730134435852514
6908.792975758212,0.006738926785816274
6908.793975530136,0.006747345880595901
6908.794975302058,0.0067553934184040555
6908.795975073981,0.00676307112596281
6908.796974845904,0.006770380757658285
6908.797974617826,0.006777324094704067
6908.798974389749,0.006783902944314064
6908.799974161672,0.006790119138885476
6908.800973933595,0.006795974535192503
6908.801973705517,0.0068014710135914196
6908.80297347744,0.006806610477237601
6908.803973249363,0.006811394851315004
6908.804973021286,0.006815826082278622
6908.805972793209,0.0068199061371103775
6908.806972565131,0.006823637002588859
6908.807972337054,0.0068270206845733395
6908.808972108976,0.006830059207302401
6908.809971880899,0.006832754612707519
6908.810971652822,0.006835108959741837
6908.811971424745,0.006837124323724361
6908.812971196668,0.006838802795699741
6908.81397096859,0.006840146481813719
6908.814970740513,0.006841157502704304
6908.815970512436,0.006841837992908651
6908.816970284359,0.006842190100285585
6908.817970056281,0.006842215985453634
6908.818969828204,0.006841917821244394
6908.819969600127,0.006841297792170952
6908.820969372049,0.006840358093911061
6908.821969143973,0.006839100932804694
6908.822968915895,0.00683752852536553
6908.823968687818,0.006835643097805898
6908.82496845974,0.006833446885574664
6908.825968231664,0.00683094213290755
6908.826968003586,0.00682813109238931
6908.827967775509,0.006825016024527226
6908.828967547432,0.006821599197335333
6908.829967319354,0.006817882885928774
6908.830967091277,0.006813869372127653
6908.8319668632,0.0068095609440697235
6908.832966635123,0.006804959895831179
6908.833966407045,0.006800068527054776
6908.834966178968,0.006794889142584447
6908.835965950891,0.006789424052105547
6908.836965722814,0.006783675569789822
6908.837965494737,0.006777646013944187
6908.838965266659,0.0067713377066623654
6908.839965038582,0.00676475297347849
6908.840964810504,0.006757894143021727
6908.841964582427,0.00675076354667103
6908.84296435435,0.006743363518209149
6908.843964126273,0.006735696393474994
6908.844963898196,0.006727764510013525
6908.845963670118,0.006719570206722306
6908.846963442041,0.006711115823493916
6908.847963213964,0.0067024037008534335
6908.848962985887,0.006693436179590194
6908.849962757809,0.0066842156003831185
6908.850962529732,0.006674744303418911
6908.851962301655,0.006665024628002517
6908.852962073577,0.0066550589121592615
6908.853961845501,0.006644849492228202
6908.854961617423,0.006634398702446169
6908.855961389346,0.006623708874522106
6908.856961161268,0.006612782337201282
6908.857960933192,0.006601621415818939
6908.858960705114,0.0065902284318429556
6908.859960477037,0.006578605702405078
6908.86096024896,0.006566755539820247
6908.861960020882,0.00655468025109353
6908.862959792805,0.006542382137414169
6908.863959564728,0.00652986349363623
6908.864959336651,0.006517126607745357
6908.865959108573,0.006504173760311181
6908.866958880496,0.006491007223925005
6908.867958652419,0.006477629262622449
6908.868958424342,0.006464042131290814
6908.869958196265,0.006450248075061024
6908.870957968187,0.006436249328684047
6908.87195774011,0.006422048115891771
6908.872957512032,0.006407646648742337
6908.873957283955,0.0063930471269500804
6908.874957055878,0.0063782517372002814
6908.875956827801,0.00636326265244914
6908.876956599724,0.0063480820312094895
6908.877956371646,0.006332712016822963
6908.87895614357,0.006317154736719464
6908.879955915492,0.006301412301664885
6908.880955687415,0.006285486804998066
6908.881955459337,0.006269380321857989
6908.88295523126,0.00625309490840211
6908.883955003183,0.006236632601016735
6908.884954775106,0.006219995415520179
6908.885954547029,0.006203185346359453
6908.886954318951,0.006186204365801156
6908.887954090874,0.0061690544231172255
6908.888953862796,0.0061517374437662945
6908.88995363472,0.006134255328571418
6908.890953406642,0.006116609952895056
6908.891953178565,0.006098803165812277
6908.892952950488,0.006080836789283259
6908.89395272241,0.0060627126173262375
6908.894952494333,0.00604443241519211
6908.895952266256,0.006025997918541881
6908.896952038179,0.00600741083262817
6908.897951810101,0.00598867283148196
6908.898951582024,0.005969785557105789
6908.899951353947,0.00595075061867459
6908.90095112587,0.0059315695917453995
6908.901950897793,0.005912244017477155
6908.902950669715,0.005892775401861832
6908.903950441638,0.005873165214968111
6908.90495021356,0.005853414890198749
6908.905949985483,0.005833525823562834
6908.906949757406,0.005813499372964027
6908.907949529329,0.005793336857505925
6908.908949301252,0.005773039556815655
6908.909949073174,0.005752608710386791
6908.910948845098,0.005732045516942738
6908.91194861702,0.005711351133821702
6908.912948388943,0.005690526676384435
6908.913948160865,0.0056695732174459595
6908.914947932788,0.00564849178673252
6908.915947704711,0.005627283370365036
6908.916947476634,0.0056059489103703454
6908.917947248557,0.005584489304221502
6908.918947020479,0.005562905404408375
6908.919946792402,0.005541198018039775
6908.920946564324,0.005519367906478286
6908.921946336248,0.005497415785008938
6908.92294610817,0.005475342322542801
6908.923945880093,0.005453148141356476
6908.924945652016,0.005430833816868447
6908.925945423938,0.005408399877453158
6908.926945195861,0.0053858468042936635
6908.927944967784,0.005363175031273657
6908.928944739707,0.005340384944909649
6908.929944511629,0.005317476884324041
6908.930944283552,0.005294451141259827
6908.931944055476,0.005271307960137625
6908.932943827398,0.0052480475381556785
6908.933943599321,0.005224670025433429
6908.934943371243,0.005201175525199151
6908.935943143166,0.005177564094022087
6908.936942915088,0.005153835742089365
6908.937942687012,0.005129990433527916
6908.938942458934,0.005106028086771479
6908.939942230857,0.005081948574972695
6908.94094200278,0.005057751726460175
6908.941941774702,0.005033437325240376
6908.942941546626,0.005009005111543995
6908.943941318548,0.004984454782416568
6908.944941090471,0.0049597859923528696
6908.945940862393,0.004934998353974657
6908.946940634316,0.0049100914387512655
6908.947940406239,0.004885064777762442
6908.948940178162,0.0048599178625027654
6908.949939950085,0.004834650145726842
6908.950939722007,0.004809261042334406
6908.95193949393,0.004783749930294328
6908.952939265852,0.004758116151606485
6908.953939037776,0.004732359013300351
6908.954938809698,0.004706477788469119
6908.955938581621,0.004680471717338116
6908.956938353544,0.004654340008366222
6908.957938125466,0.004628081839378965
6908.958937897389,0.004601696358731944
6908.959937669312,0.004575182686503153
6908.960937441235,0.004548539915712771
6908.961937213157,0.004521767113568986
6908.96293698508,0.004494863322738375
6908.963936757004,0.004467827562639366
6908.964936528926,0.004440658830757285
6908.965936300849,0.0044133561039794884
6908.966936072771,0.004385918339949071
6908.967935844694,0.0043583444784356384
6908.968935616616,0.004330633442721622
6908.96993538854,0.004302784141002638
6908.970935160462,0.004274795467800372
6908.971934932385,0.004246666305386504
6908.972934704308,0.0042183955252162045
6908.97393447623,0.004189981989369724
6908.974934248154,0.004161424552000619
6908.975934020076,0.0041327220607891724
6908.976933791999,0.0041038733583995506
6908.977933563921,0.004074877283939267
6908.978933335844,0.004045732674419513
6908.979933107767,0.004016438366214959
6908.98093287969,0.003986993196521631
6908.981932651613,0.0039573960048115
6908.982932423535,0.003927645634282496
6908.983932195458,0.0038977409333026793
6908.98493196738,0.003867680756847433
6908.985931739304,0.0038374639679285855
6908.986931511226,0.003807089439014515
6908.987931283149,0.00377655605344034
6908.988931055072,0.003745862706807409
6908.989930826994,0.00371500830837133
6908.990930598917,0.003683991782417859
6908.99193037084,0.0036528120696259344
6908.992930142763,0.0036214681284171646
6908.993929914685,0.0035899589362910996
6908.994929686608,0.003558283491145645
6908.995929458532,0.003526440812582032
6908.996929230454,0.003494429943193806
6908.997929002377,0.003462249949839371
6908.998928774299,0.0034298999248976647
6908.999928546222,0.0033973789875065613
6909.000928318144,0.003364686284783622
6909.001928090068,0.0033318209930288064
6909.00292786199,0.0032987823189087355
6909.003927633913,0.003265569500622047
6909.004927405836,0.003232181809045354
6909.005927177758,0.003198618548859293
6909.006926949682,0.0031648790596540965
6909.007926721604,0.0031309627170141145
6909.008926493527,0.0030968689335807054
6909.009926265449,0.003062597160092863
6909.010926037372,0.0030281468864049154
6909.011925809295,0.002993517642480613
6909.012925581218,0.002958708999362827
6909.013925353141,0.002923720570118062
6909.014925125063,0.002888552010754923
6909.015924896986,0.002853203021115631
6909.016924668909,0.0028176733457396697
6909.017924440832,0.0027819627746986193
6909.018924212754,0.002746071144401253
6909.019923984677,0.0027099983383679876
6909.0209237566,0.002673744287973789
6909.021923528522,0.002637308973158663
6909.022923300446,0.002600692423104855
6909.023923072368,0.0025638947168798833
6909.024922844291,0.002526915984044527
6909.025922616213,0.0024897564052248546
6909.026922388136,0.002452416212647376
6909.02792216006,0.0024148956906363725
6909.028921931982,0.0023771951760724348
6909.029921703905,0.002339315058811258
6909.030921475827,0.0023012557820617386
6909.03192124775,0.00226301784272245
6909.032921019672,0.002224601791675637
6909.033920791596,0.0021860082340379146
6909.034920563518,0.0021472378293669325
6909.035920335441,0.002108291291823361
6909.036920107364,0.002069169390287612
6909.037919879286,0.002029872948430791
6909.03891965121,0.001990402844739392
6909.039919423132,0.0019507600124932666
6909.040919195055,0.0019109454396963874
6909.041918966977,0.0018709601689599273
6909.0429187389,0.001830805297337181
6909.043918510823,0.0017904819761098971
6909.044918282746,0.0017499914105256215
6909.045918054669,0.0017093348594856884
6909.046917826591,0.001668513635183536
6909.047917598514,0.001627529102693048
6909.048917370437,0.0015863826795066381
6909.04991714236,0.0015450758350228034
6909.050916914282,0.0015036100899828708
6909.051916686205,0.0014619870158566455
6909.052916458128,0.0014202082341766566
6909.05391623005,0.00137827541582068
6909.054916001974,0.0013361902802422226
6909.055915773896,0.001293954594648683
6909.056915545819,0.0012515701731269297
6909.057915317741,0.0012090388757161011
6909.058915089664,0.0011663626074275002
6909.059914861588,0.0011235433172115334
6909.06091463351,0.0010805829968717315
6909.061914405433,0.0010374836799259715
6909.062914177355,0.0009942474404151078
6909.063913949278,0.0009508763916593131
6909.0649137212,0.0009073726849625323
6909.065913493124,0.000863738508265558
6909.066913265046,0.0008199760847483479
6909.067913036969,0.0007760876713823188
6909.068912808892,0.0007320755574334669
6909.069912580814,0.0006879420629172794
6909.070912352738,0.0006436895370065124
6909.07191212466,0.0005993203563930152
6909.072911896583,0.0005548369236048836
6909.073911668505,0.0005102416652803161
6909.074911440428,0.00046553703039964284
6909.075911212352,0.00042072548847707644
6909.076910984274,0.0003758095277138
6909.077910756197,0.00033079165311405994
6909.078910528119,0.0002856743845659733
6909.079910300042,0.0002404602548887984
6909.080910071965,0.00019515180784846295
6909.081909843888,0.00014975159614319047
6909.08290961581,0.0001042621793611219
6909.083909387733,5.868612191188123e-05
6909.084909159656,1.3025990934087576e-05
6909.085908931578,-3.271564581913747e-05
6909.086908703502,-7.85362221145773e-05
6909.087908475424,-0.0001244331753911184
6909.088908247347,-0.00017040394892758477
6909.089908019269,-0.00021644599402402686
6909.090907791192,-0.00026255677219425786
6909.091907563116,-0.0003087337573674099
6909.092907335038,-0.0003549744380962734
6909.093907106961,-0.0004012763197701863
6909.094906878883,-0.0004476369268302532
6909.095906650806,-0.0004940538049846845
6909.096906422728,-0.0005405245234220427
6909.097906194652,-0.0005870466770201481
