Time,Filtered_ECG
6836.67714238661,-0.033864907347997276
6836.678142158826,-0.03441683989402503
6836.67914193104,-0.034965887618336675
6836.680141703256,-0.03551189777470243
6836.681141475471,-0.036054717309481274
6836.682141247687,-0.03659419290989816
6836.683141019902,-0.03713017105274663
6836.6841407921165,-0.03766249805349409
6836.685140564332,-0.03819102011576674
6836.686140336547,-0.03871558338119098
6836.687140108763,-0.039236033979567826
6836.688139880978,-0.03975221807935717
6836.689139653194,-0.040263981938448316
6836.690139425408,-0.0407711719551935
6836.691139197624,-0.04127363471968103
6836.692138969839,-0.0417712170652244
6836.693138742055,-0.04226376612004412
6836.69413851427,-0.04275112935911815
6836.6951382864845,-0.04323315465617733
6836.6961380587,-0.043709690335821505
6836.697137830915,-0.04418058522573183
6836.698137603131,-0.044645688708954565
6836.699137375346,-0.045104850776231255
6836.700137147562,-0.0455579220783499
6836.701136919776,-0.04600475397849132
6836.702136691992,-0.04644519860454517
6836.703136464207,-0.0468791089013695
6836.704136236423,-0.047306338682968234
6836.705136008638,-0.04772674268456085
6836.7061357808525,-0.048140176614519144
6836.707135553068,-0.04854649720614607
6836.708135325283,-0.048945562269272075
6836.709135097499,-0.04933723074164496
6836.710134869714,-0.04972136274008962
6836.711134641929,-0.05009781961141439
6836.712134414144,-0.05046646398304159
6836.71313418636,-0.05082715981334005
6836.714133958575,-0.05117977244163821
6836.715133730791,-0.05152416863789657
6836.716133503005,-0.05186021665201916
6836.7171332752205,-0.052187786262783746
6836.718133047436,-0.052506748826371144
6836.719132819651,-0.052816977324474115
6836.720132591867,-0.053118346411966715
6836.721132364082,-0.05341073246411508
6836.722132136297,-0.053694013623311096
6836.723131908512,-0.053968069845310676
6836.724131680728,-0.054232782944959
6836.725131452943,-0.054488036641385615
6836.726131225159,-0.05473371660265305
6836.727130997373,-0.054969710489843476
6836.7281307695885,-0.05519590800056858
6836.729130541804,-0.05541220091188875
6836.730130314019,-0.05561848312262813
6836.731130086235,-0.055814650695073076
6836.73212985845,-0.05600060189604162
6836.733129630665,-0.05617623723731287
6836.73412940288,-0.056341459515405076
6836.735129175096,-0.05649617385069205
6836.736128947311,-0.05664028772584804
6836.737128719527,-0.05677371102361171
6836.738128491741,-0.05689635606386006
6836.739128263956,-0.057008137639983525
6836.740128036172,-0.057108973054553605
6836.741127808387,-0.05719878215427447
6836.742127580603,-0.05727748736421031
6836.743127352818,-0.05734501372128026
6836.744127125033,-0.057401288907012904
6836.745126897248,-0.05744624327955293
6836.746126669464,-0.05747980990491248
6836.747126441679,-0.057501924587460375
6836.748126213895,-0.05751252589964255
6836.749125986109,-0.057511555210927275
6836.750125758324,-0.057498956715969045
6836.75112553054,-0.05747467746198517
6836.752125302755,-0.057438667375339016
6836.753125074971,-0.05739087928732422
6836.754124847186,-0.057331268959143714
6836.755124619401,-0.057259795106077746
6836.756124391616,-0.057176419420834686
6836.757124163832,-0.057081106596078214
6836.758123936047,-0.05697382434612416
6836.759123708262,-0.0568545434278002
6836.760123480477,-0.05672323766046092
6836.761123252692,-0.05657988394515079
6836.762123024908,-0.05642446228290717
6836.763122797123,-0.056256955792195376
6836.764122569339,-0.05607735072546795
6836.765122341554,-0.0558856364848399
6836.766122113769,-0.05568180563687203
6836.767121885984,-0.055465853926454374
6836.7681216582,-0.05523778028978222
6836.769121430415,-0.05499758686641694
6836.77012120263,-0.05474527901042441
6836.771120974845,-0.05448086530058352
6836.77212074706,-0.05420435754965765
6836.773120519276,-0.05391577081272189
6836.774120291491,-0.05361512339453909
6836.775120063707,-0.053302436855977436
6836.776119835921,-0.052977736019462804
6836.777119608137,-0.05264104897345868
6836.778119380352,-0.0522924070759667
6836.779119152568,-0.05193184495704063
6836.780118924783,-0.051559400520306733
6836.7811186969975,-0.051175114943483514
6836.782118469213,-0.05077903267789388
6836.783118241428,-0.0503712014469631
6836.784118013644,-0.049951672243696246
6836.785117785859,-0.04952049932712916
6836.786117558075,-0.04907774021774763
6836.787117330289,-0.04862345569186983
6836.788117102505,-0.04815770977498786
6836.78911687472,-0.047680569734064475
6836.790116646936,-0.04719210606878169
6836.791116419151,-0.046692392501738414
6836.7921161913655,-0.04618150596759459
6836.793115963581,-0.04565952660115955
6836.794115735796,-0.0451265377244227
6836.795115508012,-0.044582625832524994
6836.796115280227,-0.04402788057866979
6836.797115052443,-0.0434623947579718
6836.798114824657,-0.04288626429024336
6836.799114596873,-0.042299588201717114
6836.800114369088,-0.04170246860570438
6836.801114141304,-0.04109501068218869
6836.802113913519,-0.04047732265635412
6836.8031136857335,-0.0398495157760483
6836.804113457949,-0.039211704288180174
6836.805113230164,-0.03856400541405316
6836.80611300238,-0.037906539323634685
6836.807112774595,-0.03723942910876376
6836.808112546811,-0.036562800755298615
6836.809112319025,-0.03587678311420735
6836.810112091241,-0.03518150787160487
6836.811111863456,-0.03447710951774032
6836.812111635672,-0.03376372531493958
6836.813111407887,-0.033041495264508
6836.8141111801015,-0.03231056207259907
6836.815110952317,-0.0315710711150551
6836.816110724532,-0.030823170401226542
6836.817110496748,-0.0300670105367768
6836.818110268963,-0.029302744685479724
6836.819110041179,-0.028530528530017366
6836.820109813393,-0.027750520231785706
6836.821109585609,-0.02696288038971653
6836.822109357824,-0.02616777199812402
6836.82310913004,-0.025365360403585026
6836.824108902255,-0.0245558132608626
6836.825108674469,-0.02373930048788292
6836.826108446685,-0.02291599421977647
6836.8271082189,-0.0220860687619949
6836.828107991116,-0.021249700542515598
6836.829107763331,-0.02040706806314676
6836.830107535547,-0.01955835184994645
6836.831107307761,-0.018703734402769765
6836.832107079977,-0.017843400143958972
6836.833106852192,-0.01697753536619236
6836.834106624408,-0.01610632817950805
6836.835106396623,-0.015229968457519977
6836.836106168837,-0.014348647782843721
6836.837105941053,-0.01346255939175066
6836.838105713268,-0.012571898118069321
6836.839105485484,-0.011676860336353399
6836.840105257699,-0.010777643904336213
6836.841105029914,-0.009874448104691852
6836.842104802129,-0.008967473586123645
6836.843104574345,-0.008056922303801235
6836.84410434656,-0.007142997459168103
6836.845104118775,-0.006225903439142191
6836.84610389099,-0.005305845754733054
6836.847103663205,-0.004383030979099743
6836.848103435421,-0.0034576666850744033
6836.849103207636,-0.0025299613821772623
6836.850102979852,-0.001600124453149286
6836.851102752067,-0.0006683660900293166
6836.852102524282,0.00026510277019701584
6836.853102296497,0.001200070510348885
6836.854102068713,0.0021363248981742227
6836.855101840928,0.003073653151817518
6836.856101613143,0.0040118420056026085
6836.857101385358,0.004950677776101324
6836.858101157573,0.005889946428458662
6836.859100929789,0.0068294336429450325
6836.860100702004,0.0077689248817060606
6836.86110047422,0.008708205455680356
6836.862100246435,0.00964706059165563
6836.86310001865,0.01058527549943336
6836.864099790865,0.011522635439072034
6836.865099563081,0.012458925788178742
6836.866099335296,0.013393932109218512
6836.867099107511,0.01432744021681052
6836.868098879726,0.015259236244979903
6836.869098651941,0.01618910671433363
6836.870098424157,0.01711683859912857
6836.871098196372,0.018042219394199782
6836.872097968588,0.01896503718171685
6836.873097740803,0.01988508069773606
6836.874097513018,0.020802139398516155
6836.875097285233,0.02171600352656555
6836.8760970574485,0.02262646417638893
6836.877096829664,0.023533313359901515
6836.878096601879,0.024436344071479446
6836.879096374094,0.025335350352615214
6836.880096146309,0.026230127356147357
6836.881095918525,0.02712047141003411
6836.88209569074,0.028006180080640992
6836.883095462956,0.028887052235512477
6836.884095235171,0.029762888105598375
6836.885095007386,0.030633489346905417
6836.886094779601,0.03149865910154493
6836.8870945518165,0.03235820205814752
6836.888094324032,0.03321192451161585
6836.889094096247,0.03405963442218694
6836.890093868462,0.03490114147377549
6836.891093640677,0.03573625713157037
6836.892093412893,0.0365647946988566
6836.893093185108,0.03738656937303563
6836.894092957324,0.038201398300817445
6836.895092729539,0.03900910063255845
6836.896092501754,0.03980949757571984
6836.897092273969,0.04060241244742196
6836.8980920461845,0.041387670726070934
6836.8990918184,0.042165100102034905
6836.900091590615,0.04293453052734803
6836.90109136283,0.0436957942644215
6836.902091135045,0.0444487259337416
6836.903090907261,0.04519316256053574
6836.904090679476,0.04592894362038801
6836.905090451692,0.046655911083786604
6836.906090223906,0.04737390945958585
6836.907089996122,0.04808278583736627
6836.908089768337,0.048782389928676485
6836.9090895405525,0.04947257410714137
6836.910089312768,0.05015319344742189
6836.911089084982,0.05082410576301256
6836.912088857198,0.05148517164286343
6836.913088629413,0.05213625448681459
6836.914088401629,0.052777220539831846
6836.915088173844,0.05340793892503367
6836.91608794606,0.054028281675500084
6836.917087718274,0.054638123764855454
6836.91808749049,0.05523734313661825
6836.919087262705,0.05582582073231191
6836.9200870349205,0.056403440518332244
6836.921086807136,0.05697008951156781
6836.92208657935,0.057525657803771085
6836.923086351566,0.05807003858467916
6836.924086123781,0.0586031281638835
6836.925085895997,0.05912482599144938
6836.926085668212,0.05963503467728613
6836.927085440428,0.06013366000927016
6836.928085212642,0.060620610970123036
6836.929084984858,0.06109579975304782
6836.930084757073,0.06155914177612705
6836.9310845292885,0.0620105556954864
6836.932084301504,0.0624499634172285
6836.933084073718,0.06287729010814194
6836.934083845934,0.06329246420519086
6836.935083618149,0.063695417423791
6836.936083390365,0.064086084764879
6836.93708316258,0.06446440452078141
6836.938082934796,0.0648303182798915
6836.93908270701,0.0651837709301615
6836.940082479226,0.0655247106614194
6836.941082251441,0.06585308896651922
6836.942082023656,0.06616886064133456
6836.943081795872,0.0664719837836058
6836.944081568086,0.06676241979065108
6836.945081340302,0.06704013335595228
6836.946081112517,0.06730509246462692
6836.947080884733,0.06755726838779713
6836.948080656948,0.06779663567586755
6836.949080429164,0.06802317215072358
6836.950080201378,0.06823685889686232
6836.951079973594,0.0684376802514687
6836.952079745809,0.06862562379344969
6836.953079518024,0.06880068033144032
6836.95407929024,0.06896284389079552
6836.955079062454,0.06911211169958273
6836.95607883467,0.06924848417359085
6836.957078606885,0.06937196490037173
6836.958078379101,0.06948256062233142
6836.959078151316,0.06958028121888922
6836.960077923532,0.06966513968772352
6836.961077695746,0.0697371521251242
6836.9620774679615,0.06979633770547218
6836.963077240177,0.06984271865986726
6836.964077012392,0.06987632025392601
6836.965076784608,0.06989717076477224
6836.966076556822,0.06990530145724246
6836.967076329038,0.06990074655932992
6836.968076101253,0.0698835432368905
6836.969075873469,0.06985373156763468
6836.970075645684,0.06981135451442995
6836.971075417899,0.06975645789793834
6836.972075190114,0.0696890903686142
6836.9730749623295,0.0696093033780876
6836.974074734545,0.06951715114995922
6836.97507450676,0.06941269065003278
6836.976074278975,0.06929598155601119
6836.97707405119,0.06916708622668315
6836.978073823406,0.06902606967062687
6836.979073595621,0.06887299951445844
6836.980073367837,0.06870794597065226
6836.981073140052,0.06853098180496185
6836.982072912267,0.06834218230346921
6836.983072684482,0.06814162523929132
6836.9840724566975,0.0679293908389726
6836.985072228913,0.0677055617485919
6836.986072001128,0.06747022299961226
6836.987071773343,0.06722346197450188
6836.988071545558,0.06696536837215392
6836.989071317774,0.06669603417313316
6836.990071089989,0.06641555360477691
6836.991070862205,0.06612402310617746
6836.99207063442,0.06582154129307333
6836.993070406635,0.06550820892267599
6836.99407017885,0.06518412885845885
6836.9950699510655,0.06484940603493461
6836.996069723281,0.06450414742244687
6836.997069495496,0.06414846199200173
6836.998069267711,0.06378246068016453
6836.999069039926,0.06340625635404644
6837.000068812142,0.06301996377640534
6837.001068584357,0.06262369957088476
6837.002068356573,0.06221758218741321
6837.003068128788,0.06180173186778539
6837.004067901003,0.06137627061144517
6837.005067673218,0.06094132214148815
6837.0060674454335,0.060497011870899745
6837.007067217649,0.060043466869042314
6837.008066989864,0.05958081582840214
6837.009066762079,0.05910918903160453
6837.010066534294,0.058628718318702276
6837.01106630651,0.05813953705473968
6837.012066078725,0.05764178009759108
6837.013065850941,0.05713558376606939
6837.014065623156,0.05662108580829686
6837.015065395371,0.056098425370326506
6837.016065167586,0.05556774296499947
6837.0170649398015,0.05502918044101991
6837.018064712017,0.05448288095222549
6837.019064484232,0.05392898892702853
6837.020064256447,0.05336765003799941
6837.021064028662,0.05279901117156088
6837.022063800878,0.052223220397758535
6837.023063573093,0.05164042694007005
6837.024063345309,0.05105078114521295
6837.025063117524,0.05045443445290766
6837.026062889739,0.0498515393655511
6837.027062661954,0.049242249417753216
6837.028062434169,0.0486267191456885
6837.029062206385,0.048005104056212715
6837.0300619786,0.04737756059569545
6837.031061750815,0.04674424611851921
6837.03206152303,0.046105318855196496
6837.033061295246,0.045460937880058123
6837.034061067461,0.044811263078467854
6837.035060839677,0.04415645511352061
6837.036060611891,0.043496675392184284
6837.037060384107,0.04283208603084796
6837.038060156322,0.042162849820242446
6837.039059928537,0.04148913018970227
6837.040059700753,0.040811091170742116
6837.041059472968,0.040128897359924386
6837.042059245183,0.03944271388099874
6837.043059017398,0.03875270634629885
6837.044058789614,0.038059040817385786
6837.045058561829,0.0373618837649317
6837.046058334045,0.03666140202784172
6837.047058106259,0.03595776277161604
6837.0480578784745,0.03525113344595786
6837.04905765069,0.03454168174163666
6837.050057422905,0.03382957554661999
6837.051057195121,0.03311498290149041
6837.052056967335,0.032398071954167836
6837.053056739551,0.03167901091396118
6837.054056511766,0.030957968004976726
6837.055056283982,0.030235111418914225
6837.056056056197,0.029510609267285062
6837.057055828413,0.028784629533089967
6837.058055600627,0.028057340021996537
6837.0590553728425,0.02732890831305938
6837.060055145058,0.026599501709027702
6837.061054917273,0.02586928718628688
6837.062054689489,0.025138431344481713
6837.063054461703,0.0244071003558699
6837.064054233919,0.023675459914454744
6837.065054006134,0.022943675184946003
6837.06605377835,0.0222119107515976
6837.067053550565,0.021480330566970466
6837.0680533227805,0.020749097900668114
6837.069053094995,0.020018375288091823
6837.0700528672105,0.019288324479261435
6837.071052639426,0.01855910638774689
6837.072052411641,0.01783088103975462
6837.073052183857,0.01710380752341191
6837.074051956071,0.016378043938291207
6837.075051728287,0.015653747345215376
6837.076051500502,0.014931073716383836
6837.077051272718,0.014210177885858672
6837.078051044933,0.013491213500448981
6837.0790508171485,0.012774332971031116
6837.080050589363,0.012059687424341813
6837.0810503615785,0.01134742665528057
6837.082050133794,0.01063769907975703
6837.083049906009,0.009930651688118325
6837.084049678225,0.009226429999190471
6837.085049450439,0.008525178014966927
6837.086049222655,0.007827038175976322
6837.08704899487,0.007132151317360188
6837.088048767086,0.0064406566256903905
6837.089048539301,0.005752691596554751
6837.0900483115165,0.005068391992938241
6837.091048083731,0.00438789180442604
6837.0920478559465,0.0037113232072537336
6837.093047628162,0.003038816525228947
6837.094047400377,0.0023705001915477744
6837.095047172593,0.0017065007115285133
6837.096046944807,0.0010469426262844442
6837.097046717023,0.00039194847735674624
6837.098046489238,-0.0002583612276719335
6837.099046261454,-0.0009038680485632468
6837.100046033669,-0.0015444556447887468
6837.101045805884,-0.0021800098068564026
6837.102045578099,-0.002810418486579773
6837.1030453503145,-0.0034355718262723913
6837.10404512253,-0.004055362186850843
6837.105044894745,-0.004669684174831077
6837.106044666961,-0.005278434668203665
6837.107044439175,-0.005881512841174912
6837.108044211391,-0.006478820187761965
6837.109043983606,-0.007070260544231298
6837.110043755822,-0.0076557401103710815
6837.111043528037,-0.008235167469589168
6837.112043300252,-0.008808453607829515
6837.113043072467,-0.009375511931300986
6837.114042844682,-0.009936258283013557
6837.115042616898,-0.01049061095811798
6837.116042389113,-0.01103849071804581
6837.117042161328,-0.011579820803447537
6837.118041933543,-0.012114526945927191
6837.119041705759,-0.012642537378572493
6837.120041477974,-0.013163782845280204
6837.12104125019,-0.013678196608876952
6837.122041022405,-0.014185714458036588
6837.12304079462,-0.014686274712995898
6837.124040566835,-0.015179818230071473
6837.12504033905,-0.01566628840498146
6837.126040111266,-0.016145631174976912
6837.127039883481,-0.01661779501978866
6837.128039655696,-0.017082730961396432
6837.129039427911,-0.017540392562628054
6837.130039200127,-0.017990735924597528
6837.131038972342,-0.018433719682991675
6837.132038744558,-0.018869305003216128
6837.133038516773,-0.019297455574412488
6837.134038288988,-0.019718137602359364
6837.135038061203,-0.020131319801271124
6837.136037833418,-0.02053697338450893
6837.137037605634,-0.020935072054219364
6837.138037377849,-0.021325591989916473
6837.139037150064,-0.021708511836023514
6837.140036922279,-0.022083812688391023
6837.141036694495,-0.022451478079808254
6837.14203646671,-0.022811493964525413
6837.143036238926,-0.023163848701804643
6837.144036011141,-0.02350853303851834
6837.145035783356,-0.023845540090814056
6837.146035555571,-0.02417486532486605
6837.147035327786,-0.024496506536734353
6837.148035100002,-0.024810463831352922
6837.149034872217,-0.025116739600669152
6837.150034644432,-0.025415338500957545
6837.151034416647,-0.025706267429330885
6837.152034188863,-0.02598953549947266
6837.153033961078,-0.026265154016614858
6837.1540337332935,-0.02653313645178548
6837.155033505509,-0.026793498415350364
6837.156033277724,-0.02704625762987399
6837.157033049939,-0.02729143390232399
6837.158032822154,-0.02752904909564369
6837.15903259437,-0.027759127099716976
6837.160032366585,-0.0279816938017492
6837.1610321388,-0.028196777056087675
6837.162031911015,-0.02840440665350496
6837.163031683231,-0.028604614289967998
6837.164031455446,-0.02879743353491626
6837.1650312276615,-0.028982899799072145
6837.166030999876,-0.029161050301807073
6837.167030772092,-0.02933192403808711
6837.168030544307,-0.029495561745021968
6837.169030316522,-0.029652005868041696
6837.170030088738,-0.02980130052672528
6837.171029860953,-0.029943491480305534
6837.172029633168,-0.030078626092874577
6837.173029405383,-0.030206753298314137
6837.174029177599,-0.030327923564974858
6837.175028949814,-0.030442188860128675
6837.1760287220295,-0.03054960261421793
6837.177028494244,-0.030650219684924825
6837.17802826646,-0.030744096321084227
6837.179028038675,-0.030831290126462386
6837.18002781089,-0.030911860023423474
6837.181027583106,-0.030985866216505453
6837.18202735532,-0.03105337015592623
6837.183027127536,-0.031114434501040532
6837.184026899751,-0.03116912308376776
6837.185026671967,-0.031217500872010848
6837.186026444182,-0.03125963393308591
6837.1870262163975,-0.03129558939718252
6837.188025988612,-0.03132543542087423
6837.189025760828,-0.031349241150698766
6837.190025533043,-0.03136707668682721
6837.191025305258,-0.03137901304684101
6837.192025077474,-0.03138512212963546
6837.193024849688,-0.03138547667946759
6837.194024621904,-0.03138015025016627
6837.195024394119,-0.03136921716952154
6837.196024166335,-0.031352752503869805
6837.19702393855,-0.03133083202289098
6837.1980237107655,-0.03130353216463287
6837.19902348298,-0.03127093000077739
6837.200023255195,-0.03123310320216229
6837.201023027411,-0.031190130004571628
6837.202022799626,-0.031142089174807017
6837.203022571842,-0.031089059977051456
6837.204022344056,-0.031031122139536696
6837.205022116272,-0.030968355821524886
6837.206021888487,-0.030900841580614652
6837.207021660703,-0.03082866034038155
6837.208021432918,-0.030751893358362488
6837.2090212051335,-0.03067062219439341
6837.210020977348,-0.030584928679309134
6837.211020749563,-0.030494894884014162
6837.212020521779,-0.03040060308893273
6837.213020293994,-0.030302135753846188
6837.21402006621,-0.030199575488125262
6837.215019838424,-0.030093005021364413
6837.21601961064,-0.02998250717442474
6837.217019382855,-0.029868164830891355
6837.218019155071,-0.02975006090895031
6837.219018927286,-0.029628278333689494
6837.220018699501,-0.029502900009827072
6837.221018471716,-0.029374008794870385
6837.222018243931,-0.029241687472707695
6837.223018016147,-0.02910601872763468
6837.224017788362,-0.028967085118817487
6837.225017560578,-0.02882496905519383
6837.226017332792,-0.02867975277081371
6837.227017105008,-0.028531518300621197
6837.228016877223,-0.028380347456678688
6837.229016649439,-0.02822632180483507
6837.230016421654,-0.028069522641839005
6837.2310161938685,-0.027910030972898348
6837.232015966084,-0.027747927489686547
6837.233015738299,-0.02758329254879656
6837.234015510515,-0.027416206150642625
6837.23501528273,-0.027246747918809905
6837.236015054946,-0.027074997079851722
6837.23701482716,-0.026901032443533892
6837.238014599376,-0.026724932383525
6837.239014371591,-0.02654677481853124
6837.240014143807,-0.026366637193873697
6837.241013916022,-0.026184596463505624
6837.2420136882365,-0.026000729072466876
6837.243013460452,-0.025815110939772377
6837.244013232667,-0.02562781744173157
6837.245013004883,-0.025438923395695676
6837.246012777098,-0.025248503044229934
6837.247012549313,-0.025056630039708
6837.248012321528,-0.02486337742932614
6837.249012093744,-0.024668817640534888
6837.250011865959,-0.024473022466886117
6837.251011638175,-0.024276063054293622
6837.25201141039,-0.02407800988770548
6837.2530111826045,-0.023878932778186614
6837.25401095482,-0.023678900850410002
6837.255010727035,-0.023477982530555015
6837.256010499251,-0.02327624553461129
6837.257010271466,-0.023073756857086333
6837.258010043681,-0.022870582760114735
6837.259009815896,-0.022666788762966378
6837.260009588112,-0.022462439631950562
6837.261009360327,-0.02225759937071262
6837.262009132543,-0.022052331210919134
6837.263008904758,-0.021846697603327882
6837.2640086769725,-0.021640760209238517
6837.265008449188,-0.021434579892320213
6837.266008221403,-0.021228216710812698
6837.267007993619,-0.021021729910097407
6837.268007765834,-0.020815177915635683
6837.269007538049,-0.02060861832627132
6837.270007310264,-0.020402107907894734
6837.27100708248,-0.02019570258746625
6837.272006854695,-0.019989457447396056
6837.273006626911,-0.019783426720278382
6837.274006399126,-0.019577663783977454
6837.2750061713405,-0.019372221157062736
6837.276005943556,-0.019167150494590755
6837.277005715771,-0.018962502584230607
6837.278005487987,-0.018758327342729902
6837.279005260202,-0.01855467381271746
6837.280005032417,-0.018351590159838765
6837.281004804632,-0.01814912367021989
6837.282004576848,-0.017947320748255453
6837.283004349063,-0.0177462269147161
6837.284004121279,-0.017545886805171048
6837.285003893494,-0.01734634416872157
6837.286003665708,-0.01714764186704138
6837.287003437924,-0.016949821873720284
6837.288003210139,-0.0167529252739077
6837.289002982355,-0.01655699226425286
6837.29000275457,-0.016362062153138627
6837.291002526785,-0.016168173361206063
6837.292002299,-0.015975363422166818
6837.293002071216,-0.015783668983900614
6837.294001843431,-0.015593125809835065
6837.295001615647,-0.015403768780605093
6837.296001387861,-0.015215631895989184
6837.297001160076,-0.015028748277119542
6837.298000932292,-0.014843150168962907
6837.299000704507,-0.014658868943068462
6837.300000476723,-0.014475935100578954
6837.301000248938,-0.014294378275500837
6837.302000021153,-0.014114227238229015
6837.302999793368,-0.013935509899321671
6837.303999565584,-0.013758253313520742
6837.304999337799,-0.013582483684013665
6837.305999110014,-0.013408226366932239
6837.306998882229,-0.01323550587608467
6837.307998654444,-0.013064345887917021
6837.30899842666,-0.012894769246700494
6837.309998198875,-0.012726797969941063
6837.310997971091,-0.012560453254008041
6837.311997743305,-0.012395755479978125
6837.312997515521,-0.01223272421969145
6837.313997287736,-0.012071378242016127
6837.314997059952,-0.011911735519317622
6837.315996832167,-0.011753813234129199
6837.316996604382,-0.011597627786019374
6837.317996376597,-0.011443194798652094
6837.318996148812,-0.011290529127034946
6837.319995921028,-0.011139644864950372
6837.320995693243,-0.010990555352564598
6837.321995465459,-0.010843273184208722
6837.322995237673,-0.010697810216326431
6837.323995009889,-0.010554177575582857
6837.324994782104,-0.010412385667129282
6837.32599455432,-0.01027244418301864
6837.326994326535,-0.010134362110767061
6837.32799409875,-0.0099981477420569
6837.328993870965,-0.009863808681576937
6837.32999364318,-0.009731351855995574
6837.330993415396,-0.00960078352306291
6837.331993187611,-0.00947210928083767
6837.332992959827,-0.009345334077034837
6837.333992732041,-0.009220462218489834
6837.334992504257,-0.009097497380734901
6837.335992276472,-0.008976442617683057
6837.336992048688,-0.008857300371414733
6837.337991820903,-0.008740072482061682
6837.338991593118,-0.008624760197782343
6837.339991365333,-0.008511364184822378
6837.340991137548,-0.008399884537653819
6837.341990909764,-0.008290320789186066
6837.342990681979,-0.008182671921042
6837.343990454195,-0.008076936373892637
6837.344990226409,-0.00797311205784401
6837.345989998625,-0.007871196362870302
6837.34698977084,-0.007771186169287556
6837.347989543056,-0.00767307785826258
6837.348989315271,-0.00757686732235184
6837.349989087486,-0.007482549976065238
6837.350988859701,-0.007390120766449819
6837.351988631916,-0.007299574183688479
6837.352988404132,-0.007210904271708872
6837.353988176347,-0.007124104638797802
6837.354987948563,-0.007039168468216437
6837.355987720777,-0.006956088528811699
6837.356987492993,-0.006874857185619096
6837.357987265208,-0.0067954664104520335
6837.358987037424,-0.006717907792472388
6837.359986809639,-0.006642172548736785
6837.3609865818535,-0.006568251534712728
6837.361986354069,-0.006496135254758481
6837.362986126284,-0.0064258138725605375
6837.3639858985,-0.0063572772215225535
6837.364985670715,-0.006290514815099826
6837.365985442931,-0.006225515857073707
6837.366985215145,-0.00616226925176067
6837.367984987361,-0.006100763614151081
6837.368984759576,-0.006040987279973019
6837.369984531792,-0.005982928315676694
6837.370984304007,-0.0059265745283352544
6837.371984076221,-0.005871913475457938
6837.372983848437,-0.005818932474711706
6837.373983620652,-0.005767618613547642
6837.374983392868,-0.005717958758728476
6837.375983165083,-0.005669939565753577
6837.376982937298,-0.005623547488177578
6837.377982709513,-0.0055787687868185925
6837.378982481729,-0.005535589538851613
6837.379982253944,-0.005493995646782381
6837.38098202616,-0.005453972847296812
6837.381981798375,-0.005415506719980964
6837.382981570589,-0.005378582695906666
6837.383981342805,-0.005343186066078239
6837.38498111502,-0.005309301989736173
6837.385980887236,-0.00527691550251418
6837.386980659451,-0.005246011524446565
6837.387980431666,-0.005216574867823388
6837.388980203881,-0.005188590244891347
6837.389979976097,-0.0051620422753987545
6837.390979748312,-0.0051369154939833106
6837.391979520528,-0.0051131943574017425
6837.392979292743,-0.005090863251600683
6837.393979064957,-0.005069906498628406
6837.394978837173,-0.005050308363387247
6837.395978609388,-0.0050320530602266855
6837.396978381604,-0.005015124759377061
6837.397978153819,-0.004999507593223893
6837.398977926034,-0.004985185662422595
6837.399977698249,-0.004972143041853278
6837.400977470465,-0.0049603637864151845
6837.40197724268,-0.004949831936660221
6837.402977014895,-0.004940531524265044
6837.403976787111,-0.004932446577341211
6837.404976559325,-0.004925561125583
6837.405976331541,-0.0049198592052526755
6837.406976103756,-0.0049153248640031065
6837.407975875972,-0.004911942165537836
6837.408975648187,-0.00490969519410888
6837.409975420402,-0.004908568058852699
6837.410975192617,-0.004908544897964998
6837.411974964833,-0.004909609882715222
6837.412974737048,-0.004911747221301758
6837.413974509263,-0.004914941162549078
6837.414974281479,-0.004919175999448095
6837.415974053693,-0.004924436072541057
6837.416973825909,-0.0049307057731521895
6837.417973598124,-0.004937969546465119
6837.41897337034,-0.004946211894447972
6837.419973142555,-0.004955417378626843
6837.42097291477,-0.004965570622708255
6837.421972686985,-0.004976656315051246
6837.4229724592005,-0.0049886592109898206
6837.423972231416,-0.005001564135006772
6837.424972003631,-0.0050153559827602
6837.425971775846,-0.005030019722964484
6837.426971548061,-0.00504554039912793
6837.427971320277,-0.005061903131149743
6837.428971092492,-0.005079093116779472
6837.429970864708,-0.005097095632942416
6837.430970636923,-0.005115896036934798
6837.431970409138,-0.005135479767492766
6837.432970181353,-0.005155832345739438
6837.4339699535685,-0.005176939376014393
6837.434969725784,-0.005198786546590036
6837.435969497999,-0.005221359630279262
6837.436969270214,-0.005244644484938744
6837.437969042429,-0.005268627053871901
6837.438968814645,-0.005293293366135406
6837.43996858686,-0.005318629536752797
6837.440968359076,-0.005344621766838581
6837.44196813129,-0.005371256343636072
6837.442967903506,-0.0053985196404722395
6837.443967675721,-0.005426398116632977
6837.4449674479365,-0.005454878317162406
6837.445967220152,-0.005483946872590076
6837.446966992367,-0.0055135904985902425
6837.447966764582,-0.005543795995577606
6837.448966536797,-0.005574550248244059
6837.449966309013,-0.005605840225041151
6837.450966081228,-0.005637652977612979
6837.451965853444,-0.005669975640184261
6837.452965625658,-0.0057027954289083
6837.453965397874,-0.005736099641179559
6837.454965170089,-0.005769875654915465
6837.4559649423045,-0.005804110927811916
6837.45696471452,-0.005838792996576724
6837.457964486735,-0.005873909476144858
6837.45896425895,-0.0059094480588789975
6837.459964031165,-0.005945396513758473
6837.460963803381,-0.00598174268555933
6837.461963575596,-0.006018474494027996
6837.462963347812,-0.006055579933050842
6837.463963120026,-0.006093047069821823
6837.464962892242,-0.006130864044010388
6837.465962664457,-0.006169019066931875
6837.4669624366725,-0.006207500420722656
6837.467962208888,-0.0062462964575223275
6837.468961981103,-0.006285395598665337
6837.469961753318,-0.006324786333884412
6837.470961525533,-0.006364457220528191
6837.471961297749,-0.006404396882795427
6837.472961069964,-0.006444594010988138
6837.47396084218,-0.00648503736078602
6837.474960614394,-0.006525715752544384
6837.47596038661,-0.006566618070617817
6837.476960158825,-0.006607733262711578
6837.4779599310405,-0.006649050339262544
6837.478959703256,-0.006690558372851264
6837.479959475471,-0.006732246497646406
6837.480959247686,-0.006774103908882702
6837.481959019901,-0.0068161198623733436
6837.482958792117,-0.006858283674057785
6837.483958564332,-0.006900584719586027
6837.484958336548,-0.006943012433940678
6837.485958108762,-0.006985556311098359
6837.486957880978,-0.007028205903732321
6837.487957653193,-0.007070950822958436
6837.488957425408,-0.00711378073812696
6837.489957197624,-0.007156685376662623
6837.490956969838,-0.007199654523955748
6837.491956742054,-0.0072426780233071425
6837.492956514269,-0.007285745775929492
6837.493956286485,-0.007328847741007924
6837.4949560587,-0.007371973935822212
6837.495955830916,-0.007415114435932838
6837.49695560313,-0.0074582593754326885
6837.497955375346,-0.007501398947265644
6837.498955147561,-0.007544523403612658
6837.499954919776,-0.00758762305634522
6837.500954691992,-0.007630688277545408
6837.501954464206,-0.007673709500091151
6837.502954236422,-0.007716677218304831
6837.503954008637,-0.007759581988663043
6837.504953780853,-0.007802414430565105
6837.505953553068,-0.007845165227157835
6837.506953325283,-0.007887825126214033
6837.507953097498,-0.007930384941062062
6837.5089528697135,-0.007972835551563891
6837.509952641929,-0.008015167905138919
6837.510952414144,-0.00805737301783083
6837.51195218636,-0.008099441975414661
6837.512951958574,-0.008141365934541091
6837.51395173079,-0.008183136123914919
6837.514951503005,-0.008224743845504435
6837.515951275221,-0.008266180475778234
6837.516951047436,-0.008307437466965596
6837.517950819651,-0.008348506348336223
6837.518950591866,-0.008389378727494616
6837.5199503640815,-0.008430046291683872
6837.520950136297,-0.008470500809093265
6837.521949908512,-0.008510734130163653
6837.522949680728,-0.008550738188884483
6837.523949452942,-0.008590505004076153
6837.524949225158,-0.008630026680651465
6837.525948997373,-0.008669295410850082
6837.526948769589,-0.008708303475440174
6837.527948541804,-0.00874704324488164
6837.528948314019,-0.008785507180445648
6837.529948086234,-0.008823687835285466
6837.5309478584495,-0.008861577855453825
6837.531947630665,-0.008899169980862211
6837.53294740288,-0.008936457046177725
6837.533947175096,-0.008973431981653264
6837.53494694731,-0.009010087813886885
6837.535946719526,-0.00904641766650616
6837.536946491741,-0.009082414760773285
6837.537946263957,-0.00911807241610646
6837.538946036172,-0.009153384050512933
6837.539945808387,-0.009188343180928808
6837.540945580602,-0.00922294342346062
6837.5419453528175,-0.009257178493523624
6837.542945125033,-0.009291042205871871
6837.543944897248,-0.009324528474515257
6837.544944669464,-0.009357631312519132
6837.545944441678,-0.00939034483168237
6837.546944213894,-0.009422663242090202
6837.547943986109,-0.009454580851538446
6837.548943758325,-0.009486092064826193
6837.54994353054,-0.009517191382914233
6837.550943302755,-0.00954787340194695
6837.55194307497,-0.009578132812135631
6837.5529428471855,-0.009607964396501552
6837.553942619401,-0.009637363029477455
6837.554942391616,-0.009666323675366356
6837.555942163831,-0.009694841386656801
6837.556941936046,-0.009722911302193814
6837.557941708262,-0.00975052864520475
6837.558941480477,-0.009777688721179264
6837.559941252693,-0.009804386915602509
6837.560941024908,-0.009830618691540706
6837.561940797123,-0.009856379587078249
6837.562940569338,-0.009881665212605771
6837.5639403415535,-0.00990647124795888
6837.564940113769,-0.009930793439407655
6837.565939885984,-0.00995462759649755
6837.566939658199,-0.009977969588742874
6837.567939430414,-0.010000815342174623
6837.56893920263,-0.010023160835745015
6837.569938974845,-0.010045002097591635
6837.570938747061,-0.010066335201164718
6837.571938519275,-0.010087156261221515
6837.572938291491,-0.010107461429692275
6837.573938063706,-0.010127246891422647
6837.574937835921,-0.010146508859797735
6837.575937608137,-0.0101652435722531
6837.576937380352,-0.010183447285678186
6837.577937152567,-0.0102011162717176
6837.578936924782,-0.010218246811975678
6837.579936696998,-0.01023483519312974
6837.580936469213,-0.0102508777019575
6837.581936241429,-0.010266370620284244
6837.582936013643,-0.01028131021985568
6837.583935785859,-0.010295692757142639
6837.584935558074,-0.010309514468084265
6837.585935330289,-0.010322771562776716
6837.586935102505,-0.010335460220114745
6837.58793487472,-0.010347576582393894
6837.588934646935,-0.010359116749881164
6837.58993441915,-0.010370076775362213
6837.590934191366,-0.01038045265867319
6837.591933963581,-0.010390240341225303
6837.592933735797,-0.010399435700530158
6837.593933508011,-0.010408034544733874
6837.5949332802265,-0.010416032607167771
6837.595933052442,-0.010423425540923162
6837.596932824657,-0.010430208913457494
6837.597932596873,-0.010436378201238591
6837.598932369088,-0.01044192878443336
6837.599932141303,-0.010446855941646828
6837.600931913518,-0.010451154844717045
6837.601931685734,-0.010454820553571078
6837.602931457949,-0.010457848011147214
6837.603931230165,-0.010460232038388471
6837.604931002379,-0.01046196732931256
6837.6059307745945,-0.010463048446163577
6837.60693054681,-0.010463469814650848
6837.607930319025,-0.010463225719280492
6837.608930091241,-0.010462310298785344
6837.609929863456,-0.010460717541658962
6837.610929635671,-0.010458441281799439
6837.611929407886,-0.010455475194268756
6837.612929180102,-0.010451812791173368
6837.613928952317,-0.010447447417671663
6837.614928724533,-0.010442372248113885
6837.615928496747,-0.01043658028232002
6837.6169282689625,-0.010430064342000956
6837.617928041178,-0.010422817067328066
6837.618927813393,-0.010414830913656095
6837.619927585609,-0.01040609814840402
6837.620927357823,-0.010396610848098347
6837.621927130039,-0.010386360895583154
6837.622926902254,-0.010375339977401105
6837.62392667447,-0.010363539581349673
6837.624926446685,-0.010350950994216812
6837.6259262189005,-0.010337565299700454
6837.626925991115,-0.010323373376516167
6837.6279257633305,-0.010308365896697381
6837.628925535546,-0.010292533324092468
6837.629925307761,-0.010275865913062907
6837.630925079977,-0.010258353707386529
6837.631924852191,-0.010239986539369654
6837.632924624407,-0.010220754029171676
6837.633924396622,-0.010200645584345308
6837.634924168838,-0.010179650399595359
6837.635923941053,-0.010157757456758433
6837.636923713268,-0.010134955525005441
6837.637923485483,-0.010111233161268135
6837.6389232576985,-0.010086578710890273
6837.639923029914,-0.010060980308503286
6837.640922802129,-0.01003442587912571
6837.641922574345,-0.010006903139485058
6837.642922346559,-0.009978399599560454
6837.643922118775,-0.009948902564343953
6837.64492189099,-0.00991839913581842
6837.645921663206,-0.009886876215149717
6837.646921435421,-0.009854320505090912
6837.647921207636,-0.009820718512596277
6837.648920979851,-0.009786056551642738
6837.6499207520665,-0.009750320746256425
6837.650920524282,-0.009713497033741823
6837.651920296497,-0.009675571168110986
6837.652920068713,-0.009636528723710113
6837.653919840927,-0.009596355099040723
6837.654919613143,-0.009555035520772382
6837.655919385358,-0.009512555047943677
6837.656919157574,-0.009468898576347666
6837.657918929789,-0.009424050843097474
6837.658918702004,-0.009377996431367107
6837.659918474219,-0.009330719775301938
6837.660918246434,-0.009282205165092844
6837.66191801865,-0.009232436752207649
6837.662917790865,-0.009181398554773347
6837.663917563081,-0.009129074463102614
6837.664917335295,-0.009075448245358378
6837.665917107511,-0.009020503553350547
6837.666916879726,-0.0089642239284594
6837.667916651942,-0.00890659280768057
6837.668916424157,-0.008847593529786913
6837.669916196372,-0.008787209341602866
6837.670915968587,-0.008725423404387185
6837.671915740802,-0.008662218800320148
6837.672915513018,-0.008597578539091572
6837.673915285233,-0.008531485564586185
6837.674915057449,-0.008463922761663148
6837.675914829663,-0.008394872963026635
6837.676914601879,-0.008324318956184584
6837.677914374094,-0.008252243490492762
6837.67891414631,-0.008178629284281435
6837.679913918525,-0.008103459032061952
6837.68091369074,-0.008026715411810723
6837.681913462955,-0.007948381092328188
6837.68291323517,-0.007868438740670555
6837.683913007386,-0.007786871029652352
6837.684912779601,-0.007703660645418051
6837.685912551816,-0.007618790295081301
6837.686912324031,-0.0075322427144305405
6837.687912096247,-0.007444000675700017
6837.688911868462,-0.007354046995405451
6837.689911640678,-0.007262364542243786
6837.690911412893,-0.007168936245056648
6837.691911185108,-0.007073745100857299
6837.692910957323,-0.00697677418292094
6837.693910729538,-0.006878006648938296
6837.694910501754,-0.00677742574923241
6837.695910273969,-0.006675014835038501
6837.696910046184,-0.006570757366846563
6837.697909818399,-0.0064646369228061685
6837.698909590615,-0.006356637207192714
6837.69990936283,-0.006246742058934194
6837.700909135046,-0.006134935460197505
6837.70190890726,-0.0060212015450334085
6837.702908679476,-0.005905524608079426
6837.703908451691,-0.005787889113320355
6837.704908223906,-0.005668279702906438
6837.705907996122,-0.005546681206029656
6837.706907768337,-0.005423078647858989
6837.707907540552,-0.005297457258535828
6837.708907312767,-0.005169802482230987
6837.709907084983,-0.005040099986264939
6837.710906857198,-0.004908335670293042
6837.7119066294135,-0.00477449567555756
6837.712906401628,-0.004638566394208251
6837.713906173844,-0.004500534478693224
6837.714905946059,-0.004360386851221506
6837.715905718274,-0.004218110713298522
6837.71690549049,-0.004073693555335289
6837.717905262705,-0.0039271231663317255
6837.71890503492,-0.0037783876436340174
6837.719904807135,-0.003627475402765552
6837.720904579351,-0.0034743751873305894
6837.721904351566,-0.003319076078989566
6837.7229041237815,-0.003161567507504769
6837.723903895996,-0.0030018392608550516
6837.724903668212,-0.002839881495418269
6837.725903440427,-0.002675684746220127
6837.726903212642,-0.0025092399372481835
6837.727902984858,-0.0023405383918297627
6837.728902757073,-0.002169571843072571
6837.729902529288,-0.001996332444366807
6837.730902301503,-0.0018208127799475627
6837.731902073719,-0.0016430058755162538
6837.732901845934,-0.001462905208919753
6837.7339016181495,-0.0012805047208856834
6837.734901390364,-0.0010957988258120251
6837.73590116258,-0.0009087824226087543
6837.736900934795,-0.0007194509055886715
6837.73790070701,-0.0005278001754039894
6837.738900479226,-0.00033382665002468925
6837.739900251441,-0.00013752727575415866
6837.740900023656,6.11004617227644e-05
6837.741899795871,0.0002620585262644898
6837.742899568087,0.0004653483201754216
6837.743899340302,0.0006709706730921038
6837.7448991125175,0.0008789258308580809
6837.745898884732,0.0010892134443927
6837.746898656947,0.001301832558558966
6837.747898429163,0.001516781601035437
6837.748898201378,0.001734058371197026
6837.749897973594,0.0019536600290094475
6837.750897745808,0.002175583083941964
6837.751897518024,0.0023998233839029794
6837.752897290239,0.002626376104202955
6837.753897062455,0.002855235736549059
6837.75489683467,0.003086396078075933
6837.7558966068855,0.0033198502204170094
6837.7568963791,0.0035555905388209483
6837.757896151315,0.003793608681317995
6837.758895923531,0.004033895557941402
6837.759895695746,0.004276441330009446
6837.760895467962,0.0045212353994739645
6837.761895240176,0.004768266398341767
6837.762895012392,0.0050175221781755775
6837.763894784607,0.005268989799681499
6837.764894556823,0.0055226555223902105
6837.765894329038,0.005778504794439391
6837.766894101253,0.006036522242465102
6837.767893873468,0.0062966916616101435
6837.768893645683,0.006558996005657748
6837.769893417899,0.006823417377299311
6837.770893190114,0.007089937018545223
6837.77189296233,0.007358535301288169
6837.772892734544,0.007629191718028588
6837.77389250676,0.00790188487277223
6837.774892278975,0.008176592472110037
6837.775892051191,0.008453291316490896
6837.776891823406,0.008731957291698296
6837.7778915956205,0.009012565360542278
6837.778891367836,0.009295089554778665
6837.779891140051,0.009579502967267882
6837.780890912267,0.009865777744386095
6837.781890684482,0.010153885078701576
6837.782890456698,0.010443795201929234
6837.783890228912,0.010735477378176187
6837.784890001128,0.011028899897491031
6837.785889773343,0.011324030069729232
6837.786889545559,0.011620834218746828
6837.787889317774,0.01191927767693439
6837.7888890899885,0.01221932478010309
6837.789888862204,0.012520938862734594
6837.790888634419,0.012824082253606445
6837.791888406635,0.013128716271804584
6837.79288817885,0.013434801223134582
6837.793887951066,0.013742296396943124
6837.79488772328,0.014051160063361217
6837.795887495496,0.014361349470980608
6837.796887267711,0.014672820844974772
6837.797887039927,0.01498552938567593
6837.798886812142,0.015299429267619354
6837.7998865843565,0.015614473639066305
6837.800886356572,0.01593061462201676
6837.801886128787,0.016247803312722936
6837.802885901003,0.01656598978271439
6837.803885673218,0.01688512308034522
6837.804885445434,0.0172051512328735
6837.805885217648,0.017526021249082733
6837.806884989864,0.017847679122454684
6837.807884762079,0.018170069834902557
6837.808884534295,0.01849313736107311
6837.80988430651,0.0188168246732259
6837.8108840787245,0.01914107374669764
6837.81188385094,0.019465825565959077
6837.812883623155,0.019791020131271847
6837.813883395371,0.020116596465952173
6837.814883167586,0.020442492624248323
6837.815882939802,0.020768645699838367
6837.816882712016,0.021094991834954842
6837.817882484232,0.021421466230142638
6837.818882256447,0.021748003154656446
6837.819882028663,0.022074535957503957
6837.820881800878,0.02240099707914074
6837.8218815730925,0.02272731806382254
6837.822881345308,0.02305342957262038
6837.823881117523,0.02337926139710356
6837.824880889739,0.023704742473695348
6837.825880661954,0.024029800898705628
6837.826880434169,0.024354363944044697
6837.827880206384,0.024678358073621894
6837.8288799786,0.025001708960432554
6837.829879750815,0.025324341504336476
6837.830879523031,0.02564617985053071
6837.831879295245,0.025967147408719186
6837.83287906746,0.02628716687298132
6837.833878839676,0.026606160242341283
6837.834878611891,0.026924048842039475
6837.835878384107,0.027240753345507292
6837.836878156322,0.027556193797046147
6837.837877928537,0.027870289635211452
6837.838877700752,0.02818295971690196
6837.839877472968,0.02849412234215471
6837.840877245183,0.02880369527964555
6837.841877017399,0.02911159579289489
6837.842876789613,0.029417740667178005
6837.843876561828,0.029722046237138793
6837.844876334044,0.030024428415105293
6837.845876106259,0.030324802720104845
6837.846875878475,0.030623084307576133
6837.84787565069,0.030919187999774757
6837.848875422905,0.03121302831686843
6837.84987519512,0.03150451950871732
6837.850874967336,0.03179357558733442
6837.851874739551,0.032080110360020314
6837.852874511767,0.032364037463166025
6837.853874283981,0.032645270396717246
6837.854874056196,0.0329237225592927
6837.855873828412,0.033199307283948834
6837.856873600627,0.03347193787458279
6837.857873372843,0.0337415276429649
6837.858873145058,0.03400798994639171
6837.859872917273,0.034271238225949865
6837.860872689488,0.034531186045380566
6837.861872461704,0.03478774713053383
6837.862872233919,0.03504083540940082
6837.863872006134,0.035290365052711895
6837.864871778349,0.03553625051508702
6837.865871550564,0.035778406576724466
6837.86687132278,0.03601674838561268
6837.867871094995,0.03625119150024922
6837.868870867211,0.03648165193284952
6837.869870639426,0.03670804619302723
6837.870870411641,0.03693029133192627
6837.871870183856,0.03714830498678347
6837.872869956072,0.03736200542589901
6837.873869728287,0.037571311593989846
6837.874869500502,0.0377761431578997
6837.875869272717,0.03797642055263695
6837.876869044932,0.038172065027709805
6837.877868817148,0.03836299869372567
6837.878868589363,0.038549144569219325
6837.879868361579,0.03873042662767214
6837.880868133794,0.03890676984468169
6837.881867906009,0.03907810024523852
6837.882867678224,0.039244344951063756
6837.88386745044,0.039405432227958594
6837.884867222655,0.03956129153311331
6837.88586699487,0.03971185356232055
6837.886866767085,0.03985705029703456
6837.8878665393,0.03999681505121493
6837.888866311516,0.04013108251789048
6837.889866083731,0.04025978881537624
6837.890865855947,0.04038287153307395
6837.891865628161,0.04050026977678395
6837.892865400377,0.040611924213454866
6837.893865172592,0.04071777711529533
6837.894864944808,0.04081777240317128
6837.895864717023,0.04091185568921139
6837.8968644892375,0.04099997431854313
6837.897864261453,0.04108207741008205
6837.898864033668,0.04115811589629802
6837.899863805884,0.041228042561883164
6837.900863578099,0.04129181208124848
6837.901863350315,0.041349381054778034
6837.902863122529,0.04140070804377274
6837.903862894745,0.041445753604018316
6837.90486266696,0.04148448031791566
6837.905862439176,0.04151685282511508
6837.906862211391,0.04154283785159972
6837.9078619836055,0.04156240423716765
6837.908861755821,0.04157552296126643
6837.909861528036,0.041582167167138716
6837.910861300252,0.04158231218424226
6837.911861072467,0.041575935548912736
6837.912860844683,0.04156301702324295
6837.913860616897,0.04154353861215666
6837.914860389113,0.041517484578660335
6837.915860161328,0.04148484145726079
6837.916859933544,0.041445598065540996
6837.917859705759,0.04139974551389069
6837.9188594779735,0.041347277213392854
6837.919859250189,0.041288188881870996
6837.920859022404,0.04122247854810634
6837.92185879462,0.04115014655423808
6837.922858566835,0.041071195556363786
6837.923858339051,0.04098563052336056
6837.924858111265,0.040893458733951144
6837.925857883481,0.04079468977204228
6837.926857655696,0.040689335520365244
6837.927857427912,0.040577410152451004
6837.928857200127,0.0404589301229744
6837.929856972341,0.04033391415650368
6837.930856744557,0.04020238323469308
6837.931856516772,0.040064360581957344
6837.932856288988,0.03991987164966799
6837.933856061203,0.03976894409891213
6837.934855833419,0.039611607781855025
6837.935855605633,0.03944789472174817
6837.936855377849,0.03927783909162529
6837.937855150064,0.03910147719172886
6837.93885492228,0.03891884742570987
6837.939854694495,0.03872999027564408
6837.940854466709,0.038534948275907616
6837.941854238925,0.03833376598595498
6837.94285401114,0.03812648996204223
6837.943853783356,0.03791316872793751
6837.944853555571,0.03769385274466119
6837.945853327787,0.03746859437929674
6837.946853100001,0.03723744787291366
6837.947852872217,0.03700046930764254
6837.948852644432,0.03675771657294216
6837.949852416647,0.03650924933109789
6837.950852188863,0.03625512898198997
6837.951851961077,0.03599541862716977
6837.952851733293,0.035730183033281536
6837.953851505508,0.035459488594866764
6837.954851277724,0.035183403296587715
6837.955851049939,0.034901996674906295
6837.956850822154,0.034615339779253976
6837.957850594369,0.03432350513272813
6837.958850366585,0.03402656669234942
6837.9598501388,0.03372459980891466
6837.960849911015,0.03341768118647894
6837.96184968323,0.033105888841500106
6837.962849455445,0.03278930206167815
6837.963849227661,0.032468001364521576
6837.964848999876,0.03214206845567199
6837.965848772092,0.03181158618701761
6837.966848544307,0.03147663851462579
6837.967848316522,0.031137310456523938
6837.968848088737,0.030793688050357735
6837.9698478609525,0.03044585831095468
6837.970847633168,0.030093909187820744
6837.971847405383,0.02973792952259685
6837.972847177598,0.02937800900650157
6837.973846949813,0.029014238137785617
6837.974846722029,0.02864670817922326
6837.975846494244,0.028275511115665158
6837.97684626646,0.02790073961167681
6837.977846038675,0.027522486969286435
6837.97884581089,0.027140847085865605
6837.979845583105,0.02675591441216587
6837.9808453553205,0.02636778391053416
6837.981845127536,0.02597655101332944
6837.982844899751,0.02558231158156268
6837.983844671966,0.02518516186378173
6837.984844444181,0.024785198455222243
6837.985844216397,0.024382518257245227
6837.986843988612,0.023977218437081425
6837.987843760828,0.023569396387902113
6837.988843533043,0.02315914968923547
6837.989843305258,0.022746576067747073
6837.990843077473,0.022331773358402585
6837.9918428496885,0.021914839466030255
6837.992842621904,0.0214958723273
6837.993842394119,0.021074969873135438
6837.994842166334,0.020652229991574567
6837.995841938549,0.020227750491094137
6837.996841710765,0.01980162906441223
6837.99784148298,0.019373963252783045
6837.998841255196,0.01894485041079743
6837.999841027411,0.01851438767170208
6838.000840799626,0.018082671913249877
6838.001840571841,0.01764979972409317
6838.0028403440565,0.017215867370731244
6838.003840116272,0.01678097076502237
6838.004839888487,0.016345205432270287
6838.005839660702,0.01590866647989398
6838.006839432917,0.015471448566689083
6838.007839205133,0.015033645872688456
6838.008838977348,0.014595352069628876
6838.009838749564,0.014156660292030158
6838.010838521779,0.01371766310889252
6838.011838293994,0.013278452496017423
6838.012838066209,0.012839119808956703
6838.0138378384245,0.01239975575659432
6838.01483761064,0.011960450375364825
6838.015837382855,0.011521293004112351
6838.01683715507,0.011082372259593878
6838.017836927285,0.010643776012630399
6838.018836699501,0.01020559136490951
6838.019836471716,0.009767904626442805
6838.020836243932,0.009330801293681124
6838.021836016146,0.00889436602829035
6838.022835788362,0.008458682636589833
6838.023835560577,0.008023834049654986
6838.0248353327925,0.007589902304084908
6838.025835105008,0.007156968523435265
6838.026834877222,0.006725112900316014
6838.027834649438,0.006294414679153019
6838.028834421653,0.005864952139612074
6838.029834193869,0.005436802580683312
6838.030833966084,0.005010042305423542
6838.0318337383,0.004584746606353536
6838.032833510514,0.00416098975150687
6838.03383328273,0.003738844971126469
6838.034833054945,0.003318384445004685
6838.03583282716,0.0028996792904624497
6838.036832599376,0.002482799550962802
6838.03783237159,0.0020678141853539556
6838.038832143806,0.0016547910577369028
6838.039831916021,0.001243796927952408
6838.040831688237,0.0008348974426820344
6838.041831460452,0.0004281571271575841
6838.042831232668,2.3639377473002534e-05
6838.043831004882,-0.00037859354650757193
6838.044830777098,-0.0007784805276523229
6838.045830549313,-0.00117596159748193
6838.046830321528,-0.0015709779415148555
6838.047830093744,-0.0019634719040455186
6838.048829865958,-0.0023533869923634053
6838.049829638174,-0.0027406678804214133
6838.050829410389,-0.0031252604119619593
6838.051829182605,-0.0035071116031096155
6838.05282895482,-0.0038861696444392824
6838.053828727036,-0.0042623839025291085
6838.05482849925,-0.004635704921007544
6838.0558282714655,-0.005006084421104001
6838.056828043681,-0.005373475301712642
6838.057827815896,-0.005737831638978786
6838.058827588112,-0.006099108685417367
6838.059827360326,-0.006457262868572831
6838.060827132542,-0.006812251789229835
6838.061826904757,-0.007164034219184105
6838.062826676973,-0.007512570098582908
6838.063826449188,-0.007857820532844704
6838.064826221404,-0.008199747789167636
6838.065825993618,-0.008538315292636711
6838.0668257658335,-0.00887348762193958
6838.067825538049,-0.009205230504700948
6838.068825310264,-0.009533510812445743
6838.06982508248,-0.009858296555201257
6838.070824854694,-0.010179556875748542
6838.07182462691,-0.010497262043533398
6838.072824399125,-0.010811383448247362
6838.073824171341,-0.01112189359308911
6838.074823943556,-0.011428766087716704
6838.075823715772,-0.011731975640901096
6838.076823487986,-0.012031498052891249
6838.0778232602015,-0.0123273102075011
6838.078823032417,-0.012619390063928574
6838.079822804632,-0.012907716648316732
6838.080822576848,-0.013192270045067112
6838.081822349062,-0.013473031387915259
6838.082822121278,-0.013749982850778457
6838.083821893493,-0.014023107638385764
6838.084821665709,-0.014292389976700456
6838.085821437924,-0.014557815103145091
6838.086821210139,-0.014819369256639492
6838.087820982354,-0.015077039667461902
6838.0888207545695,-0.015330814546943558
6838.089820526785,-0.015580683077006682
6838.090820299,-0.015826635399555748
6838.091820071215,-0.016068662605731577
6838.09281984343,-0.01630675672503747
6838.093819615646,-0.016540910714346258
6838.094819387861,-0.01677111844679673
6838.095819160077,-0.016997374700587483
6838.096818932292,-0.01721967514767579
6838.097818704507,-0.017438016342388556
6838.098818476722,-0.017652395709952206
6838.0998182489375,-0.017862811534947856
6838.100818021153,-0.018069262949698097
6838.101817793368,-0.01827174992259163
6838.102817565583,-0.018470273246352045
6838.103817337798,-0.01866483452625715
6838.104817110014,-0.018855436168315337
6838.105816882229,-0.01904208136740574
6838.106816654445,-0.019224774095388922
6838.10781642666,-0.019403519089195038
6838.108816198875,-0.01957832183889625
6838.10981597109,-0.01974918857577021
6838.1108157433055,-0.01991612626036126
6838.111815515521,-0.020079142570545896
6838.112815287736,-0.020238245889608954
6838.113815059951,-0.02039344529433682
6838.114814832166,-0.020544750543133823
6838.115814604382,-0.020692172064167895
6838.116814376597,-0.020835720943551277
6838.117814148813,-0.02097540891356197
6838.118813921028,-0.02111124834091141
6838.119813693243,-0.02124325221506378
6838.120813465458,-0.021371434136612258
6838.121813237673,-0.021495808305717456
6838.122813009889,-0.02161638951061343
6838.123812782104,-0.021733193116186614
6838.124812554319,-0.02184623505263311
6838.125812326534,-0.02195553180419979
6838.12681209875,-0.022061100398014573
6838.127811870965,-0.022162958393011467
6838.128811643181,-0.022261123868955488
6838.129811415396,-0.02235561541557265
6838.130811187611,-0.02244645212179002
6838.131810959826,-0.022533653565090555
6838.132810732041,-0.02261723980098743
6838.133810504257,-0.022697231352622416
6838.134810276472,-0.02277364920049275
6838.135810048687,-0.02284651477231097
6838.136809820902,-0.02291584993300189
6838.137809593118,-0.022981676974840912
6838.138809365333,-0.023044018607737558
6838.139809137549,-0.0231028979496679
6838.140808909764,-0.02315833851725947
6838.141808681979,-0.023210364216532043
6838.142808454194,-0.02325899933379756
6838.143808226409,-0.023304268526722346
6838.144807998625,-0.02334619681555476
6838.14580777084,-0.023384809574521312
6838.146807543055,-0.02342013252339409
6838.14780731527,-0.023452191719232157
6838.148807087486,-0.02348101354829948
6838.149806859701,-0.023506624718161503
6838.150806631917,-0.02352905224996228
6838.151806404131,-0.023548323470883648
6838.1528061763465,-0.023564466006787514
6838.153805948562,-0.023577507775042198
6838.154805720777,-0.023587476977533176
6838.155805492993,-0.02359440209385816
6838.156805265207,-0.023598311874706072
6838.157805037423,-0.023599235335418803
6838.158804809638,-0.023597201749734148
6838.159804581854,-0.02359224064370774
6838.160804354069,-0.023584381789811253
6838.161804126285,-0.023573655201203608
6838.162803898499,-0.02356009112617163
6838.1638036707145,-0.0235437200427363
6838.16480344293,-0.02352457265342052
6838.165803215145,-0.023502679880174192
6838.166802987361,-0.02347807285945235
6838.167802759575,-0.023450782937441805
6838.168802531791,-0.0234208416654319
6838.169802304006,-0.02338828079532459
6838.170802076222,-0.023353132275279104
6838.171801848437,-0.023315428245486183
6838.1728016206525,-0.02327520103406659
6838.173801392867,-0.02323248315308853
6838.1748011650825,-0.023187307294698287
6838.175800937298,-0.02313970632735802
6838.176800709513,-0.023089713292184347
6838.177800481729,-0.023037361399381086
6838.178800253943,-0.022982684024758962
6838.179800026159,-0.022925714706334886
6838.180799798374,-0.022866487141003075
6838.18179957059,-0.022805035181269997
6838.182799342805,-0.02274139283204504
6838.1837991150205,-0.022675594247478836
6838.184798887235,-0.022607673727841136
6838.1857986594505,-0.02253766571643035
6838.186798431666,-0.022465604796507062
6838.187798203881,-0.022391525688243957
6838.188797976097,-0.02231546324568498
6838.189797748311,-0.022237452453706567
6838.190797520527,-0.022157528424974062
6838.191797292742,-0.02207572639688662
6838.192797064958,-0.02199208172850415
6838.193796837173,-0.02190662989744981
6838.1947966093885,-0.021819406496781678
6838.195796381603,-0.021730447231827238
6838.1967961538185,-0.021639787916974226
6838.197795926034,-0.021547464472411276
6838.198795698249,-0.021453512920811754
6838.199795470465,-0.021357969383954175
6838.200795242679,-0.021260870079272576
6838.201795014895,-0.021162251316330455
6838.20279478711,-0.02106214949321206
6838.203794559326,-0.02096060109282521
6838.204794331541,-0.020857642679110153
6838.2057941037565,-0.020753310893149447
6838.206793875971,-0.020647642449174244
6838.207793648186,-0.02054067413046268
6838.208793420402,-0.020432442785126466
6838.209793192617,-0.02032298532178199
6838.210792964833,-0.02021233870510265
6838.211792737047,-0.020100539951249403
6838.212792509263,-0.019987626123177
6838.213792281478,-0.019873634325813704
6838.214792053694,-0.019758601701112693
6838.215791825909,-0.01964256542297368
6838.216791598124,-0.01952556269203352
6838.217791370339,-0.019407630730324844
6838.218791142554,-0.019288806775802
6838.21979091477,-0.019169128076733752
6838.220790686985,-0.019048631885962602
6838.2217904592,-0.018927355455030936
6838.222790231415,-0.018805336028174614
6838.223790003631,-0.018682610836185186
6838.224789775846,-0.018559217090142445
6838.225789548062,-0.01843519197501956
6838.226789320277,-0.01831057264316348
6838.227789092492,-0.018185396207653734
6838.228788864707,-0.01805969973554314
6838.229788636922,-0.017933520240984196
6838.230788409138,-0.017806894678245155
6838.231788181353,-0.017679859934619954
6838.232787953568,-0.01755245282323629
6838.233787725783,-0.01742471007576613
6838.234787497999,-0.01729666833504282
6838.235787270214,-0.01716836414758915
6838.23678704243,-0.017039833956060322
6838.237786814645,-0.016911114091605884
6838.23878658686,-0.016782240766154394
6838.239786359075,-0.01665325006462455
6838.24078613129,-0.01652417793706652
6838.241785903506,-0.01639506019073728
6838.242785675721,-0.01626593248211386
6838.243785447936,-0.01613683030884857
6838.244785220151,-0.01600778900167043
6838.245784992367,-0.01587884371623713
6838.246784764582,-0.015750029424941924
6838.247784536798,-0.015621380908679896
6838.248784309013,-0.015492932748578036
6838.249784081228,-0.015364719317693658
6838.250783853443,-0.015236774772685688
6838.251783625658,-0.015109133045463454
6838.252783397874,-0.014981827834817772
6838.253783170089,-0.014854892598039187
6838.254782942304,-0.014728360542528329
6838.255782714519,-0.014602264617403393
6838.256782486735,-0.014476637505109845
6838.25778225895,-0.01435151161303731
6838.2587820311655,-0.014226919065148535
6838.259781803381,-0.014102891693625212
6838.260781575596,-0.013979461030535253
6838.261781347811,-0.01385665829952607
6838.262781120026,-0.01373451440754825
6838.263780892242,-0.01361305993661407
6838.264780664457,-0.013492325135595156
6838.265780436672,-0.01337233991206372
6838.266780208887,-0.013253133824181734
6838.267779981103,-0.013134736072642393
6838.268779753318,-0.013017175492668235
6838.2697795255335,-0.012900480546070167
6838.270779297749,-0.012784679313371666
6838.271779069964,-0.012669799486002256
6838.272778842179,-0.012555868358564341
6838.273778614394,-0.012442912821177269
6838.27477838661,-0.012330959351902385
6838.275778158825,-0.012220034009252657
6838.27677793104,-0.012110162424790297
6838.277777703255,-0.012001369795815517
6838.278777475471,-0.011893680878149427
6838.279777247686,-0.011787119979013955
6838.2807770199015,-0.011681710950011585
6838.281776792116,-0.011577477180207624
6838.282776564332,-0.011474441589317819
6838.283776336547,-0.011372626621004104
6838.284776108762,-0.01127205423628141
6838.285775880978,-0.011172745907038272
6838.286775653192,-0.011074722609674088
6838.287775425408,-0.010978004818855651
6838.288775197623,-0.010882612501395467
6838.289774969839,-0.010788565110254283
6838.290774742054,-0.010695881578670187
6838.2917745142695,-0.010604580314416601
6838.292774286484,-0.010514679194191561
6838.2937740587,-0.010426195558140755
6838.294773830915,-0.010339146204516916
6838.29577360313,-0.010253547384478258
6838.296773375346,-0.010169414797028787
6838.29777314756,-0.010086763584103273
6838.298772919776,-0.01000560832579975
6838.299772691991,-0.00992596303576235
6838.300772464207,-0.009847841156717321
6838.301772236422,-0.009771255556165046
6838.3027720086375,-0.009696218522231079
6838.303771780852,-0.009622741759679266
6838.304771553067,-0.00955083638609022
6838.305771325283,-0.009480512928208598
6838.306771097498,-0.009411781318462684
6838.307770869714,-0.009344650891659825
6838.308770641928,-0.009279130381861176
6838.309770414144,-0.009215227919439063
6838.310770186359,-0.009152951028320085
6838.311769958575,-0.009092306623416877
6838.31276973079,-0.009033301008251197
6838.3137695030055,-0.008975939872770814
6838.31476927522,-0.008920228291362372
6838.315769047435,-0.008866170721062197
6838.316768819651,-0.008813770999966612
6838.317768591866,-0.008763032345842995
6838.318768364082,-0.00871395735494242
6838.319768136296,-0.008666548001014296
6838.320767908512,-0.008620805634523108
6838.321767680727,-0.008576730982067087
6838.322767452943,-0.008534324145998444
6838.323767225158,-0.008493584604244705
6838.324766997373,-0.008454511210330666
6838.325766769588,-0.008417102193600484
6838.326766541803,-0.008381355159639448
6838.327766314019,-0.008347267090895043
6838.328766086234,-0.008314834347496906
6838.32976585845,-0.008284052668275343
6838.330765630664,-0.008254917171978089
6838.33176540288,-0.008227422358685036
6838.332765175095,-0.008201562111420658
6838.333764947311,-0.008177329697963809
6838.334764719526,-0.008154717772854463
6838.335764491741,-0.008133718379596795
6838.336764263956,-0.008114322953057727
6838.337764036171,-0.008096522322059848
6838.338763808387,-0.008080306712167279
6838.339763580602,-0.008065665748662822
6838.340763352818,-0.008052588459714521
6838.341763125032,-0.008041063279729636
6838.342762897248,-0.008031078052893947
6838.343762669463,-0.008022620036894319
6838.344762441679,-0.008015675906822535
6838.345762213894,-0.008010231759258416
6838.3467619861085,-0.008006273116530304
6838.347761758324,-0.00800378493115104
6838.348761530539,-0.008002751590427577
6838.349761302755,-0.008003156921242443
6838.35076107497,-0.00800498419500534
6838.351760847185,-0.008008216132773225
6838.3527606194,-0.008012834910537215
6838.353760391616,-0.008018822164674687
6838.354760163831,-0.00802615899756478
6838.355759936047,-0.0080348259833653
6838.356759708262,-0.008044803173948827
6838.3577594804765,-0.008056070104995428
6838.358759252692,-0.008068605802239209
6838.359759024907,-0.008082388787865689
6838.360758797123,-0.008097397087056785
6838.361758569338,-0.008113608234680101
6838.362758341553,-0.008130999282119104
6838.363758113768,-0.008149546804240704
6838.364757885984,-0.008169226906496827
6838.365757658199,-0.00819001523215657
6838.366757430415,-0.008211886969665658
6838.36775720263,-0.008234816860130037
6838.3687569748445,-0.008258779204920496
6838.36975674706,-0.008283747873395333
6838.370756519275,-0.008309696310738095
6838.371756291491,-0.008336597545907475
6838.372756063706,-0.008364424199696446
6838.373755835921,-0.008393148492897757
6838.374755608136,-0.008422742254572973
6838.375755380352,-0.008453176930422308
6838.376755152567,-0.008484423591252604
6838.377754924783,-0.00851645294154077
6838.378754696998,-0.008549235328090028
6838.3797544692125,-0.008582740748776142
6838.380754241428,-0.008616938861380603
6838.381754013643,-0.008651798992507577
6838.382753785859,-0.008687290146581083
6838.383753558074,-0.008723381014918761
6838.384753330289,-0.008760039984878369
6838.385753102504,-0.008797235149073138
6838.38675287472,-0.00883493431465211
6838.387752646935,-0.00887310501264167
6838.388752419151,-0.008911714507344584
6838.389752191366,-0.008950729805793029
6838.39075196358,-0.00899011766725222
6838.391751735796,-0.009029844612771457
6838.392751508011,-0.00906987693477955
6838.393751280227,-0.009110180706721678
6838.394751052442,-0.009150721792734814
6838.395750824657,-0.009191465857358819
6838.396750596872,-0.009232378375280325
6838.397750369088,-0.009273424641106478
6838.398750141303,-0.009314569779165562
6838.399749913519,-0.009355778753331621
6838.400749685734,-0.009397016376870173
6838.401749457948,-0.009438247322302326
6838.402749230164,-0.009479436131284762
6838.403749002379,-0.009520547224503302
6838.404748774595,-0.009561544911577992
6838.40574854681,-0.009602393400977892
6838.406748319025,-0.009643056809943967
6838.40774809124,-0.009683499174418617
6838.408747863456,-0.00972368445898056
6838.409747635671,-0.009763576566783826
6838.410747407886,-0.009803139349499751
6838.411747180101,-0.009842336617260935
6838.412746952316,-0.009881132148606222
6838.413746724532,-0.009919489700425856
6838.414746496747,-0.00995737301790602
6838.415746268963,-0.009994745844472007
6838.416746041177,-0.010031571931729263
6838.417745813393,-0.010067815049401508
6838.418745585608,-0.01010343899526512
6838.419745357824,-0.01013840760507888
6838.420745130039,-0.010172684762508252
6838.421744902254,-0.010206234409043332
6838.422744674469,-0.01023902055390975
6838.423744446684,-0.010271007283971872
6838.4247442189,-0.010302158773627767
6838.425743991115,-0.010332439294695394
6838.426743763331,-0.010361813226289528
6838.427743535545,-0.010390245064688804
6838.428743307761,-0.010417699433192174
6838.429743079976,-0.0104441410919639
6838.430742852192,-0.01046953494786602
6838.431742624407,-0.010493846064276991
6838.432742396622,-0.010517039670895104
6838.433742168837,-0.010539081173524934
6838.434741941052,-0.01055993616384503
6838.435741713268,-0.010579570429154693
6838.436741485483,-0.010597949962097588
6838.437741257699,-0.010615040970359682
6838.438741029913,-0.01063080988633887
6838.439740802129,-0.010645223376783626
6838.440740574344,-0.010658248352397977
6838.44174034656,-0.01066985197741017
6838.442740118775,-0.010680001679102546
6838.44373989099,-0.010688665157300336
6838.444739663205,-0.010695810393817213
6838.44573943542,-0.010701405661855757
6838.446739207636,-0.01070541953536099
6838.447738979851,-0.010707820898325395
6838.448738752067,-0.010708578954043781
6838.449738524281,-0.010707663234316519
6838.450738296497,-0.010705043608599574
6838.451738068712,-0.010700690293099849
6838.452737840928,-0.010694573859814333
6838.453737613143,-0.01068666524551161
6838.454737385358,-0.010676935760654262
6838.455737157573,-0.010665357098260754
6838.456736929788,-0.010651901342705323
6838.457736702004,-0.010636540978454363
6838.458736474219,-0.010619248898737778
6838.459736246435,-0.010599998414153652
6838.460736018649,-0.010578763261204592
6838.461735790865,-0.010555517610764058
6838.46273556308,-0.010530236076470937
6838.463735335296,-0.01050289372305067
6838.464735107511,-0.010473466074561243
6838.465734879726,-0.010441929122562485
6838.466734651941,-0.010408259334207179
6838.467734424156,-0.01037243366025261
6838.468734196372,-0.01033442954299126
6838.469733968587,-0.010294224924099461
6838.470733740803,-0.010251798252402853
6838.471733513017,-0.010207128491557558
6838.472733285233,-0.010160195127645967
6838.473733057448,-0.010110978176686023
6838.474732829664,-0.010059458192052777
6838.475732601879,-0.010005616271810867
6838.476732374093,-0.009949434065956308
6838.477732146309,-0.009890893783565734
6838.478731918524,-0.009829978199850993
6838.47973169074,-0.009766670663116706
6838.480731462955,-0.00970095510161821
6838.48173123517,-0.009632816030317185
6838.482731007385,-0.009562238557532226
6838.483730779601,-0.009489208391481612
6838.484730551816,-0.009413711846715606
6838.485730324032,-0.00933573585043575
6838.486730096247,-0.00925526794869876
6838.487729868461,-0.009172296312502715
6838.488729640677,-0.009086809743753383
6838.489729412892,-0.008998797681108502
6838.490729185108,-0.008908250205697939
6838.491728957323,-0.0088151580467177
6838.492728729538,-0.00871951258689579
6838.493728501753,-0.008621305867828001
6838.494728273969,-0.008520530595181689
6838.495728046184,-0.008417180143765544
6838.496727818399,-0.008311248562463283
6838.497727590615,-0.008202730579028959
6838.498727362829,-0.00809162160474144
6838.499727135045,-0.007977917738915354
6838.50072690726,-0.007861615773265648
6838.501726679476,-0.007742713196122762
6838.502726451691,-0.007621208196495313
6838.503726223906,-0.00749709966797719
6838.504725996121,-0.007370387212495972
6838.505725768337,-0.007241071143899667
6838.506725540552,-0.007109152491378834
6838.507725312767,-0.006974633002721272
6838.508725084983,-0.006837515147396559
6838.509724857197,-0.006697802119467773
6838.510724629413,-0.006555497840327827
6838.511724401628,-0.006410606961257887
6838.512724173844,-0.0062631348658053415
6838.513723946059,-0.006113087671978782
6838.514723718274,-0.005960472234257394
6838.515723490489,-0.005805296145412166
6838.5167232627045,-0.0056475677381362015
6838.51772303492,-0.005487296086481369
6838.518722807135,-0.005324491007098471
6838.519722579351,-0.005159163060278112
6838.520722351565,-0.004991323550789483
6838.521722123781,-0.004820984528514384
6838.522721895996,-0.004648158788873998
6838.523721668212,-0.0044728598730461476
6838.524721440427,-0.004295102067970977
6838.525721212642,-0.004114900406143289
6838.526720984857,-0.003932270665189937
6838.5277207570725,-0.0037472293672308147
6838.528720529288,-0.003559793778022023
6838.529720301503,-0.0033699819058798024
6838.530720073719,-0.0031778125003837656
6838.531719845933,-0.002983305050857972
6838.532719618149,-0.002786479784628392
6838.533719390364,-0.0025873576650553886
6838.53471916258,-0.00238596038933992
6838.535718934795,-0.0021823103861022416
6838.53671870701,-0.001976430812731977
6838.537718479225,-0.0017683455525085482
6838.5387182514405,-0.0015580792114911017
6838.539718023656,-0.0013456571151772962
6838.540717795871,-0.0011311053049305412
6838.541717568086,-0.0009144505341755842
6838.542717340301,-0.0006957202643626428
6838.543717112517,-0.00047494266070062085
6838.544716884732,-0.00025214658766027414
6838.545716656948,-2.7361604248508462e-05
6838.546716429162,0.0001993820409447094
6838.547716201378,0.00042805341492507343
6838.548715973593,0.0006586209056962937
6838.5497157458085,0.0008910522278838805
6838.550715518024,0.001125314428577989
6838.551715290239,0.0013613738933928204
6838.552715062454,0.0015991963527399542
6838.553714834669,0.0018387468883128597
6838.554714606885,0.0020799899397797345
6838.5557143791,0.002322889311681699
6838.556714151316,0.0025674081805332947
6838.55771392353,0.002813509102122099
6838.558713695746,0.003061154019004136
6838.559713467961,0.0033103042681915367
6838.5607132401765,0.0035609205890286396
6838.561713012392,0.0038129631312524177
6838.562712784607,0.004066391463232742
6838.563712556822,0.004321164580387602
6838.564712329037,0.004577240913768017
6838.565712101253,0.004834578338806974
6838.566711873468,0.005093134184226406
6838.567711645684,0.005352865241095937
6838.568711417898,0.005613727772036994
6838.569711190114,0.005875677520565831
6838.570710962329,0.006138669720569088
6838.5717107345445,0.006402659105905709
6838.57271050676,0.00666759992012927
6838.573710278975,0.006933445926325029
6838.57471005119,0.007200150417056287
6838.575709823405,0.007467666224414948
6838.576709595621,0.007735945730171416
6838.577709367836,0.00800494087601918
6838.578709140052,0.00827460317390958
6838.579708912266,0.008544883716472348
6838.580708684482,0.008815733187517497
6838.581708456697,0.009087101872614063
6838.582708228912,0.009358939669741106
6838.583708001128,0.009631196100006243
6838.584707773343,0.009903820318426756
6838.585707545558,0.010176761124768254
6838.586707317773,0.01044996697443568
6838.587707089989,0.010723385989411497
6838.588706862204,0.010996965969235868
6838.58970663442,0.01127065440202376
6838.590706406634,0.0115443984755141
6838.59170617885,0.01181814508814621
6838.592705951065,0.01209184086015902
6838.59370572328,0.012365432144708687
6838.594705495496,0.012638865039000515
6838.595705267711,0.012912085395431257
6838.596705039926,0.013185038832737984
6838.597704812141,0.01345767074714998
6838.598704584357,0.013729926323540233
6838.599704356572,0.01400175054657321
6838.600704128788,0.014273088211845706
6838.601703901002,0.014543883937017587
6838.602703673218,0.0148140821729292
6838.603703445433,0.015083627214702055
6838.604703217648,0.015352463212819432
6838.605702989864,0.015620534184183325
6838.606702762078,0.015887784023144086
6838.607702534294,0.016154156512499056
6838.608702306509,0.016419595334456374
6838.609702078725,0.016684044081560153
6838.61070185094,0.01694744626757327
6838.611701623155,0.017209745338313976
6838.61270139537,0.0174708846824427
6838.6137011675855,0.01773080764219556
6838.614700939801,0.017989457524061232
6838.615700712016,0.018246777609398145
6838.616700484232,0.01850271116498916
6838.617700256446,0.018757201453531328
6838.618700028662,0.01901019174405844
6838.619699800877,0.0192616253222945
6838.620699573093,0.01951144550093645
6838.621699345308,0.019759595629864592
6838.622699117523,0.02000601910627939
6838.623698889738,0.020250659384763288
6838.6246986619535,0.020493459987266264
6838.625698434169,0.020734364513013928
6838.626698206384,0.020973316648336904
6838.6276979786,0.021210260176420546
6838.628697750814,0.021445138986974043
6838.62969752303,0.021677897085818316
6838.630697295245,0.021908478604392264
6838.631697067461,0.02213682780917715
6838.632696839676,0.022362889111039147
6838.633696611891,0.02258660707449014
6838.634696384106,0.022807926426867253
6838.6356961563215,0.023026792067431547
6838.636695928537,0.02324314907638688
6838.637695700752,0.023456942723819995
6838.638695472968,0.023668118478563427
6838.639695245182,0.023876622016983078
6838.640695017398,0.02408239923169261
6838.641694789613,0.02428539624019697
6838.642694561829,0.024485559393467575
6838.643694334044,0.024682835284451764
6838.644694106259,0.02487717075651931
6838.645693878474,0.02506851291184879
6838.6466936506895,0.025256809119756914
6838.647693422905,0.02544200702497399
6838.64869319512,0.02562405455586885
6838.649692967336,0.025802899932626903
6838.65069273955,0.025978491675385042
6838.651692511766,0.026150778612327372
6838.652692283981,0.026319709887745794
6838.653692056197,0.026485234970069774
6838.654691828412,0.026647303659869472
6838.655691600627,0.026805866097836525
6838.656691372842,0.0269608727727469
6838.6576911450575,0.027112274529410264
6838.658690917273,0.027260022576610386
6838.659690689488,0.027404068495041244
6838.660690461704,0.027544364245243418
6838.661690233918,0.02768086217554547
6838.662690006134,0.02781351503001496
6838.663689778349,0.02794227595642366
6838.664689550565,0.02806709851423161
6838.66568932278,0.028187936682594367
6838.666689094995,0.02830474486839795
6838.66768886721,0.02841747791432589
6838.668688639425,0.02852609110696277
6838.669688411641,0.02863054018493872
6838.670688183856,0.028730781347119337
6838.671687956071,0.028826771260845603
6838.672687728286,0.02891846707022855
6838.673687500502,0.02900582640450339
6838.674687272717,0.02908880738644821
6838.675687044933,0.029167368640872306
6838.676686817148,0.029241469303179793
6838.677686589363,0.02931106902801416
6838.678686361578,0.029376127997989793
6838.679686133793,0.02943660693251663
6838.680685906009,0.02949246709672425
6838.681685678224,0.029543670310491956
6838.682685450439,0.02959017895759124
6838.683685222654,0.0296319559949473
6838.68468499487,0.029668964962026093
6838.685684767085,0.02970116999035378
6838.686684539301,0.029728535813175236
6838.687684311515,0.029751027775258655
6838.688684083731,0.029768611842853232
6838.689683855946,0.02978125461380707
6838.690683628161,0.029788923327852337
6838.691683400377,0.02979158587706481
6838.692683172592,0.029789210816504787
6838.693682944807,0.029781767375046307
6838.694682717022,0.02976922546640168
6838.695682489238,0.029751555700348417
6838.696682261453,0.029728729394165633
6838.697682033669,0.02970071858428735
6838.698681805883,0.029667496038180086
6838.6996815780985,0.02962903526645214
6838.700681350314,0.029585310535202
6838.701681122529,0.029536296878613165
6838.702680894745,0.02948197011180252
6838.70368066696,0.029422306843929245
6838.704680439175,0.029357284491570934
6838.70568021139,0.029286881292373387
6838.706679983606,0.029211076318980244
6838.707679755821,0.029129849493248223
6838.708679528037,0.02904318160075343
6838.709679300251,0.02895105430559371
6838.7106790724665,0.028853450165491307
6838.711678844682,0.028750352647199575
6838.712678616897,0.0286417461422165
6838.713678389113,0.028527615982806658
6838.714678161328,0.02840794845833193
6838.715677933543,0.028282730831889952
6838.716677705758,0.028151951357257426
6838.717677477974,0.02801559929613368
6838.718677250189,0.027873664935677746
6838.7196770224045,0.027726139606330052
6838.720676794619,0.027573015699907128
6838.7216765668345,0.027414286687955192
6838.72267633905,0.0272499471403453
6838.723676111265,0.027079992744089836
6838.724675883481,0.0269044203223568
6838.725675655696,0.026723227853655152
6838.726675427911,0.02653641449116112
6838.727675200126,0.026343980582152066
6838.728674972342,0.026145927687511186
6838.729674744557,0.02594225860126304
6838.7306745167725,0.025732977370096805
6838.731674288987,0.02551808931283119
6838.7326740612025,0.025297601039772022
6838.733673833418,0.025071520471911204
6838.734673605633,0.024839856859913356
6838.735673377849,0.0246026208028346
6838.736673150063,0.024359824266516426
6838.737672922279,0.02411148060159627
6838.738672694494,0.023857604561075666
6838.73967246671,0.023598212317386465
6838.740672238925,0.023333321478895722
6838.7416720111405,0.023062951105790392
6838.742671783355,0.02278712172528408
6838.7436715555705,0.022505855346089627
6838.744671327786,0.02221917547210313
6838.745671100001,0.021927107115247254
6838.746670872217,0.021629676807424086
6838.747670644431,0.021326912611530496
6838.748670416647,0.02101884413149173
6838.749670188862,0.020705502521272175
6838.750669961078,0.02038692049282575
6838.751669733293,0.02006313232295204
6838.752669505508,0.01973417385902836
6838.753669277723,0.019400082523591926
6838.7546690499385,0.01906089731775081
6838.755668822154,0.018716658823406337
6838.756668594369,0.018367409204273946
6838.757668366585,0.018013192205693414
6838.758668138799,0.017654053153223322
6838.759667911015,0.017290038950018113
6838.76066768323,0.016921198072989706
6838.761667455446,0.016547580567758822
6838.762667227661,0.01616923804240455
6838.763666999876,0.015786223660023774
6838.764666772091,0.01539859213011522
6838.765666544306,0.015006399698806117
6838.766666316522,0.014609704137942365
6838.767666088737,0.014208564733066023
6838.768665860953,0.013803042270306388
6838.769665633167,0.013393199022213293
6838.770665405383,0.012979098732563095
6838.771665177598,0.012560806600169484
6838.772664949814,0.012138389261732519
6838.773664722029,0.011711914773760218
6838.774664494244,0.01128145259359784
6838.775664266459,0.010847073559600521
6838.776664038674,0.010408849870485327
6838.77766381089,0.009966855063899101
6838.778663583105,0.009521163994238543
6838.779663355321,0.009071852809759057
6838.780663127535,0.008618998929008732
6838.781662899751,0.008162681016623527
6838.782662671966,0.007702978958519262
6838.783662444182,0.007239973836515437
6838.784662216397,0.006773747902425094
6838.785661988612,0.006304384551644153
6838.786661760827,0.005831968296272828
6838.787661533042,0.005356584737800893
6838.788661305258,0.0048783205393878
6838.789661077473,0.0043972633977680045
6838.790660849689,0.003913502014811131
6838.791660621903,0.003427126068766078
6838.792660394119,0.0029382261852175587
6838.793660166334,0.0024468939077830413
6838.79465993855,0.0019532216685775317
6838.795659710765,0.0014573027584731187
6838.79665948298,0.0009592312971797003
6838.797659255195,0.0004591022031728091
6838.79865902741,-4.2988836506054734e-05
6838.799658799626,-0.0005469453965516911
6838.800658571841,-0.0010526703437757376
6838.801658344056,-0.001560065867541748
6838.802658116271,-0.0020690335102317475
6838.803657888487,-0.0025794741977218988
6838.804657660702,-0.0030912882698456603
6838.8056574329175,-0.003604375510823556
6838.806657205133,-0.004118635179639407
6838.807656977348,-0.004633966040343602
6838.808656749563,-0.005150266392264661
6838.809656521778,-0.0056674341001110235
6838.810656293994,-0.006185366623945663
6838.811656066209,-0.006703961049016777
6838.812655838424,-0.0072231141154284135
6838.813655610639,-0.007742722247635483
6838.814655382855,-0.00826268158374821
6838.81565515507,-0.008782888004631619
6838.8166549272855,-0.009303237162786283
6838.8176546995,-0.009823624510997225
6838.818654471716,-0.010343945330738524
6838.819654243931,-0.010864094760322051
6838.820654016146,-0.011383967822779468
6838.821653788362,-0.011903459453467519
6838.822653560577,-0.01242246452738748
6838.823653332792,-0.012940877886210494
6838.824653105007,-0.013458594365001363
6838.825652877223,-0.013975508818634196
6838.826652649438,-0.014491516147894068
6838.8276524216535,-0.015006511325259549
6838.828652193868,-0.015520389420361618
6838.829651966084,-0.016033045625115035
6838.830651738299,-0.016544375278518764
6838.831651510514,-0.017054273891122584
6838.83265128273,-0.01756263716915737
6838.833651054945,-0.01806936103832697
6838.83465082716,-0.018574341667259887
6838.835650599375,-0.019077475490619344
6838.836650371591,-0.019578659231870302
6838.837650143806,-0.02007778992570245
6838.8386499160215,-0.02057476494010813
6838.839649688236,-0.021069481998114575
6838.840649460452,-0.021561839199170034
6838.841649232667,-0.022051735040183734
6838.842649004882,-0.02253906843622001
6838.843648777098,-0.02302373874084739
6838.844648549313,-0.023505645766143803
6838.845648321528,-0.02398468980235946
6838.846648093743,-0.024460771637239268
6838.847647865959,-0.024933792575006976
6838.848647638174,-0.025403654455013674
6838.8496474103895,-0.02587025967005325
6838.850647182604,-0.026333511184347843
6838.851646954819,-0.026793312551206556
6838.852646727035,-0.027249567930360787
6838.85364649925,-0.0277021821049798
6838.854646271466,-0.028151060498370142
6838.855646043681,-0.028596109190362574
6838.856645815896,-0.02903723493339033
6838.857645588111,-0.029474345168262417
6838.858645360327,-0.029907348039635896
6838.859645132542,-0.030336152411190993
6838.8606449047575,-0.030760667880513407
6838.861644676972,-0.0311808047936881
6838.862644449187,-0.0315964742596093
6838.863644221403,-0.03200758816401165
6838.864643993618,-0.032414059183227706
6838.865643765834,-0.0328158007976772
6838.866643538048,-0.03321272730509374
6838.867643310264,-0.033604753833494753
6838.868643082479,-0.0339917963539006
6838.869642854695,-0.034373771692808856
6838.87064262691,-0.03475059754442985
6838.871642399125,-0.035122192482689676
6838.87264217134,-0.035488475973006875
6838.873641943555,-0.035849368383848855
6838.874641715771,-0.03620479099807447
6838.875641487986,-0.036554666024068795
6838.876641260202,-0.03689891660667622
6838.877641032416,-0.03723746683793799
6838.878640804632,-0.03757024176764008
6838.879640576847,-0.03789716741367743
6838.880640349063,-0.03821817077224029
6838.881640121278,-0.03853317982782857
6838.8826398934925,-0.0388421235631
6838.883639665708,-0.039144931968557777
6838.884639437923,-0.039441536052083545
6838.885639210139,-0.0397318678483215
6838.886638982354,-0.04001586042791919
6838.88763875457,-0.04029344790663086
6838.888638526784,-0.04056456545428857
6838.889638299,-0.04082914930364649
6838.890638071215,-0.041087136759103235
6838.891637843431,-0.04133846620530705
6838.892637615646,-0.04158307711564836
6838.8936373878605,-0.04182091006064389
6838.894637160076,-0.04205190671621668
6838.895636932291,-0.042276009871875846
6838.896636704507,-0.04249316343879976
6838.897636476722,-0.042703312457826326
6838.898636248938,-0.042906403107353525
6838.899636021152,-0.04310238271115361
6838.900635793368,-0.04329119974610397
6838.901635565583,-0.043472803849837746
6838.902635337799,-0.04364714582831739
6838.903635110014,-0.04381417766333443
6838.9046348822285,-0.04397385251993868
6838.905634654444,-0.04412612475380025
6838.906634426659,-0.04427094991850782
6838.907634198875,-0.04440828477280673
6838.90863397109,-0.04453808728778013
6838.909633743306,-0.04466031665397692
6838.91063351552,-0.04477493328848973
6838.911633287736,-0.044881898841986484
6838.912633059951,-0.04498117620569905
6838.913632832167,-0.0450727295183723
6838.914632604382,-0.04515652417317686
6838.9156323765965,-0.0452325268245887
6838.916632148812,-0.045300705395238616
6838.917631921027,-0.04536102908273399
6838.918631693243,-0.04541346836645515
6838.919631465458,-0.04545799501432833
6838.920631237674,-0.045494582089576734
6838.921631009888,-0.04552320395745123
6838.922630782104,-0.045543836291941836
6838.923630554319,-0.04555645608247118
6838.924630326535,-0.045561041640570996
6838.92563009875,-0.045557572606542716
6838.9266298709645,-0.04554602995610276
6838.92762964318,-0.045526396007013345
6838.928629415395,-0.045498654425699094
6838.929629187611,-0.04546279023384974
6838.930628959826,-0.045418789815008874
6838.931628732041,-0.04536664092114814
6838.932628504256,-0.04530633267922639
6838.933628276472,-0.04523785559773288
6838.934628048687,-0.045161201573212996
6838.935627820903,-0.045076363896775246
6838.936627593118,-0.04498333726057736
6838.937627365332,-0.044882117764289325
6838.938627137548,-0.04477270292153057
6838.939626909763,-0.04465509166627815
6838.940626681979,-0.04452928435924256
6838.941626454194,-0.04439528279420726
6838.942626226409,-0.044253090204327876
6838.943625998624,-0.04410271126838665
6838.94462577084,-0.043944152116997606
6838.945625543055,-0.043777420338757804
6838.946625315271,-0.04360252498633962
6838.947625087485,-0.04341947658251917
6838.9486248597,-0.043228287126135606
6838.949624631916,-0.04302897009797559
6838.950624404131,-0.042821540466577615
6838.951624176347,-0.042606014693950124
6838.952623948562,-0.042382410741197654
6838.953623720777,-0.04215074807404888
6838.954623492992,-0.04191104766828032
6838.955623265208,-0.04166333201502925
6838.956623037423,-0.04140762512598915
6838.957622809638,-0.04114395253848057
6838.958622581853,-0.04087234132039015
6838.959622354068,-0.04059282007497025
6838.960622126284,-0.04030541894549143
6838.961621898499,-0.04001016961974006
6838.962621670715,-0.039707105334353045
6838.96362144293,-0.0393962608789817
6838.964621215145,-0.039077672600276905
6838.96562098736,-0.038751378405687265
6838.966620759576,-0.03841741776706212
6838.967620531791,-0.038075831724050956
6838.968620304006,-0.037726662887290735
6838.969620076221,-0.037369955441372296
6838.970619848436,-0.03700575514757709
6838.971619620652,-0.03663410934637526
6838.972619392867,-0.036255066959675904
6838.973619165083,-0.035868678492820376
6838.974618937298,-0.035474996036309374
6838.975618709513,-0.035074073267254396
6838.976618481728,-0.03466596545054401
6838.977618253944,-0.03425072943971524
6838.978618026159,-0.03382842367752014
6838.979617798374,-0.03339910819617767
6838.980617570589,-0.032962844617300584
6838.981617342804,-0.03251969615148736
6838.98261711502,-0.03206972759756888
6838.983616887235,-0.03161300534149985
6838.984616659451,-0.03114959735488476
6838.985616431666,-0.030679573193128504
6838.986616203881,-0.030203003993201482
6838.987615976096,-0.02971996247100951
6838.988615748312,-0.029230522918358523
6838.989615520527,-0.028734761199504338
6838.990615292742,-0.028232754747277752
6838.991615064957,-0.027724582558775267
6838.992614837172,-0.027210325190605938
6838.993614609388,-0.026690064753684937
6838.994614381603,-0.026163884907564394
6838.995614153819,-0.025631870854292374
6838.996613926033,-0.02509410933179085
6838.997613698249,-0.024550688606743667
6838.998613470464,-0.024001698466985823
6838.99961324268,-0.023447230213385375
6839.000613014895,-0.02288737665120976
6839.00161278711,-0.022322232080968514
6839.002612559325,-0.021751892288724733
6839.00361233154,-0.02117645453586818
6839.004612103756,-0.02059601754834314
6839.005611875971,-0.02001068150532456
6839.006611648187,-0.019420548027336344
6839.007611420401,-0.018825720163806136
6839.008611192617,-0.018226302380051067
6839.009610964832,-0.017622400543689333
6839.010610737048,-0.017014121910472718
6839.011610509263,-0.01640157510953555
6839.0126102814775,-0.015784870128055892
6839.013610053693,-0.015164118295325107
6839.014609825908,-0.014539432266222152
6839.015609598124,-0.013910926004089337
6839.016609370339,-0.013278714763006428
6839.017609142555,-0.01264291506946015
6839.018608914769,-0.01200364470340641
6839.019608686985,-0.011361022678722743
6839.0206084592,-0.010715169223048809
6839.021608231416,-0.010066205757013084
6839.022608003631,-0.009414254872844275
6839.023607775845,-0.008759440312366478
6839.024607548061,-0.008101886944377546
6839.025607320276,-0.007441720741410506
6839.026607092492,-0.006779068755878423
6839.027606864707,-0.006114059095603384
6839.028606636923,-0.005446820898730735
6839.029606409137,-0.00477748430803001
6839.030606181353,-0.004106180444584346
6839.031605953568,-0.003433041380870537
6839.032605725784,-0.0027582001132322445
6839.033605497999,-0.0020817905337493117
6839.034605270213,-0.0014039474015065479
6839.035605042429,-0.0007248063132658498
6839.036604814644,-4.4503673546015305e-05
6839.03760458686,0.0006368233358848708
6839.038604359075,0.0013190367870990457
6839.039604131291,0.0020019980376746707
6839.040603903505,0.0026855677629308208
6839.041603675721,0.0033696059887246273
6839.042603447936,0.004053972124802702
6839.043603220151,0.004738524998698324
6839.044602992367,0.005423122890165234
6839.045602764581,0.006107623566138317
6839.046602536797,0.00679188431621085
6839.047602309012,0.007475761988617522
6839.048602081228,0.008159113026711967
6839.049601853443,0.008841793505927108
6839.050601625659,0.009523659171206221
6839.051601397873,0.010204565474892171
6839.052601170089,0.010884367615061901
6839.053600942304,0.011562920574292868
6839.054600714519,0.012240079158847757
6839.055600486735,0.012915698038263554
6839.056600258949,0.013589631785330809
6839.057600031165,0.014261734916448846
6839.05859980338,0.014931861932342461
6839.059599575596,0.015599867359125552
6839.060599347811,0.016265605789696862
6839.061599120026,0.016928931925452757
6839.062598892241,0.017589700618301417
6839.063598664457,0.01824776691296239
6839.064598436672,0.018902986089534713
6839.065598208887,0.019555213706316184
6839.066597981103,0.020204305642855584
6839.067597753317,0.020850118143219173
6839.068597525533,0.021492507859452115
6839.069597297748,0.02213133189521499
6839.070597069964,0.02276644784957529
6839.071596842179,0.023397713860933266
6839.072596614394,0.02402498865106123
6839.073596386609,0.024648131569235218
6839.0745961588245,0.025267002636437698
6839.07559593104,0.025881462589609917
6839.076595703255,0.026491372925932503
6839.07759547547,0.027096595947112913
6839.078595247685,0.027696994803658625
6839.079595019901,0.028292433539114804
6839.080594792116,0.02888277713424538
6839.081594564332,0.029467891551136494
6839.082594336547,0.03004764377720119
6839.083594108762,0.030621901869064418
6839.084593880977,0.031190534996307265
6839.0855936531925,0.03175341348504971
6839.086593425408,0.032310408861350955
6839.087593197623,0.03286139389440667
6839.088592969838,0.03340624263952254
6839.089592742053,0.033944830480843506
6839.090592514269,0.034477034173818165
6839.091592286484,0.03500273188737785
6839.0925920587,0.035521803245809995
6839.093591830915,0.036034129370305416
6839.09459160313,0.03653959292015941
6839.095591375345,0.03703807813360674
6839.0965911475605,0.037529470868270604
6839.097590919776,0.038013658641206365
6839.098590691991,0.03849053066852066
6839.099590464206,0.03895997790454703
6839.100590236421,0.039421893080559364
6839.101590008637,0.03987617074300474
6839.102589780852,0.04032270729123728
6839.103589553068,0.04076140101473518
6839.104589325283,0.041192152129782944
6839.105589097498,0.041614862815601325
6839.106588869713,0.0420294372499077
6839.1075886419285,0.04243578164388985
6839.108588414144,0.04283380427657643
6839.109588186359,0.0432234155285879
6839.110587958574,0.04360452791525175
6839.111587730789,0.043977056119066806
6839.112587503005,0.044340917021501114
6839.11358727522,0.04469602973410907
6839.114587047436,0.04504231562895338
6839.115586819651,0.045379698368318205
6839.116586591866,0.04570810393370053
6839.117586364081,0.046027460654067154
6839.1185861362965,0.04633769923336526
6839.119585908512,0.04663875277727481
6839.120585680727,0.04693055681919174
6839.121585452942,0.0472130493454311
6839.122585225157,0.047486170819639614
6839.123584997373,0.04774986420640757
6839.124584769588,0.04800407499407003
6839.125584541804,0.048248751216688035
6839.126584314018,0.048483843475200454
6839.127584086234,0.04870930495773748
6839.128583858449,0.04892509145908722
6839.1295836306645,0.049131161399307
6839.13058340288,0.04932747584147141
6839.131583175095,0.04951399850854943
6839.13258294731,0.04969069579940332
6839.133582719525,0.049857536803902376
6839.134582491741,0.05001449331714501
6839.135582263956,0.05016153985278297
6839.136582036172,0.050298653655441755
6839.137581808386,0.05042581471223202
6839.138581580602,0.050543005763346756
6839.139581352817,0.05065021231173959
6839.140581125032,0.05074742263187982
6839.141580897248,0.050834627777579806
6839.142580669462,0.050911821588890675
6839.143580441678,0.05097900069806241
6839.144580213893,0.05103616453456437
6839.145579986109,0.05108331532916246
6839.146579758324,0.05112045811704935
6839.14757953054,0.05114760074002427
6839.148579302754,0.05116475384771926
6839.14957907497,0.051171930897869124
6839.150578847185,0.051169148155622894
6839.1515786194,0.0511564246918951
6839.152578391616,0.0511337823807556
6839.15357816383,0.051101245895857385
6839.154577936046,0.05105884270590239
6839.155577708261,0.05100660306914586
6839.156577480477,0.050944560026940484
6839.157577252692,0.05087274939632228
6839.158577024908,0.05079120976164073
6839.159576797122,0.05069998246523634
6839.1605765693375,0.0505991115971696
6839.161576341553,0.05048864398400539
6839.162576113768,0.05036862917665779
6839.163575885984,0.05023911943730041
6839.164575658198,0.05010016972534775
6839.165575430414,0.049951837682513246
6839.166575202629,0.049794183616950254
6839.167574974845,0.049627270486482127
6839.16857474706,0.049451163880928004
6839.169574519276,0.049265932003531146
6839.17057429149,0.0490716456514967
6839.1715740637055,0.04886837819564609
6839.172573835921,0.04865620555919555
6839.173573608136,0.048435206195666436
6839.174573380352,0.04820546106593515
6839.175573152566,0.04796705361443134
6839.176572924782,0.047720069744492645
6839.177572696997,0.04746459779288531
6839.178572469213,0.04720072850349974
6839.179572241428,0.0469285550002307
6839.180572013644,0.04664817275905197
6839.181571785858,0.0463596795792953
6839.1825715580735,0.04606317555414387
6839.183571330289,0.04575876304035028
6839.184571102504,0.04544654662718918
6839.18557087472,0.04512663310465466
6839.186570646934,0.04479913143091273
6839.18757041915,0.04446415269901901
6839.188570191365,0.04412181010291215
6839.189569963581,0.04377221890269361
6839.190569735796,0.04341549638920456
6839.191569508011,0.04305176184791097
6839.192569280226,0.04268113652210839
6839.1935690524415,0.04230374357545791
6839.194568824657,0.04191970805386529
6839.195568596872,0.04152915684671561
6839.196568369088,0.04113221864747602
6839.197568141302,0.04072902391367955
6839.198567913518,0.040319704826303315
6839.199567685733,0.0399043952485547
6839.200567457949,0.03948323068407955
6839.201567230164,0.03905634823460655
6839.202567002379,0.038623886557042277
6839.203566774594,0.03818598582003169
6839.2045665468095,0.03774278765999885
6839.205566319025,0.037294435136682805
6839.20656609124,0.03684107268818375
6839.207565863455,0.0363828460855344
6839.20856563567,0.035919902386811794
6839.209565407886,0.03545238989080441
6839.210565180101,0.03498045809024993
6839.211564952317,0.03450425762465869
6839.212564724532,0.03402394023273821
6839.213564496747,0.033539658704434386
6839.214564268962,0.03305156683260487
6839.2155640411775,0.03255981936434098
6839.216563813393,0.03206457195195429
6839.217563585608,0.031565981103644995
6839.218563357823,0.031064204133869056
6839.219563130038,0.030559399113421967
6839.220562902254,0.030051724819256824
6839.221562674469,0.02954134068405491
6839.222562446685,0.029028406745566903
6839.2235622189,0.028513083595742738
6839.224561991115,0.027995532329668123
6839.22556176333,0.02747591449432551
6839.226561535545,0.026954392037197142
6839.227561307761,0.02643112725472751
6839.228561079976,0.025906282740662503
6839.229560852191,0.025380021334282243
6839.230560624406,0.02485250606854437
6839.231560396622,0.024323900118154395
6839.232560168837,0.02379436674757941
6839.233559941053,0.0232640692590214
6839.234559713268,0.022733170940366063
6839.235559485483,0.022201835013123047
6839.236559257698,0.02167022458037348
6839.237559029913,0.021138502574740547
6839.238558802129,0.02060683170639887
6839.239558574344,0.020075374411138505
6839.240558346559,0.019544292798499112
6839.241558118774,0.019013748599989725
6839.24255789099,0.01848390311740943
6839.243557663205,0.017954917171283766
6839.244557435421,0.01742695104943143
6839.245557207636,0.016900164455675562
6839.2465569798505,0.016374716458713436
6839.247556752066,0.01585076544115827
6839.248556524281,0.015328469048766525
6839.249556296497,0.014807984139864038
6839.250556068712,0.014289466734984128
6839.251555840927,0.013773071966731021
6839.252555613142,0.01325895402988186
6839.253555385358,0.012747266131740823
6839.254555157573,0.012238160442759138
6839.255554929789,0.011731788047435177
6839.256554702003,0.0112282988955092
6839.2575544742185,0.010727841753467861
6839.258554246434,0.01023056415637422
6839.259554018649,0.00973661236003939
6839.260553790865,0.009246131293552506
6839.26155356308,0.008759264512186072
6839.262553335295,0.008276154150694
6839.26355310751,0.007796940877019935
6839.264552879726,0.0073217638464335814
6839.265552651941,0.006850760656112892
6839.2665524241565,0.006384067300190055
6839.267552196371,0.005921818125279265
6839.2685519685865,0.005464145786504272
6839.269551740802,0.00501118120404368
6839.270551513017,0.004563053520211802
6839.271551285233,0.004119890057092682
6839.272551057447,0.0036818162747446264
6839.273550829663,0.0032489557299922632
6839.274550601878,0.002821430035822934
6839.275550374094,0.002399358821403945
6839.276550146309,0.0019828596927370756
6839.2775499185245,0.0015720481939665476
6839.278549690739,0.0011670377693565345
6839.2795494629545,0.0007679397259540746
6839.28054923517,0.0003748631969529982
6839.281549007385,-1.2084894225845139e-05
6839.282548779601,-0.00039279986912320585
6839.283548551815,-0.0007671793286845355
6839.284548324031,-0.0011351231869437615
6839.285548096246,-0.0014965337039345064
6839.286547868462,-0.0018513155178161045
6839.287547640677,-0.0021993756762023367
6839.2885474128925,-0.0025406236666813634
6839.289547185107,-0.002874971446515884
6839.2905469573225,-0.0032023334715131015
6839.291546729538,-0.0035226267240545906
6839.292546501753,-0.0038357707402766816
6839.293546273969,-0.004141687636392444
6839.294546046183,-0.004440302134146819
6839.295545818399,-0.004731541585396875
6839.296545590614,-0.0050153359958095825
6839.29754536283,-0.005291618047669921
6839.298545135045,-0.005560323121792499
6839.2995449072605,-0.005821389318530298
6839.300544679475,-0.006074757477874511
6839.3015444516905,-0.006320371198639855
6839.302544223906,-0.006558176856730199
6839.303543996121,-0.006788123622479756
6839.304543768337,-0.007010163477065614
6839.305543540551,-0.007224251227987803
6839.306543312767,-0.007430344523613612
6839.307543084982,-0.0076284038667832595
6839.308542857198,-0.007818392627474382
6839.309542629413,-0.008000277054523108
6839.3105424016285,-0.008174026286399736
6839.311542173843,-0.0083396123610372
6839.312541946058,-0.00849701022471071
6839.313541718274,-0.008646197739967068
6839.314541490489,-0.008787155692602256
6839.315541262705,-0.00891986779768593
6839.316541034919,-0.009044320704631544
6839.317540807135,-0.009160504001310889
6839.31854057935,-0.009268410217211922
6839.319540351566,-0.009368034825638982
6839.320540123781,-0.009459376244954753
6839.321539895996,-0.009542435838863607
6839.322539668211,-0.009617217915736373
6839.323539440426,-0.009683729726976967
6839.324539212642,-0.009741981464431766
6839.325538984857,-0.009791986256842983
6839.326538757073,-0.009833760165347757
6839.327538529287,-0.009867322178024888
6839.328538301503,-0.009892694203491538
6839.329538073718,-0.00990990106355236
6839.330537845934,-0.009918970484903714
6839.331537618149,-0.009919933089895795
6839.332537390364,-0.009912822386355597
6839.333537162579,-0.009897674756473731
6839.334536934794,-0.009874529444758218
6839.33553670701,-0.009843428545058347
6839.336536479225,-0.009804416986661726
6839.33753625144,-0.009757542519467664
6839.338536023655,-0.00970285569824003
6839.339535795871,-0.009640409865942761
6839.340535568086,-0.009570261136161329
6839.341535340302,-0.009492468374613592
6839.342535112517,-0.009407093179753695
6839.343534884732,-0.009314199862472866
6839.344534656947,-0.009213855424901211
6839.345534429162,-0.009106129538314722
6839.346534201378,-0.008991094520151914
6839.347533973593,-0.008868825310144709
6839.348533745808,-0.008739399445568336
6839.349533518023,-0.008602897035615266
6839.350533290239,-0.008459400734898469
6839.351533062454,-0.00830899571608949
6839.35253283467,-0.008151769641697114
6839.353532606885,-0.00798781263499265
6839.3545323791,-0.00781721725008795
6839.355532151315,-0.0076400784411724725
6839.35653192353,-0.007456493530915767
6839.357531695746,-0.007266562178041735
6839.358531467961,-0.007070386344081137
6839.359531240176,-0.006868070259308869
6839.360531012391,-0.006659720387872668
6839.361530784607,-0.006445445392120151
6839.362530556822,-0.006225356096131308
6839.3635303290375,-0.005999565448463984
6839.364530101253,-0.005768188484120176
6839.365529873468,-0.005531342285741411
6839.366529645683,-0.0052891459440418225
6839.367529417898,-0.005041720517487898
6839.368529190114,-0.004789188991234209
6839.369528962329,-0.004531676235324688
6839.370528734544,-0.004269308962169338
6839.371528506759,-0.004002215683306467
6839.372528278975,-0.0037305266654607937
6839.37352805119,-0.0034543738859080133
6839.3745278234055,-0.0031738909871565583
6839.375527595621,-0.002889213230957519
6839.376527367836,-0.0026004774516538726
6839.377527140051,-0.002307822008880403
6839.378526912266,-0.002011386739625993
6839.379526684482,-0.0017113129096703354
6839.380526456697,-0.0014077431644075678
6839.381526228912,-0.0011008214790698505
6839.382526001127,-0.0007906931083645184
6839.383525773343,-0.00047750453553908277
6839.384525545558,-0.00016140342088903612
6839.3855253177735,0.00015746145027589149
6839.386525089988,0.0004789402201906506
6839.387524862204,0.0008028820117018418
6839.388524634419,0.0011291349818248425
6839.389524406634,0.0014575463757724204
6839.39052417885,0.0017879625814353935
6839.391523951065,0.002120229184295142
6839.39252372328,0.0024541910227470548
6839.393523495495,0.0027896922438132867
6839.394523267711,0.0031265763592225886
6839.395523039926,0.003464686301834383
6839.3965228121415,0.003803864482383756
6839.397522584356,0.004143952846523576
6839.398522356571,0.004484792932139517
6839.399522128787,0.004826225926913357
6839.400521901002,0.005168092726109516
6839.401521673218,0.005510233990559356
6839.402521445432,0.005852490204817323
6839.403521217648,0.006194701735462549
6839.404520989863,0.006536708889519048
6839.405520762079,0.00687835197296722
6839.406520534294,0.007219471349318908
6839.4075203065095,0.007559907498227903
6839.408520078724,0.00789950107410741
6839.409519850939,0.008238092964725654
6839.410519623155,0.00857552434975055
6839.41151939537,0.008911636759214067
6839.412519167586,0.009246272131866753
6839.4135189398,0.009579272873392818
6839.414518712016,0.009910481914456036
6839.415518484231,0.01023974276854687
6839.416518256447,0.010566899589601183
6839.417518028662,0.010891797229361058
6839.418517800877,0.011214281294448257
6839.419517573092,0.011534198203120875
6839.420517345307,0.011851395241683618
6839.421517117523,0.012165720620522008
6839.422516889738,0.012477023529730687
6839.423516661954,0.012785154194305762
6839.424516434168,0.013089963928871101
6839.425516206384,0.013391305191908388
6839.426515978599,0.013689031639460832
6839.427515750815,0.013982998178280526
6839.42851552303,0.014273061018389674
6839.429515295245,0.014559077725026097
6839.43051506746,0.014840907269943764
6839.431514839675,0.015118410082039341
6839.432514611891,0.015391448097276094
6839.433514384106,0.015659884807876827
6839.434514156322,0.01592358531075797
6839.435513928536,0.01618241635517749
6839.436513700752,0.016436246389569916
6839.437513472967,0.01668494560754252
6839.438513245183,0.016928385993007417
6839.439513017398,0.01716644136442522
6839.440512789613,0.01739898741813654
6839.441512561828,0.01762590177075846
6839.442512334043,0.017847064000623775
6839.443512106259,0.01806235568824152
6839.444511878474,0.01827166045575802
6839.44551165069,0.018474864005398394
6839.446511422904,0.018671854156869346
6839.44751119512,0.018862520883704822
6839.448510967335,0.019046756348537135
6839.449510739551,0.01922445493727715
6839.450510511766,0.019395513292188072
6839.451510283981,0.01955983034383855
6839.452510056196,0.01971730734192193
6839.453509828411,0.01986784788492957
6839.454509600627,0.020011357948667395
6839.455509372842,0.0201477459136061
6839.456509145058,0.020276922591056776
6839.457508917272,0.020398801248165004
6839.458508689488,0.020513297631717803
6839.459508461703,0.020620329990759138
6839.460508233919,0.020719819098010746
6839.461508006134,0.020811688270096235
6839.4625077783485,0.02089586338656743
6839.463507550564,0.020972272907733003
6839.464507322779,0.0210408478912904
6839.465507094995,0.021101522007763208
6839.46650686721,0.021154231554747133
6839.467506639425,0.02119891546996888
6839.46850641164,0.021235515343163446
6839.469506183856,0.02126397542677653
6839.470505956071,0.021284242645499923
6839.471505728287,0.02129626660464904
6839.472505500502,0.021299999597393107
6839.4735052727165,0.02129539661084954
6839.474505044932,0.021282415331055394
6839.475504817147,0.02126101614682997
6839.476504589363,0.021231162152543788
6839.477504361578,0.02119281914981037
6839.478504133793,0.02114595564811835
6839.479503906008,0.021090542864422378
6839.480503678224,0.021026554721712287
6839.481503450439,0.020953967846580702
6839.482503222655,0.020872761565809934
6839.48350299487,0.02078291790199952
6839.484502767084,0.020684421568256228
6839.4855025393,0.02057725996196882
6839.486502311515,0.02046142315769034
6839.487502083731,0.02033690389915125
6839.488501855946,0.020203697590427325
6839.489501628161,0.020061802286286755
6839.490501400376,0.019911218681741505
6839.491501172592,0.01975195010082847
6839.492500944807,0.019584002484646517
6839.493500717023,0.019407384378675865
6839.494500489238,0.01922210691940674
6839.495500261452,0.01902818382030459
6839.496500033668,0.018825631357139522
6839.497499805883,0.018614468352707993
6839.498499578099,0.018394716160975013
6839.499499350314,0.018166398650665463
6839.500499122529,0.017929542188333033
6839.501498894744,0.01768417562093547
6839.50249866696,0.017430330257944625
6839.503498439175,0.01716803985301967
6839.504498211391,0.01689734058527156
6839.505497983606,0.01661827104014658
6839.50649775582,0.01633087218995637
6839.507497528036,0.016035187374081668
6839.508497300251,0.01573126227887648
6839.509497072467,0.015419144917299126
6839.510496844682,0.015098885608296291
6839.511496616897,0.014770536955965877
6839.512496389112,0.014434153828524093
6839.513496161328,0.014089793337102035
6839.514495933543,0.013737514814396633
6839.515495705758,0.013377379793200717
6839.516495477974,0.013009451984836645
6839.517495250188,0.012633797257517688
6839.518495022404,0.012250483614661068
6839.519494794619,0.011859581173176127
6839.520494566835,0.011461162141750565
6839.52149433905,0.011055300799157125
6839.522494111265,0.010642073472602348
6839.52349388348,0.010221558516138199
6839.524493655696,0.00979383628915655
6839.525493427911,0.009358989134985465
6839.526493200126,0.00891710135960523
6839.527492972341,0.008468259210500899
6839.528492744556,0.008012550855666892
6839.529492516772,0.007550066362777706
6839.530492288987,0.007080897678537269
6839.531492061203,0.006605138608217692
6839.532491833417,0.006122884795396293
6839.533491605633,0.005634233701897669
6839.534491377848,0.00513928458794535
6839.535491150064,0.004638138492525156
6839.536490922279,0.004130898213959759
6839.537490694494,0.003617668290691178
6839.538490466709,0.0030985549822648653
6839.539490238924,0.002573666250505875
6839.54049001114,0.0020431117408742138
6839.541489783355,0.0015070027639829673
6839.542489555571,0.0009654522772591352
6839.543489327785,0.00041857486672341646
6839.544489100001,-0.00013351327113856845
6839.545488872216,-0.0006906943474448316
6839.546488644432,-0.0012528489989601815
6839.547488416647,-0.001819856306152294
6839.548488188862,-0.002391593811302255
6839.549487961077,-0.0029679375367141505
6839.550487733292,-0.003548762003070985
6839.551487505508,-0.004133940247986595
6839.552487277723,-0.004723343844805226
6839.553487049939,-0.005316842921702069
6839.554486822153,-0.005914306181139204
6839.555486594369,-0.006515600919732155
6839.556486366584,-0.007120593048582449
6839.5574861388,-0.007729147114131292
6839.558485911015,-0.008341126319588636
6839.55948568323,-0.008956392546990587
6839.560485455445,-0.009574806379936308
6839.56148522766,-0.010196227127053481
6839.562484999876,-0.010820512846239055
6839.563484772091,-0.011447520369719468
6839.564484544307,-0.012077105329971907
6839.565484316521,-0.012709122186545362
6839.566484088737,-0.013343424253817125
6839.567483860952,-0.013979863729717169
6839.568483633168,-0.014618291725449385
6839.569483405383,-0.015258558296234915
6839.570483177598,-0.015900512473099107
6839.571482949813,-0.016544002295719784
6839.572482722028,-0.017188874846350555
6839.573482494244,-0.017834976284829093
6839.574482266459,-0.018482151884676546
6839.575482038675,-0.019130246070290555
6839.576481810889,-0.019779102455230742
6839.577481583105,-0.020428563881592074
6839.57848135532,-0.02107847246045808
6839.579481127536,-0.021728669613422548
6839.580480899751,-0.022378996115165084
6839.581480671966,-0.02302929213706251
6839.582480444181,-0.023679397291814914
6839.583480216396,-0.02432915067906207
6839.584479988612,-0.024978390931962868
6839.585479760827,-0.025626956264707828
6839.586479533043,-0.026274684520932408
6839.587479305257,-0.026921413222996453
6839.588479077473,-0.027566979622093514
6839.589478849688,-0.028211220749152093
6839.590478621904,-0.028853973466489664
6839.591478394119,-0.02949507452017935
6839.592478166333,-0.030134360593088366
6839.593477938549,-0.0307716683585467
6839.594477710764,-0.03140683453460411
6839.59547748298,-0.03203969593883297
6839.596477255195,-0.03267008954363431
6839.59747702741,-0.03329785253200412
6839.598476799625,-0.033922822353716645
6839.599476571841,-0.0345448367818818
6839.600476344056,-0.03516373396983352
6839.601476116271,-0.03577935250830648
6839.602475888487,-0.03639153148285882
6839.603475660701,-0.037000110531499354
6839.604475432917,-0.03760492990247815
6839.605475205132,-0.0382058305122002
6839.606474977348,-0.038802654003222706
6839.607474749563,-0.039395242802296886
6839.608474521778,-0.039983440178416256
6839.609474293993,-0.040567090300833775
6839.610474066209,-0.04114603829701078
6839.611473838424,-0.04172013031046137
6839.612473610639,-0.042289213558456204
6839.613473382855,-0.04285313638955018
6839.614473155069,-0.0434117483408991
6839.615472927285,-0.0439649001953307
6839.6164726995,-0.04451244403813593
6839.617472471716,-0.04505423331354693
6839.618472243931,-0.04559012288086834
6839.619472016146,-0.04611996907022946
6839.620471788361,-0.046643629737925234
6839.6214715605765,-0.04716096432131464
6839.622471332792,-0.047671833893245946
6839.623471105007,-0.048176101215979
6839.624470877223,-0.048673630794575394
6839.625470649437,-0.04916428892972825
6839.626470421653,-0.049647943770003915
6839.627470193868,-0.05012446536346868
6839.628469966084,-0.050593725708674514
6839.629469738299,-0.05105559880497797
6839.630469510514,-0.05150996070216733
6839.631469282729,-0.051956689549373936
6839.6324690549445,-0.052395665643243515
6839.63346882716,-0.052826771475344494
6839.634468599375,-0.05324989177879044
6839.635468371591,-0.05366491357405435
6839.636468143805,-0.05407172621395308
6839.637467916021,-0.0544702214277804
6839.638467688236,-0.05486029336456795
6839.639467460452,-0.05524183863545344
6839.640467232667,-0.05561475635513641
6839.641467004882,-0.055978948182402115
6839.642466777097,-0.05633431835969506
6839.6434665493125,-0.056680773751724055
6839.644466321528,-0.05701822388308166
6839.645466093743,-0.05734658097486135
6839.646465865959,-0.05766575998025629
6839.647465638173,-0.057975678619124636
6839.648465410389,-0.05827625741150666
6839.649465182604,-0.05856741971007983
6839.65046495482,-0.058849091731538385
6839.651464727035,-0.05912120258688469
6839.65246449925,-0.05938368431062014
6839.653464271465,-0.05963647188882388
6839.6544640436805,-0.05987950328610802
6839.655463815896,-0.06011271947143857
6839.656463588111,-0.060336064442811456
6839.657463360326,-0.060549485250773465
6839.658463132541,-0.06075293202077814
6839.659462904757,-0.06094635797436702
6839.660462676972,-0.06112971944916706
6839.661462449188,-0.06130297591769559
6839.662462221402,-0.06146609000496455
6839.663461993618,-0.06161902750487621
6839.664461765833,-0.061761757395403453
6839.6654615380485,-0.061894251852547696
6839.666461310264,-0.062016486263068465
6839.667461082479,-0.062128439235978834
6839.668460854694,-0.06223009261280133
6839.669460626909,-0.062321431476579404
6839.670460399125,-0.06240244415963993
6839.67146017134,-0.06247312225010272
6839.672459943556,-0.06253346059713302
6839.67345971577,-0.06258345731493369
6839.674459487986,-0.06262311378547389
6839.675459260201,-0.06265243465995139
6839.6764590324165,-0.06267142785898593
6839.677458804632,-0.06268010457154106
6839.678458576847,-0.06267847925257247
6839.679458349062,-0.06266656961940067
6839.680458121277,-0.06264439664680664
6839.681457893493,-0.0626119845608489
6839.682457665708,-0.0625693608314013
6839.683457437924,-0.06251655616341091
6839.684457210138,-0.06245360448687603
6839.685456982354,-0.062380542945544536
6839.686456754569,-0.06229741188433381
6839.687456526784,-0.06220425483547327
6839.688456299,-0.0621011185033716
6839.689456071215,-0.06198805274821126
6839.69045584343,-0.061865110568272916
6839.691455615645,-0.06173234808099354
6839.692455387861,-0.0615898245027618
6839.693455160076,-0.06143760212745523
6839.694454932292,-0.06127574630372393
6839.695454704506,-0.06110432541102628
6839.696454476722,-0.060923410834422494
6839.697454248937,-0.06073307693813222
6839.698454021152,-0.060533401037863394
6839.699453793368,-0.06032446337191952
6839.700453565583,-0.060106347071093774
6839.701453337798,-0.05987913812735859
6839.702453110013,-0.05964292536136014
6839.703452882229,-0.05939780038872791
6839.704452654444,-0.05914385758521009
6839.70545242666,-0.058881194050646464
6839.706452198874,-0.05860990957179092
6839.7074519710895,-0.05833010658399671
6839.708451743305,-0.05804189013177804
6839.70945151552,-0.05774536782826243
6839.710451287736,-0.05744064981354882
6839.711451059951,-0.05712784871198712
6839.712450832166,-0.056807079588395336
6839.713450604381,-0.05647845990323127
6839.714450376597,-0.05614210946673592
6839.715450148812,-0.05579815039206633
6839.716449921028,-0.05544670704743596
6839.717449693242,-0.05508790600728126
6839.7184494654575,-0.054721876002473274
6839.719449237673,-0.05434874786959379
6839.720449009888,-0.053968654499295866
6839.721448782104,-0.05358173078376951
6839.722448554318,-0.05318811356333339
6839.723448326534,-0.05278794157217425
6839.724448098749,-0.0523813553832564
6839.725447870965,-0.05196849735242391
6839.72644764318,-0.05154951156171896
6839.727447415395,-0.05112454376194029
6839.72844718761,-0.05069374131446584
6839.7294469598255,-0.050257253132364545
6839.730446732041,-0.04981522962082221
6839.731446504256,-0.04936782261690706
6839.732446276472,-0.048915185328700525
6839.733446048686,-0.04845747227381948
