Time,Filtered_ECG
6668.895703350336,0.0012626878338919654
6668.896703122259,0.0012455068484991784
6668.897702894182,0.0012283350787751003
6668.898702666104,0.0012111749723730549
6668.899702438027,0.0011940289698513177
6668.9007022099495,0.00117689950373186
6668.901701981873,0.001159788997563439
6668.902701753796,0.0011426998649898882
6668.903701525718,0.0011256345088244116
6668.904701297641,0.0011085953201305956
6668.905701069563,0.0010915846773107524
6668.906700841487,0.0010746049452020922
6668.907700613409,0.001057658474181108
6668.908700385332,0.0010407475992764612
6668.909700157255,0.0010238746392905811
6668.910699929177,0.0010070418959301278
6668.911699701101,0.0009902516529454175
6668.912699473023,0.0009735061752788583
6668.913699244946,0.0009568077082223905
6668.914699016868,0.0009401584765838899
6668.915698788791,0.0009235606838624604
6668.9166985607135,0.0009070165114325267
6668.917698332637,0.000890528117736652
6668.91869810456,0.0008740976374870278
6668.919697876482,0.0008577271808756355
6668.920697648405,0.0008414188327931401
6668.921697420327,0.0008251746520566678
6668.922697192251,0.0008089966706467213
6668.923696964173,0.0007928868929536045
6668.924696736096,0.0007768472950338408
6668.9256965080185,0.0007608798238771664
6668.926696279941,0.00074498639668474
6668.927696051864,0.0007291689001592346
6668.928695823787,0.0007134291898074634
6668.92969559571,0.0006977690892561506
6668.930695367632,0.0006821903895814057
6668.931695139555,0.0006666948486524044
6668.9326949114775,0.0006512841904897473
6668.933694683401,0.000635960104638932
6668.934694455324,0.0006207242455593729
6668.935694227246,0.0006055782320293906
6668.936693999169,0.0005905236465676083
6668.937693771091,0.0005755620348711939
6668.938693543015,0.0005606949052714026
6668.939693314937,0.0005459237282069013
6668.94069308686,0.0005312499357153893
6668.941692858783,0.0005166749209440697
6668.942692630705,0.0005022000376795531
6668.943692402629,0.00048782659989779514
6668.944692174551,0.00047355588133467176
6668.945691946474,0.00045938911507780686
6668.946691718396,0.00044532749318027085
6668.947691490319,0.0004313721662967667
6668.9486912622415,0.00041752424334289223
6668.949691034165,0.0004037847911780167
6668.950690806088,0.0003901548343122415
6668.95169057801,0.000376635354637837
6668.952690349933,0.0003632272911854629
6668.953690121855,0.0003499315399053985
6668.954689893779,0.0003367489534739315
6668.955689665701,0.0003236803411249824
6668.956689437624,0.0003107264685069793
6668.9576892095465,0.0002978880575649353
6668.958688981469,0.0002851657864476272
6668.959688753392,0.00027256028943973095
6668.960688525315,0.000260072156918742
6668.961688297238,0.0002477019353364964
6668.96268806916,0.00023545012722510258
6668.963687841083,0.00022331719122709723
6668.964687613006,0.00021130354214963698
6668.965687384929,0.0001994095510425324
6668.966687156852,0.00018763554529991976
6668.967686928774,0.00017598180878535086
6668.968686700697,0.0001644485819800682
6668.969686472619,0.00015303606215422562
6668.970686244543,0.00014174440356081475
6668.971686016465,0.00013057371765206534
6668.972685788388,0.00011952407331809278
6668.973685560311,0.00010859549714756961
6668.974685332233,9.778797371019081e-05
6668.975685104157,8.710144586069073e-05
6668.976684876079,7.653581506415049e-05
6668.977684648002,6.609094174231236e-05
6668.978684419924,5.5766645640594e-05
6668.979684191847,4.556270621547727e-05
6668.9806839637695,3.5478863041936766e-05
6668.981683735693,2.5514816240576245e-05
6668.982683507616,1.5670226924157075e-05
6668.983683279538,5.944717663232042e-06
6668.984683051461,-3.6621270293648105e-06
6668.985682823383,-1.3150760195381526e-05
6668.986682595307,-2.252167190954135e-05
6668.987682367229,-3.177538873962513e-05
6668.988682139152,-4.0912473188403395e-05
6668.9896819110745,-4.993352311759099e-05
6668.990681682997,-5.8839171154011045e-05
6668.991681454921,-6.763008407816196e-05
6668.992681226843,-7.630696219537947e-05
6668.993680998766,-8.487053868978093e-05
6668.994680770688,-9.332157896117358e-05
6668.995680542611,-0.00010166087994510852
6668.996680314534,-0.00010988926941626911
6668.997680086457,-0.00011800760527540583
6668.99867985838,-0.00012601677482006947
6668.999679630302,-0.00013391769399945418
6669.000679402225,-0.00014171130665373033
6669.001679174147,-0.00014939858373831663
6669.002678946071,-0.0001569805225336035
6669.003678717993,-0.00016445814584069104
6669.004678489916,-0.00017183250116374746
6669.005678261839,-0.00017910465987962962
6669.006678033761,-0.0001862757163954362
6669.007677805685,-0.00019334678729468276
6669.008677577607,-0.00020031901047279227
6669.00967734953,-0.00020719354426258072
6669.010677121452,-0.0002139715665503876
6669.011676893375,-0.00022065427388345937
6669.0126766652975,-0.00022724288056914473
6669.013676437221,-0.0002337386177664072
6669.014676209144,-0.0002401427325701009
6669.015675981066,-0.0002464564870883914
6669.016675752989,-0.00025268115751363163
6669.017675524911,-0.00025881803318692116
6669.018675296835,-0.00026486841565648647
6669.019675068757,-0.000270833617729921
6669.02067484068,-0.00027671496252023496
6669.0216746126025,-0.0002825137824856042
6669.022674384525,-0.0002882314184626822
6669.023674156449,-0.0002938692186933532
6669.024673928371,-0.000299428537844851
6669.025673700294,-0.00030491073602322916
6669.026673472216,-0.00031031717778023964
6669.027673244139,-0.0003156492311137489
6669.028673016062,-0.000320908266461881
6669.029672787985,-0.00032609565569112486
6669.030672559908,-0.00033121277107867725
6669.03167233183,-0.00033626098428932394
6669.032672103753,-0.00034124166534719254
6669.033671875675,-0.00034615618160274215
6669.034671647599,-0.00035100589669537414
6669.035671419521,-0.00035579216951205685
6669.036671191444,-0.0003605163531423503
6669.037670963367,-0.0003651797938302165
6669.038670735289,-0.00036978382992301285
6669.039670507213,-0.00037432979081809624
6669.040670279135,-0.00037881899590751504
6669.041670051058,-0.0003832527535213248
6669.04266982298,-0.00038763235987012264
6669.043669594903,-0.0003919590979874454
6669.044669366826,-0.000396234236672721
6669.045669138749,-0.00040045902943550035
6669.046668910672,-0.0004046347134417291
6669.047668682594,-0.00040876250846283647
6669.048668454517,-0.0004128436158284265
6669.04966822644,-0.00041687921738335735
6669.050667998363,-0.0004208704744499885
6669.051667770285,-0.00042481852679637083
6669.052667542208,-0.0004287244916111477
6669.0536673141305,-0.00043258946248593197
6669.054667086053,-0.00043641450840591805
6669.055666857977,-0.00044020067274948787
6669.056666629899,-0.0004439489722975669
6669.057666401822,-0.00044766039625348424
6669.058666173744,-0.0004513359052740855
6669.059665945667,-0.0004549764305128385
6669.06066571759,-0.0004585828726756545
6669.061665489513,-0.00046215610109010284
6669.062665261436,-0.0004656969527886292
6669.063665033358,-0.00046920623160629253
6669.064664805281,-0.0004726847072934217
6669.065664577203,-0.0004761331146434833
6669.066664349127,-0.0004795521526363387
6669.067664121049,-0.00048294248359698064
6669.068663892972,-0.000486304732369772
6669.069663664895,-0.0004896394855081771
6669.070663436817,-0.0004929472904799789
6669.071663208741,-0.0004962286548879964
6669.072662980663,-0.0004994840457063502
6669.073662752586,-0.0005027138885323591
6669.074662524508,-0.0005059185668541846
6669.075662296431,-0.0005090984213343732
6669.076662068354,-0.0005122537491094656
6669.077661840277,-0.0005153848031058443
6669.0786616122,-0.0005184917913719759
6669.079661384122,-0.0005215748764271699
6669.080661156045,-0.0005246341746269404
6669.081660927968,-0.0005276697555450166
6669.082660699891,-0.0005306816413720307
6669.083660471813,-0.0005336698063309138
6669.084660243736,-0.0005366341761090594
6669.0856600156585,-0.0005395746273073642
6669.086659787581,-0.0005424909869063195
6669.087659559505,-0.0005453830317493963
6669.088659331427,-0.0005482504880440285
6669.08965910335,-0.0005510930308805685
6669.090658875272,-0.00055391028376964
6669.091658647195,-0.0005567018181983697
6669.092658419118,-0.000559467153206023
6669.093658191041,-0.0005622057549796038
6669.094657962964,-0.0005649170364700018
6669.095657734886,-0.0005676003570292709
6669.096657506809,-0.0005702550220696228
6669.097657278731,-0.0005728802827447113
6669.098657050655,-0.0005754753356537712
6669.099656822577,-0.0005780393225691535
6669.1006565945,-0.0005805713301877673
6669.101656366423,-0.0005830703899068874
6669.102656138345,-0.0005855354776247453
6669.103655910269,-0.0005879655135662742
6669.104655682191,-0.0005903593621343409
6669.105655454114,-0.0005927158317867689
6669.106655226036,-0.0005950336749394404
6669.107654997959,-0.0005973115878957597
6669.108654769882,-0.000599548210802764
6669.109654541805,-0.0006017421276341793
6669.110654313728,-0.000603891866200721
6669.11165408565,-0.000605995898187938
6669.112653857573,-0.0006080526392218848
6669.113653629496,-0.0006100604489628954
6669.114653401419,-0.0006120176312277132
6669.115653173341,-0.0006139224341402229
6669.116652945264,-0.0006157730503110222
6669.1176527171865,-0.0006175676170460692
6669.118652489109,-0.0006193042165846546
6669.119652261033,-0.0006209808763669622
6669.120652032955,-0.0006225955693315117
6669.121651804878,-0.0006241462142428066
6669.1226515768,-0.0006256306760495319
6669.123651348723,-0.0006270467662736626
6669.124651120646,-0.000628392243430847
6669.125650892569,-0.0006296648134824298
6669.126650664492,-0.0006308621303194708
6669.127650436414,-0.0006319817962790901
6669.128650208337,-0.000633021362693436
6669.12964998026,-0.0006339783304715156
6669.130649752183,-0.0006348501507140762
6669.131649524105,-0.0006356342253616762
6669.132649296028,-0.0006363279078760402
6669.133649067951,-0.000636928503954765
6669.134648839874,-0.0006374332722794297
6669.135648611797,-0.0006378394252971693
6669.136648383719,-0.0006381441300358008
6669.137648155642,-0.0006383445089526348
6669.138647927564,-0.0006384376408171644
6669.139647699487,-0.0006384205616278688
6669.14064747141,-0.000638290265563412
6669.141647243333,-0.0006380437059685434
6669.142647015256,-0.0006376777963750296
6669.143646787178,-0.0006371894115579535
6669.144646559101,-0.0006365753886277113
6669.145646331024,-0.0006358325281580146
6669.146646102947,-0.0006349575953501644
6669.147645874869,-0.000633947321233814
6669.148645646792,-0.0006327984039043855
6669.1496454187145,-0.0006315075097972294
6669.150645190637,-0.0006300712749985538
6669.151644962561,-0.000628486306593078
6669.152644734483,-0.0006267491840483146
6669.153644506406,-0.0006248564606353429
6669.154644278328,-0.0006228046648859121
6669.155644050251,-0.0006205903020856847
6669.156643822174,-0.0006182098558034058
6669.157643594097,-0.0006156597894557413
6669.15864336602,-0.0006129365479074806
6669.159643137942,-0.000610036559106745
6669.160642909865,-0.000606956235754781
6669.161642681788,-0.0006036919770098565
6669.162642453711,-0.000600240170224722
6669.163642225633,-0.0005965971927170552
6669.164641997556,-0.0005927594135722714
6669.165641769479,-0.0005887231954780605
6669.166641541402,-0.0005844848965899911
6669.167641313325,-0.000580040872427499
6669.168641085247,-0.0005753874777995509
6669.16964085717,-0.0005705210687592352
6669.170640629092,-0.0005654380045864957
6669.171640401015,-0.0005601346497981986
6669.172640172938,-0.0005546073761847129
6669.173639944861,-0.0005488525648721891
6669.174639716784,-0.0005428666084097347
6669.175639488706,-0.0005366459128806903
6669.176639260629,-0.0005301869000372336
6669.177639032552,-0.000523486009457556
6669.178638804475,-0.0005165397007248761
6669.179638576397,-0.0005093444556275777
6669.18063834832,-0.0005018967803797699
6669.1816381202425,-0.0004941932078615741
6669.182637892166,-0.0004862302998784305
6669.183637664089,-0.00047800464943869263
6669.184637436011,-0.00046951288304872984
6669.185637207934,-0.00046075166302468937
6669.186636979856,-0.0004517176898199817
6669.18763675178,-0.0004424077043674603
6669.188636523702,-0.00043281849043517214
6669.189636295625,-0.00042294687699447655
6669.190636067548,-0.0004127897405992681
6669.19163583947,-0.0004023440077750118
6669.192635611393,-0.00039160665741629574
6669.193635383316,-0.0003805747231916281
6669.194635155239,-0.00036924529595423034
6669.195634927161,-0.00035761552615759816
6669.196634699084,-0.0003456826262746087
6669.197634471007,-0.0003334438732189511
6669.19863424293,-0.0003208966107676515
6669.199634014853,-0.00030803825198346275
6669.200633786775,-0.00029486628163587176
6669.201633558698,-0.0002813782586194656
6669.20263333062,-0.0002675718183683747
6669.203633102543,-0.0002534446752654874
6669.204632874466,-0.00023899462504510863
6669.205632646389,-0.00022421954718771102
6669.206632418312,-0.0002091174073053984
6669.207632190234,-0.00019368625951667095
6669.208631962157,-0.00017792424880904017
6669.20963173408,-0.00016182961338800296
6669.210631506003,-0.0001454006870108465
6669.211631277925,-0.00012863590130372747
6669.212631049848,-0.00011153378806045376
6669.2136308217705,-9.409298152139645e-05
6669.214630593694,-7.631222063097311e-05
6669.215630365617,-5.819035127216598e-05
6669.216630137539,-3.972632847656756e-05
6669.217629909462,-2.091921860848283e-05
6669.218629681384,-1.7682015216632812e-06
6669.219629453308,1.7727427312695056e-05
6669.22062922523,3.756825470799006e-05
6669.221628997153,5.7754747695512705e-05
6669.222628769076,7.828725149014717e-05
6669.223628540998,9.916598748952284e-05
6669.224628312921,0.00012039105130757846
6669.225628084844,0.00014196241084341032
6669.226627856767,0.00016387990438619562
6669.227627628689,0.00018614323875690633
6669.228627400612,0.00020875198748746088
6669.229627172535,0.00023170558903789327
6669.230626944458,0.0002550033450520514
6669.231626716381,0.00027864441865226903
6669.232626488303,0.0003026278327733893
6669.233626260226,0.0003269524685364594
6669.234626032148,0.00035161706366236594
6669.235625804071,0.00037662021092563333
6669.236625575994,0.0004019603566485593
6669.237625347917,0.0004276357992358077
6669.23862511984,0.0004536446877495079
6669.239624891762,0.0004799850205248169
6669.240624663685,0.0005066546438257856
6669.241624435608,0.0005336512505412406
6669.242624207531,0.000560972378920263
6669.243623979453,0.0005886154113467306
6669.244623751376,0.0006165775731523038
6669.2456235232985,0.0006448559314671762
6669.246623295222,0.0006734473941078968
6669.247623067145,0.0007023487085015913
6669.248622839067,0.0007315564606459692
6669.24962261099,0.0007610670741045963
6669.250622382912,0.0007908768090370275
6669.251622154836,0.000820981761263536
6669.252621926758,0.0008513778613643115
6669.253621698681,0.0008820608738131421
6669.254621470604,0.0009130263961457121
6669.255621242526,0.0009442698581627537
6669.256621014449,0.0009757865211683504
6669.257620786372,0.0010075714772437344
6669.258620558295,0.001039619648556939
6669.259620330217,0.0010719257867086841
6669.26062010214,0.0011044844721148825
6669.261619874063,0.0011372901134261684
6669.262619645986,0.001170336946984894
6669.263619417909,0.0012036190363200847
6669.264619189831,0.0012371302716809142
6669.265618961754,0.0012708643696093618
6669.266618733676,0.0013048148725528213
6669.2676185056,0.0013389751485175607
6669.268618277522,0.0013733383907640522
6669.269618049445,0.0014078976175453117
6669.270617821368,0.0014426456718894811
6669.27161759329,0.0014775752214279596
6669.272617365214,0.0015126787582704416
6669.273617137136,0.001547948598928242
6669.274616909059,0.0015833768842872958
6669.275616680981,0.001618955579632211
6669.276616452904,0.0016546764747227504
6669.2776162248265,0.0016905311839241204
6669.27861599675,0.0017265111463924566
6669.279615768673,0.0017626076263169061
6669.280615540595,0.0017988117132197402
6669.281615312518,0.0018351143223159635
6669.28261508444,0.0018715061949339412
6669.283614856364,0.0019079778989986112
6669.284614628286,0.0019445198295789
6669.285614400209,0.001981122209500997
6669.286614172132,0.0020177750900291767
6669.287613944054,0.00205446835161588
6669.288613715977,0.002091191704722773
6669.2896134879,0.0021279346907144996
6669.290613259823,0.0021646866828268396
6669.291613031745,0.0022014368872109395
6669.292612803668,0.0022381743440552794
6669.293612575591,0.002274887928787004
6669.294612347514,0.0023115663533542267
6669.295612119437,0.0023481981675909256
6669.296611891359,0.002384771760666045
6669.297611663282,0.0024212753626184297
6669.298611435204,0.002457697045979234
6669.299611207128,0.0024940247274834555
6669.30061097905,0.0025302461698722706
6669.301610750973,0.002566348983787855
6669.302610522896,0.0026023206297624084
6669.303610294818,0.0026381484203031034
6669.304610066742,0.0026738195220746813
6669.305609838664,0.0027093209581814347
6669.306609610587,0.0027446396105502966
6669.307609382509,0.0027797622224167502
6669.308609154432,0.0028146754009152597
6669.3096089263545,0.0028493656197759003
6669.310608698278,0.002883819222128838
6669.311608470201,0.002918022423418271
6669.312608242123,0.0029519613144274167
6669.313608014046,0.0029856218644160578
6669.314607785968,0.0030189899243721094
6669.315607557892,0.003052051230378581
6669.316607329814,0.003084791407097222
6669.317607101737,0.0031171959713700657
6669.31860687366,0.0031492503359399977
6669.319606645582,0.0031809398132914084
6669.320606417505,0.0032122496196119238
6669.321606189428,0.003243164878876163
6669.322605961351,0.003273670627052438
6669.323605733273,0.0033037518164332697
6669.324605505196,0.0033333933200906003
6669.325605277119,0.0033625799364565773
6669.326605049042,0.0033912963940308004
6669.327604820965,0.003419527356214944
6669.328604592887,0.003447257426275668
6669.32960436481,0.0034744711524367098
6669.330604136732,0.0035011530331010335
6669.331603908656,0.0035272875222038353
6669.332603680578,0.0035528590346971373
6669.333603452501,0.003577851952166609
6669.334603224424,0.003602250628581158
6669.335602996346,0.003626039396175736
6669.33660276827,0.0036492025714677206
6669.337602540192,0.0036717244614071077
6669.338602312115,0.0036935893696606434
6669.339602084037,0.0037147816030298777
6669.34060185596,0.003735285478002998
6669.3416016278825,0.0037550853274401787
6669.342601399806,0.003774165507392092
6669.343601171729,0.0037925104040511743
6669.344600943651,0.0038101044408352146
6669.345600715574,0.0038269320856028077
6669.346600487496,0.003842977858000216
6669.34760025942,0.003858226336939177
6669.348600031342,0.0038726621682051553
6669.349599803265,0.003886270072195502
6669.350599575188,0.0038990348517868923
6669.35159934711,0.00391094140033131
6669.352599119034,0.003921974709779719
6669.353598890956,0.003932119878932422
6669.354598662879,0.0039413621218149855
6669.355598434801,0.003949686776178518
6669.356598206724,0.003957079312122936
6669.357597978647,0.003963525340841745
6669.35859775057,0.0039690106234867295
6669.359597522493,0.003973521080150716
6669.360597294415,0.003977042798966366
6669.361597066338,0.00397956204531862
6669.36259683826,0.003981065271168028
6669.363596610184,0.003981539124481792
6669.364596382106,0.003980970458768843
6669.365596154029,0.003979346342714776
6669.366595925952,0.0039766540699119534
6669.367595697874,0.003972881168679556
6669.368595469798,0.003968015411967817
6669.36959524172,0.003962044827340193
6669.370595013643,0.003954957707026689
6669.371594785565,0.003946742618041079
6669.372594557488,0.00393738841235429
6669.3735943294105,0.003926884237115692
6669.374594101334,0.003915219544913522
6669.375593873257,0.003902384104065124
6669.376593645179,0.003888368008927126
6669.377593417102,0.003873161690215048
6669.378593189024,0.003856755925321254
6669.379592960948,0.003839141848619484
6669.38059273287,0.003820310961743567
6669.381592504793,0.003800255143827278
6669.382592276716,0.0037789666616916523
6669.383592048638,0.003756438179965449
6669.384591820562,0.0037326627711238617
6669.385591592484,0.0037076339254299923
6669.386591364407,0.003681345560763071
6669.387591136329,0.003653792032316836
6669.388590908252,0.003624968142150984
6669.389590680175,0.003594869148578098
6669.390590452098,0.003563490775368024
6669.391590224021,0.003530829220751221
6669.392589995943,0.0034968811662023157
6669.393589767866,0.003461643784984784
6669.394589539788,0.003425114750437472
6669.395589311712,0.003387292243983491
6669.396589083634,0.003348174962841931
6669.397588855557,0.0033077621274227816
6669.39858862748,0.0032660534883854663
6669.399588399402,0.0032230493333415215
6669.400588171326,0.003178750493182239
6669.401587943248,0.003133158348012513
6669.402587715171,0.0030862748326727905
6669.403587487093,0.0030381024418318523
6669.404587259016,0.0029886442346341267
6669.405587030939,0.0029379038388863687
6669.406586802862,0.0028858854547697643
6669.407586574785,0.0028325938580648466
6669.408586346707,0.0027780344028779857
6669.40958611863,0.002722213023859655
6669.410585890553,0.0026651362379061074
6669.411585662476,0.002606811145337554
6669.412585434398,0.0025472454305473635
6669.413585206321,0.0024864473621182357
6669.414584978244,0.002424425792402743
6669.415584750166,0.0023611901565670536
6669.41658452209,0.0022967504710980757
6669.417584294012,0.0022311173317756216
6669.418584065935,0.002164301911112549
6669.419583837857,0.0020963159552671216
6669.42058360978,0.0020271717804330744
6669.421583381703,0.001956882268714057
6669.422583153626,0.0018854608634902568
6669.4235829255485,0.0018129215642860835
6669.424582697471,0.0017392789211488223
6669.425582469394,0.0016645480285491206
6669.426582241316,0.0015887445188150914
6669.42758201324,0.0015118845551126512
6669.428581785162,0.0014339848239854696
6669.429581557085,0.0013550625274685955
6669.430581329008,0.0012751353747904178
6669.43158110093,0.0011942215736781212
6669.432580872854,0.0011123398212822264
6669.433580644776,0.0010295092947361331
6669.434580416699,0.0009457496413668398
6669.435580188621,0.0008610809685732042
6669.436579960544,0.0007755238333882162
6669.437579732467,0.0006890992317418081
6669.43857950439,0.0006018285874407236
6669.4395792763125,0.0005137337408818913
6669.440579048235,0.00042483693751563766
6669.441578820158,0.0003351608160748961
6669.442578592081,0.0002447283965863569
6669.443578364004,0.00015356306817924728
6669.444578135926,6.168857670714693e-05
6669.445577907849,-3.0870987802073734e-05
6669.446577679772,-0.00012409120385344834
6669.447577451694,-0.00021794733133486565
6669.448577223618,-0.0003124143244957844
6669.44957699554,-0.00040746684504111146
6669.450576767463,-0.0005030792753270423
6669.451576539385,-0.0005992257316460621
6669.452576311308,-0.0006958800775886994
6669.453576083231,-0.0007930159374700084
6669.454575855154,-0.0008906067098091149
6669.4555756270765,-0.0009886255808505176
6669.456575398999,-0.0010870455381161673
6669.457575170922,-0.0011858393839776734
6669.458574942844,-0.001284979749238307
6669.459574714768,-0.0013844391067147725
6669.46057448669,-0.0014841897848090187
6669.461574258613,-0.001584203981060652
6669.462574030536,-0.0016844537756708002
6669.463573802458,-0.0017849111449885586
6669.464573574382,-0.001885547974951424
6669.465573346304,-0.0019863360744713995
6669.466573118227,-0.0020872471887587165
6669.467572890149,-0.002188253012575401
6669.468572662072,-0.0022893252034111877
6669.469572433995,-0.002390435394574556
6669.470572205918,-0.0024915552081919467
6669.4715719778405,-0.0025926562681084656
6669.472571749763,-0.0026937102126836404
6669.473571521686,-0.0027946887074760123
6669.474571293609,-0.0028955634578105563
6669.475571065532,-0.002996306221223114
6669.476570837454,-0.0030968888197762273
6669.477570609377,-0.0031972831522409685
6669.4785703813,-0.003297461206139559
6669.479570153222,-0.003397395069643836
6669.480569925146,-0.0034970569433248684
6669.481569697068,-0.0035964191517492768
6669.482569468991,-0.003695454154918044
6669.483569240913,-0.0037941345595438702
6669.484569012836,-0.003892433130163315
6669.485568784759,-0.0039903228000801975
6669.486568556682,-0.004087776682136937
6669.4875683286045,-0.004184768079310677
6669.488568100527,-0.004281270495131277
6669.48956787245,-0.004377257643918411
6669.490567644373,-0.004472703460835238
6669.491567416296,-0.004567582111756301
6669.492567188218,-0.004661868002947498
6669.493566960141,-0.004755535790556169
6669.494566732064,-0.004848560389909523
6669.495566503987,-0.004940916984619792
6669.49656627591,-0.0050325810354946675
6669.497566047832,-0.005123528289251686
6669.498565819755,-0.005213734787035369
6669.499565591677,-0.005303176872735949
6669.5005653636,-0.0053918312011086
6669.501565135523,-0.0054796747456920605
6669.502564907446,-0.005566684806525578
6669.5035646793685,-0.005652839017663056
6669.504564451291,-0.005738115354483335
6669.505564223214,-0.0058224921407955274
6669.506563995137,-0.005905948055738331
6669.50756376706,-0.005988462140472329
6669.508563538982,-0.006070013804664266
6669.509563310905,-0.006150582832762356
6669.510563082828,-0.006230149390061754
6669.51156285475,-0.006308694028559298
6669.512562626674,-0.006386197692596781
6669.513562398596,-0.006462641724292034
6669.514562170519,-0.0065380078687572625
6669.515561942441,-0.0066122782791041765
6669.516561714364,-0.006685435521235665
6669.517561486287,-0.006757462578423852
6669.51856125821,-0.006828342855674495
6669.5195610301325,-0.00689806018387779
6669.520560802055,-0.006966598823745714
6669.521560573978,-0.007033943469536123
6669.522560345901,-0.007100079252563884
6669.523560117824,-0.0071649917444994785
6669.524559889746,-0.007228666960455598
6669.525559661669,-0.007291091361862432
6669.526559433592,-0.007352251859132467
6669.527559205515,-0.007412135814115807
6669.528558977438,-0.007470731042347141
6669.52955874936,-0.007528025815085612
6669.530558521283,-0.007584008861148932
6669.531558293205,-0.007638669368543234
6669.532558065128,-0.007691996985890158
6669.533557837051,-0.007743981823652824
6669.534557608974,-0.007794614455162393
6669.5355573808965,-0.007843885917447025
6669.536557152819,-0.00789178771186515
6669.537556924742,-0.007938311804545059
6669.538556696665,-0.007983450626632931
6669.539556468588,-0.008027197074351443
6669.54055624051,-0.008069544508871263
6669.541556012433,-0.008110486755997673
6669.542555784356,-0.008150018105674629
6669.543555556279,-0.008188133311308568
6669.544555328202,-0.008224827588914163
6669.545555100124,-0.0082600966160843
6669.546554872047,-0.008293936530786385
6669.547554643969,-0.008326343929987092
6669.548554415893,-0.008357315868107566
6669.549554187815,-0.008386849855311032
6669.550553959738,-0.008414943855624732
6669.5515537316605,-0.008441596284898038
6669.552553503583,-0.008466806008598608
6669.553553275506,-0.008490572339448428
6669.554553047429,-0.008512895034901637
6669.555552819352,-0.008533774294466155
6669.556552591274,-0.008553210756871208
6669.557552363197,-0.008571205497082951
6669.55855213512,-0.008587760023170514
6669.559551907043,-0.008602876273024801
6669.560551678966,-0.00861655661093254
6669.561551450888,-0.008628803824008059
6669.562551222811,-0.00863962111848537
6669.563550994733,-0.008649012115873165
6669.564550766656,-0.00865698084897541
6669.565550538579,-0.008663531757780231
6669.566550310502,-0.008668669685219822
6669.5675500824245,-0.00867239987280417
6669.568549854347,-0.008674727956131414
6669.56954962627,-0.00867565996027769
6669.570549398193,-0.008675202295069358
6669.571549170116,-0.008673361750240503
6669.572548942038,-0.008670145490478568
6669.573548713961,-0.008665561050361011
6669.574548485884,-0.008659616329185741
6669.575548257807,-0.008652319585698115
6669.57654802973,-0.008643679432717115
6669.577547801652,-0.008633704831663364
6669.578547573575,-0.008622405086991523
6669.579547345497,-0.008609789840529642
6669.580547117421,-0.00859586906572799
6669.581546889343,-0.008580653061819918
6669.582546661266,-0.008564152447897303
6669.5835464331885,-0.008546378156903085
6669.584546205111,-0.008527341429543474
6669.585545977034,-0.00850705380812238
6669.586545748957,-0.008485527130300582
6669.58754552088,-0.008462773522782251
6669.588545292802,-0.008438805394931321
6669.589545064725,-0.00841363543232032
6669.590544836648,-0.00838727659021422
6669.591544608571,-0.008359742086991877
6669.592544380494,-0.008331045397507675
6669.593544152416,-0.008301200246395954
6669.594543924339,-0.008270220601320837
6669.595543696261,-0.00823812066617401
6669.596543468184,-0.008204914874223031
6669.597543240107,-0.008170617881212653
6669.59854301203,-0.008135244558421663
6669.5995427839525,-0.008098809985677748
6669.600542555875,-0.008061329444332861
6669.601542327798,-0.008022818410201617
6669.602542099721,-0.007983292546465228
6669.603541871644,-0.007942767696543552
6669.604541643566,-0.007901259876937827
6669.605541415489,-0.007858785270046742
6669.606541187412,-0.00781536021695846
6669.607540959335,-0.007771001210221325
6669.608540731258,-0.007725724886595978
6669.60954050318,-0.007679548019791672
6669.610540275103,-0.007632487513189649
6669.611540047025,-0.00758456039255641
6669.612539818949,-0.007535783798749828
6669.613539590871,-0.007486174980421042
6669.614539362794,-0.007435751286715099
6669.6155391347165,-0.007384530159973344
6669.616538906639,-0.00733252912844054
6669.617538678562,-0.007279765798979695
6669.618538450485,-0.00722625784979757
6669.619538222408,-0.007172023023183826
6669.62053799433,-0.007117079118266715
6669.621537766253,-0.007061443983788229
6669.622537538176,-0.007005135510901534
6669.623537310099,-0.006948171625993487
6669.624537082022,-0.006890570283535003
6669.625536853944,-0.006832349458961963
6669.626536625867,-0.006773527141589279
6669.627536397789,-0.0067141213275607545
6669.628536169713,-0.006654150012837292
6669.629535941635,-0.006593631186226029
6669.630535713558,-0.0065325828224530175
6669.6315354854805,-0.0064710228752820655
6669.632535257403,-0.006408969270682442
6669.633535029327,-0.006346439900048156
6669.634534801249,-0.006283452613471567
6669.635534573172,-0.006220025213074125
6669.636534345094,-0.006156175446397053
6669.637534117017,-0.006091920999854832
6669.63853388894,-0.006027279492254386
6669.639533660863,-0.005962268468382885
6669.640533432786,-0.005896905392667122
6669.641533204708,-0.005831207642907376
6669.642532976631,-0.005765192504088734
6669.643532748553,-0.0056988771622727315
6669.644532520477,-0.0056322786985722115
6669.645532292399,-0.0055654140832122065
6669.646532064322,-0.005498300169679628
6669.6475318362445,-0.005430953688964473
6669.648531608167,-0.005363391243895222
6669.64953138009,-0.0052956293035710585
6669.650531152013,-0.005227684197893471
6669.651530923936,-0.0051595721121997775
6669.652530695858,-0.005091309082001038
6669.653530467781,-0.005022910987826808
6669.654530239704,-0.004954393550179111
6669.655530011627,-0.004885772324597995
6669.65652978355,-0.004817062696840955
6669.657529555472,-0.004748279878178425
6669.658529327395,-0.00467943890080747
6669.659529099317,-0.004610554613385714
6669.660528871241,-0.004541641676687474
6669.661528643163,-0.00447271455938399
6669.662528415086,-0.0044037875339496295
6669.6635281870085,-0.004334874672695907
6669.664527958931,-0.004265989843935109
6669.665527730855,-0.004197146708275294
6669.666527502777,-0.00412835871504838
6669.6675272747,-0.004059639098872968
6669.668527046622,-0.003991000876353471
6669.669526818545,-0.0039224568429170265
6669.670526590468,-0.0038540195697895608
6669.671526362391,-0.003785701401112237
6669.672526134314,-0.003717514451199381
6669.673525906236,-0.0036494706019388015
6669.674525678159,-0.0035815815003352393
6669.675525450081,-0.003513858556197516
6669.676525222005,-0.0034463129399697583
6669.677524993927,-0.003378955580706911
6669.67852476585,-0.0033117971641945876
6669.6795245377725,-0.0032448481312131482
6669.680524309695,-0.003178118675945745
6669.681524081619,-0.0031116187445299286
6669.682523853541,-0.00304535803375228
6669.683523625464,-0.002979345989885391
6669.684523397386,-0.002913591807666413
6669.685523169309,-0.00284810442941625
6669.686522941232,-0.002782892544298404
6669.687522713155,-0.002717964587716368
6669.688522485078,-0.0026533287408483817
6669.689522257,-0.002588992930318298
6669.690522028923,-0.002524964828001238
6669.691521800845,-0.0024612518509626387
6669.692521572769,-0.002397861161529253
6669.693521344691,-0.002334799667490593
6669.694521116614,-0.0022720740224292818
6669.6955208885365,-0.0022096906261787103
6669.696520660459,-0.00214765562540638
6669.697520432383,-0.0020859749143212532
6669.698520204305,-0.002024654135503399
6669.699519976228,-0.00196369868085416
6669.70051974815,-0.0019031136926650036
6669.701519520073,-0.0018429040648031366
6669.702519291996,-0.0017830744440118697
6669.703519063919,-0.001723629231323583
6669.704518835842,-0.0016645725835830079
6669.705518607764,-0.0016059084150783533
6669.706518379687,-0.0015476403992776312
6669.707518151609,-0.0014897719706673477
6669.708517923533,-0.001432306326690555
6669.709517695455,-0.0013752464297811368
6669.710517467378,-0.001318595009491124
6669.7115172393005,-0.0012623545647078237
6669.712517011223,-0.001206527365957598
6669.713516783147,-0.0011511154577932355
6669.714516555069,-0.0010961206612619952
6669.715516326992,-0.0010415445764515396
6669.716516098914,-0.0009873885851110912
6669.717515870837,-0.0009336538533452459
6669.71851564276,-0.0008803413343779567
6669.719515414683,-0.0008274517713842566
6669.720515186606,-0.0007749857003873427
6669.721514958528,-0.0007229434532186633
6669.722514730451,-0.0006713251605386684
6669.723514502373,-0.0006201307549158956
6669.724514274297,-0.0005693599739620801
6669.725514046219,-0.0005190123635209952
6669.726513818142,-0.00046908728090875744
6669.7275135900645,-0.0004195838982033613
6669.728513361987,-0.0003705012055812445
6669.729513133911,-0.0003218380146987151
6669.730512905833,-0.00027359296211610187
6669.731512677756,-0.00022576451276251617
6669.732512449678,-0.00017835096343914698
6669.733512221601,-0.00013135044635905038
6669.734511993524,-8.476093272144033e-05
6669.735511765447,-3.858023631853785e-05
6669.73651153737,7.193982826910848e-06
6669.737511309292,5.256421479528234e-05
6669.738511081215,9.753309607666961e-05
6669.739510853137,0.00014210340585214535
6669.740510625061,0.00018627806225136298
6669.741510396983,0.00023006011858810692
6669.742510168906,0.0002734527595753484
6669.7435099408285,0.00031645929752131173
6669.744509712751,0.00035908316850801587
6669.745509484675,0.00040132792855372657
6669.746509256597,0.00044319724976074246
6669.74750902852,0.0004846949164499352
6669.748508800442,0.0005258248212834675
6669.749508572365,0.0005665909613771105
6669.750508344288,0.0006069974344035693
6669.751508116211,0.0006470484346882054
6669.752507888134,0.000686748249298512
6669.753507660056,0.0007261012541286716
6669.754507431979,0.0007651119099804999
6669.755507203901,0.00080378475864206
6669.756506975825,0.0008421244189652184
6669.757506747747,0.0008801355829434154
6669.75850651967,0.000917823011790938
6669.7595062915925,0.0009551915320250216
6669.760506063515,0.000992246031552159
6669.761505835439,0.0010289914557600722
6669.762505607361,0.0010654328036168671
6669.763505379284,0.0011015751237789513
6669.764505151206,0.0011374235107093323
6669.765504923129,0.0011729831008079259
6669.766504695052,0.0012082590685555104
6669.767504466975,0.0012432566226729532
6669.768504238898,0.0012779810022973443
6669.76950401082,0.0013124374731766646
6669.770503782743,0.001346631323884621
6669.771503554666,0.0013805678620572685
6669.772503326589,0.001414252410653025
6669.773503098511,0.0014476903042376593
6669.774502870434,0.0014808868852958026
6669.7755026423565,0.0015138475005705002
6669.776502414279,0.0015465774974322882
6669.777502186203,0.0015790822202792398
6669.778501958125,0.001611367006969398
6669.779501730048,0.0016434371852869728
6669.78050150197,0.001675298069443674
6669.781501273893,0.0017069549566165285
6669.782501045816,0.0017384131235235467
6669.783500817739,0.0017696778230386204
6669.784500589662,0.0018007542808470547
6669.785500361584,0.001831647692143161
6669.786500133507,0.0018623632183713567
6669.787499905429,0.0018929059840122368
6669.788499677353,0.0019232810734150943
6669.789499449275,0.001953493527678395
6669.790499221198,0.001983548341579709
6669.7914989931205,0.0020134504605566032
6669.792498765043,0.0020432047777399947
6669.793498536967,0.002072816131041444
6669.794498308889,0.002102289300295869
6669.795498080812,0.002131629004461107
6669.796497852734,0.0021608398988757303
6669.797497624657,0.002189926572576468
6669.79849739658,0.0022188935456765296
6669.799497168503,0.002247745266806083
6669.800496940426,0.002276486110616081
6669.801496712348,0.002305120375346565
6669.802496484271,0.002333652280460562
6669.803496256194,0.002362085964344615
6669.804496028117,0.002390425482076964
6669.805495800039,0.002418674803264349
6669.806495571962,0.002446837809948333
6669.8074953438845,0.0024749182945820103
6669.808495115807,0.002502919958077877
6669.809494887731,0.002530846407927593
6669.810494659653,0.0025587011563942934
6669.811494431576,0.0025864876187780728
6669.812494203498,0.002614209111755204
6669.813493975421,0.00264186885179165
6669.814493747344,0.002669469953631409
6669.815493519267,0.002697015428860247
6669.8164932911895,0.0027245081845453595
6669.817493063112,0.0027519510219515247
6669.818492835035,0.0027793466353342837
6669.819492606957,0.0028066976108106706
6669.820492378881,0.0028340064253079573
6669.821492150803,0.002861275445590806
6669.822491922726,0.0028885069273671187
6669.8234916946485,0.0029157030144727524
6669.824491466571,0.002942865738135153
6669.825491238495,0.0029699970163158426
6669.826491010417,0.002997098653131594
6669.82749078234,0.0030241723383540443
6669.828490554262,0.0030512196469874063
6669.829490326185,0.0030782420389238825
6669.830490098108,0.003105240858676324
6669.831489870031,0.003132217335187611
6669.8324896419535,0.0031591725817161935
6669.833489413876,0.0031861075957971903
6669.834489185799,0.0032130232592783676
6669.835488957722,0.0032399203384302854
6669.836488729645,0.0032667994841298273
6669.837488501567,0.003293661232116262
6669.83848827349,0.003320506003318918
6669.8394880454125,0.0033473341042555157
6669.840487817335,0.003374145727500119
6669.841487589259,0.003400940952219623
6669.842487361181,0.003427719744777617
6669.843487133104,0.0034544819594044002
6669.844486905026,0.003481227338931851
6669.845486676949,0.0035079555155917933
6669.846486448872,0.0035346660118764704
6669.847486220795,0.003561358241459672
6669.8484859927175,0.0035880315101770696
6669.84948576464,0.003614685017064294
6669.850485536563,0.003641317855451304
6669.851485308486,0.0036679290141116423
6669.852485080409,0.0036945173784652023
6669.853484852331,0.0037210817318331937
6669.854484624254,0.003747620756744027
6669.8554843961765,0.0037741330362888416
6669.8564841681,0.0038006170555253665
6669.857483940023,0.0038270712029287463
6669.858483711945,0.0038534937718878756
6669.859483483868,0.00387988296224569
6669.86048325579,0.00390623688188177
6669.861483027713,0.003932553548335527
6669.862482799636,0.003958830890468196
6669.863482571559,0.003985066750161795
6669.8644823434815,0.004011258884053231
6669.865482115404,0.004037404965301665
6669.866481887327,0.004063502585387321
6669.86748165925,0.004089549255939935
6669.868481431173,0.004115542410595112
6669.869481203095,0.004141479406876961
6669.870480975018,0.004167357528105424
6669.8714807469405,0.004193173985326866
6669.872480518863,0.00421892591926656
6669.873480290787,0.004244610402301816
6669.874480062709,0.004270224440454594
6669.875479834632,0.004295764975402467
6669.876479606554,0.004321228886506841
6669.877479378477,0.004346612992857299
6669.8784791504,0.004371914055330897
6669.879478922323,0.004397128778665228
6669.8804786942455,0.004422253813543996
6669.881478466168,0.004447285758693899
6669.882478238091,0.004472221162991561
6669.883478010014,0.0044970565275793085
6669.884477781937,0.004521788307988586
6669.885477553859,0.004546412916269865
6669.886477325782,0.0045709267231279355
6669.8874770977045,0.004595326060061493
6669.888476869628,0.004619607221505996
6669.889476641551,0.004643766466978723
6669.890476413473,0.004667800023225015
6669.891476185396,0.00469170408636468
6669.892475957318,0.004715474824037528
6669.893475729241,0.0047391083775471295
6669.894475501164,0.0047626008640018515
6669.895475273087,0.0047859483784523605
6669.8964750450095,0.0048091469960248176
6669.897474816932,0.004832192774049083
6669.898474588855,0.004855081754181287
6669.899474360778,0.0048778099645201516
6669.900474132701,0.004900373421716463
6669.901473904623,0.004922768133075034
6669.902473676546,0.004944990098648472
6669.9034734484685,0.004967035313322019
6669.904473220392,0.0049888997688886435
6669.905472992315,0.005010579456113566
6669.906472764237,0.005032070366787356
6669.90747253616,0.005053368495766682
6669.908472308082,0.005074469843001793
6669.909472080006,0.005095370415549779
6669.910471851928,0.005116066229572636
6669.911471623851,0.005136553312319182
6669.9124713957735,0.005156827704089855
6669.913471167696,0.0051768854601834955
6669.914470939619,0.005196722652825229
6669.915470711542,0.005216335373074587
6669.916470483465,0.0052357197327130255
6669.917470255387,0.005254871866109969
6669.91847002731,0.005273787932066494
6669.9194697992325,0.005292464115635762
6669.920469571156,0.005310896629919282
6669.921469343079,0.005329081717838142
6669.922469115001,0.005347015653878333
6669.923468886924,0.005364694745809397
6669.924468658846,0.005382115336375607
6669.925468430769,0.005399273804958986
6669.926468202692,0.0054161665692135045
6669.927467974615,0.005432790086669847
6669.9284677465375,0.005449140856310196
6669.92946751846,0.005465215420112486
6669.930467290383,0.0054810103645636845
6669.931467062306,0.0054965223221416495
6669.932466834229,0.0055117479727651705
6669.933466606151,0.0055266840452118
6669.934466378074,0.005541327318503131
6669.9354661499965,0.005555674623257143
6669.93646592192,0.005569722843007276
6669.937465693843,0.0055834689154879045
6669.938465465765,0.005596909833885871
6669.939465237688,0.005610042648057725
6669.94046500961,0.005622864465712312
6669.941464781534,0.005635372453558303
6669.942464553456,0.005647563838416242
6669.943464325379,0.005659435908294627
6669.9444640973015,0.005670986013429562
6669.945463869224,0.005682211567287434
6669.946463641147,0.0056931100475300445
6669.94746341307,0.005703678996941612
6669.948463184993,0.005713916024317001
6669.949462956915,0.005723818805310502
6669.950462728838,0.005733385083244454
6669.9514625007605,0.005742612669877007
6669.952462272684,0.005751499446128298
6669.953462044607,0.005760043362764399
6669.954461816529,0.005768242441038441
6669.955461588452,0.0057760947732883984
6669.956461360374,0.005783598523491147
6669.957461132297,0.005790751927772508
6669.95846090422,0.005797553294873054
6669.959460676143,0.005804001006569546
6669.9604604480655,0.005810093518051959
6669.961460219988,0.005815829358256104
6669.962459991911,0.005821207130151938
6669.963459763834,0.005826225510987719
6669.964459535757,0.005830883252490276
6669.965459307679,0.005835179181021696
6669.966459079602,0.0058391121976928235
6669.9674588515245,0.005842681278434035
6669.968458623448,0.005845885474023765
6669.969458395371,0.005848723910075282
6669.970458167293,0.005851195786982284
6669.971457939216,0.005853300379823836
6669.972457711138,0.005855037038229214
6669.973457483062,0.0058564051862032
6669.974457254984,0.005857404321912394
6669.975457026907,0.005858034017433107
6669.9764567988295,0.005858293918461372
6669.977456570752,0.005858183743985654
6669.978456342675,0.005857703285922774
6669.979456114598,0.005856852408717592
6669.980455886521,0.005855631048906981
6669.981455658443,0.005854039214648618
6669.982455430366,0.005852076985215104
6669.9834552022885,0.005849744510453962
6669.984454974212,0.005847042010214041
6669.985454746135,0.005843969773738957
6669.986454518057,0.0058405281590281554
6669.98745428998,0.005836717592166301
6669.988454061902,0.00583253856662165
6669.989453833826,0.005827991642514129
6669.990453605748,0.005823077445853822
6669.991453377671,0.005817796667750532
6669.9924531495935,0.005812150063595124
6669.993452921516,0.005806138452213329
6669.99445269344,0.0057997627149926675
6669.995452465362,0.00579302379498317
6669.996452237285,0.005785922695972524
6669.997452009207,0.005778460481536362
6669.99845178113,0.005770638274064338
6669.9994515530525,0.005762457253762719
6670.000451324976,0.005753918657634253
6670.001451096899,0.00574502377843608
6670.002450868821,0.005735773963616485
6670.003450640744,0.005726170614231364
6670.004450412666,0.005716215183841252
6670.00545018459,0.005705909177389838
6670.006449956512,0.0056952541500649035
6670.007449728435,0.00568425170614264
6670.0084495003575,0.005672903497816368
6670.00944927228,0.005661211224010688
6670.010449044203,0.005649176629182175
6670.011448816126,0.0056368015021077186
6670.012448588049,0.005624087674661645
6670.013448359971,0.005611037020582785
6670.014448131894,0.005597651454232599
6670.0154479038165,0.0055839329293454806
6670.01644767574,0.005569883437772284
6670.017447447663,0.005555505008218095
6670.018447219585,0.0055407997049751676
6670.019446991508,0.005525769626651915
6670.02044676343,0.0055104169048987885
6670.021446535354,0.005494743703131827
6670.022446307276,0.005478752215254665
6670.023446079199,0.005462444664379693
6670.0244458511215,0.005445823301549081
6670.025445623044,0.005428890404456324
6670.026445394968,0.005411648276169012
6670.02744516689,0.005394099243853509
6670.028444938813,0.005376245657502301
6670.029444710735,0.005358089888664796
6670.030444482658,0.005339634329182443
6670.0314442545805,0.005320881389929102
6670.032444026504,0.005301833499557692
6670.033443798427,0.0052824931032541735
6670.034443570349,0.0052628626615000085
6670.035443342272,0.005242944648844237
6670.036443114194,0.00522274155268636
6670.037442886118,0.005202255872071152
6670.03844265804,0.0051814901164965
6670.039442429963,0.0051604468047352515
6670.0404422018855,0.0051391284636719825
6670.041441973808,0.0051175376271555325
6670.042441745732,0.005095676834868019
6670.043441517654,0.005073548631211014
6670.044441289577,0.005051155564209468
6670.045441061499,0.005028500184433919
6670.046440833422,0.0050055850439414545
6670.047440605345,0.00498241269523588
6670.048440377268,0.0049589856902474356
6670.049440149191,0.004935306579332395
6670.050439921113,0.004911377910292781
6670.051439693036,0.004887202227416446
6670.052439464958,0.0048627820705376985
6670.053439236882,0.00483811997411867
6670.054439008804,0.0048132184663516025
6670.055438780727,0.004788080068282249
6670.0564385526495,0.00476270729295459
6670.057438324572,0.004737102644577078
6670.058438096496,0.00471126861771065
6670.059437868418,0.004685207696478761
6670.060437640341,0.00465892235379974
6670.061437412263,0.004632415050641735
6670.062437184186,0.004605688235300553
6670.0634369561085,0.004578744342700654
6670.064436728032,0.004551585793719573
6670.065436499955,0.004524214994536022
6670.066436271877,0.004496634336001913
6670.0674360438,0.004468846193038521
6670.068435815722,0.004440852924057002
6670.069435587646,0.004412656870403492
6670.070435359568,0.0043842603558289835
6670.071435131491,0.00435566568598416
6670.0724349034135,0.004326875147939342
6670.073434675336,0.004297891009729661
6670.07443444726,0.004268715519925563
6670.075434219182,0.004239350907228727
6670.076433991105,0.004209799380093483
6670.077433763027,0.004180063126373776
6670.07843353495,0.004150144312995768
6670.079433306873,0.004120045085656105
6670.080433078796,0.004089767568545927
6670.081432850719,0.0040593138641006445
6670.082432622641,0.004028686052775524
6670.083432394564,0.003997886192847091
6670.084432166486,0.003966916320240379
6670.08543193841,0.003935778448382024
6670.086431710332,0.0039044745680791937
6670.087431482255,0.0038730066474243364
6670.0884312541775,0.0038413766317257005
6670.0894310261,0.003809586443463564
6670.090430798024,0.00377763798227209
6670.091430569946,0.003745533124946662
6670.092430341869,0.0037132737254765066
6670.093430113791,0.0036808616151023372
6670.094429885714,0.0036482986023986964
6670.0954296576365,0.0036155864733806212
6670.09642942956,0.003582726991634211
6670.097429201483,0.003549721898470641
6670.098428973405,0.0035165729131031286
6670.099428745328,0.003483281732846314
6670.10042851725,0.003449850033337482
6670.101428289174,0.0034162794687790264
6670.102428061096,0.0033825716722015267
6670.103427833019,0.0033487282557467975
6670.1044276049415,0.0033147508109702697
6670.105427376864,0.00328064090916207
6670.106427148788,0.003246400101686191
6670.10742692071,0.0032120299203371727
6670.108426692633,0.0031775318777137605
6670.109426464555,0.0031429074676090425
6670.110426236478,0.003108158165416605
6670.111426008401,0.0030732854285522838
6670.112425780324,0.0030382906968910977
6670.113425552247,0.0030031753932189573
6670.114425324169,0.002967940923698734
6670.115425096092,0.002932588678350283
6670.116424868014,0.0028971200315440035
6670.117424639938,0.002861536342507518
6670.11842441186,0.002825838955845056
6670.119424183783,0.0027900292020691564
6670.1204239557055,0.0027541083981442943
6670.121423727628,0.002718077848042081
6670.122423499552,0.0026819388433077006
6670.123423271474,0.002645692663637269
6670.124423043397,0.0026093405774658494
6670.125422815319,0.002572883842565854
6670.126422587242,0.0025363237066556073
6670.127422359165,0.0024996614080178546
6670.128422131088,0.002462898176128019
6670.129421903011,0.0024260352322920237
6670.130421674933,0.0023890737902934962
6670.131421446856,0.0023520150570501964
6670.132421218779,0.002314860233279501
6670.133420990702,0.002277610514172804
6670.134420762624,0.0022402670900787047
6670.135420534547,0.0022028311471948667
6670.1364203064695,0.0021653038682684688
6670.137420078392,0.0021276864333051836
6670.138419850316,0.0020899800202866634
6670.139419622238,0.002052185805896554
6670.140419394161,0.002014304966255098
6670.141419166083,0.0019763386776624325
6670.142418938006,0.0019382881173507433
6670.143418709929,0.001900154464245458
6670.144418481852,0.0018619388997357408
6670.145418253775,0.0018236426084545748
6670.146418025697,0.0017852667790687654
6670.14741779762,0.0017468126050791963
6670.148417569542,0.0017082812856316764
6670.149417341466,0.0016696740263387013
6670.150417113388,0.001630992040112421
6670.151416885311,0.0015922365480090749
6670.1524166572335,0.0015534087800851129
6670.153416429156,0.0015145099762651605
6670.15441620108,0.0014755413872219421
6670.155415973002,0.0014365042752681985
6670.156415744925,0.0013973999152605784
6670.157415516847,0.001358229595515411
6670.15841528877,0.001318994618736214
6670.159415060693,0.001279696302952724
6670.160414832616,0.0012403359824711979
6670.161414604539,0.0012009150088356812
6670.162414376461,0.001161434751799892
6670.163414148384,0.0011218966003093266
6670.164413920307,0.0010823019634931487
6670.16541369223,0.0010426522716653805
6670.166413464152,0.001002948977334896
6670.167413236075,0.0009631935562236959
6670.1684130079975,0.0009233875082929447
6670.16941277992,0.0008835323587762602
6670.170412551844,0.0008436296592197496
6670.171412323766,0.0008036809885283009
6670.172412095689,0.0007636879540176422
6670.173411867611,0.0007236521924716956
6670.174411639534,0.0006835753712047632
6670.175411411457,0.0006434591891280953
6670.17641118338,0.0006033053778203898
6670.177410955303,0.0005631157026017485
6670.178410727225,0.0005228919636105811
6670.179410499148,0.00048263599688289283
6670.18041027107,0.00044234967543332004
6670.181410042994,0.00040203491033720656
6670.182409814916,0.00036169365181292265
6670.183409586839,0.00032132789030353786
6670.1844093587615,0.00028093965755685783
6670.185409130684,0.00024053102770272905
6670.186408902608,0.0002001041183264117
6670.18740867453,0.00015966109153671364
6670.188408446453,0.00011920415502746327
6670.189408218375,7.873556313077068e-05
6670.190407990298,3.825761786038584e-05
6670.191407762221,-2.2273300566763435e-06
6670.192407534144,-4.271688016220637e-05
6670.193407306067,-8.320858126464431e-05
6670.194407077989,-0.00012369993045488015
6670.195406849912,-0.0001641883721422889
6670.196406621835,-0.0002046712971133709
6670.197406393758,-0.0002451460416154573
6670.19840616568,-0.000285609886468024
6670.199405937603,-0.0003260600562042327
6670.2004057095255,-0.0003664937182453712
6670.201405481448,-0.0004069079821108932
6670.202405253372,-0.00044729989866674563
6670.203405025294,-0.0004876664594146214
6670.204404797217,-0.0005280045958246858
6670.205404569139,-0.0005683111787142116
6670.206404341062,-0.0006085830176744318
6670.207404112985,-0.0006488168605478106
6670.208403884908,-0.0006890093929578285
6670.209403656831,-0.0007291572378933194
6670.210403428753,-0.0007692569553493519
6670.211403200676,-0.0008093050420266277
6670.212402972599,-0.0008492979310913664
6670.213402744522,-0.0008892319919976314
6670.214402516444,-0.0009291035303740468
6670.215402288367,-0.0009689087879768345
6670.2164020602895,-0.001008643942711073
6670.217401832213,-0.0010483051087220394
6670.218401604136,-0.0010878883365584306
6670.219401376058,-0.001127389613409193
6670.220401147981,-0.0011668048634155806
6670.221400919903,-0.001206129948059956
6670.222400691826,-0.0012453606666327098
6670.223400463749,-0.0012844927567785271
6670.224400235672,-0.0013235218951230664
6670.2254000075945,-0.0013624436979809413
6670.226399779517,-0.0014012537221457372
6670.22739955144,-0.0014399474657626264
6670.228399323363,-0.0014785203692840162
6670.229399095286,-0.001516967816508524
6670.230398867208,-0.0015552851357034658
6670.231398639131,-0.0015934676008109404
6670.2323984110535,-0.0016315104327374844
6670.233398182976,-0.0016694088007272018
6670.2343979549,-0.0017071578238181673
6670.235397726822,-0.0017447525723818308
6670.236397498745,-0.0017821880697450566
6670.237397270667,-0.0018194592938943586
6670.23839704259,-0.0018565611792617967
6670.239396814513,-0.0018934886185919275
6670.240396586436,-0.0019302364648891175
6670.241396358359,-0.0019667995334444583
6670.242396130281,-0.002003172603941436
6670.243395902204,-0.002039350422639441
6670.244395674127,-0.0020753277046341168
6670.24539544605,-0.0021110991361934775
6670.246395217972,-0.002146659377168629
6670.247394989895,-0.002182003063477844
6670.2483947618175,-0.002217124809662624
6670.249394533741,-0.002252019211514292
6670.250394305664,-0.002286680848769539
6670.251394077586,-0.0023211042878732487
6670.252393849509,-0.0023552840848068165
6670.253393621431,-0.002389214787980093
6670.254393393354,-0.002422890941184958
6670.255393165277,-0.002456307086608443
6670.2563929372,-0.002489457767903172
6670.2573927091225,-0.002522337533312783
6670.258392481045,-0.0025549409388498476
6670.259392252968,-0.002587262551523697
6670.260392024891,-0.0026192969526154775
6670.261391796814,-0.0026510387409977025
6670.262391568736,-0.0026824825364955315
6670.263391340659,-0.0027136229832870093
6670.2643911125815,-0.0027444547533394866
6670.265390884505,-0.0027749725498794515
6670.266390656428,-0.0028051711108930126
6670.26739042835,-0.002835045212654261
6670.268390200273,-0.002864589673278725
6670.269389972195,-0.002893799356299096
6670.270389744119,-0.0029226691742603355
6670.271389516041,-0.002951194092331229
6670.272389287964,-0.0029793691319293628
6670.273389059887,-0.0030071893743564794
6670.274388831809,-0.0030346499644410955
6670.275388603732,-0.003061746114185268
6670.276388375655,-0.0030884731064123663
6670.277388147578,-0.003114826298412697
6670.2783879195,-0.0031408011255838458
6670.279387691423,-0.00316639310506257
6670.2803874633455,-0.00319159783934509
6670.281387235269,-0.003216411019892587
6670.282387007192,-0.003240828430718677
6670.283386779114,-0.0032648459519555597
6670.284386551037,-0.003288459563395408
6670.285386322959,-0.0033116653480034126
6670.286386094882,-0.0033344594953987057
6670.287385866805,-0.0033568383052992343
6670.288385638728,-0.003378798190926488
6670.2893854106505,-0.003400335682365872
6670.290385182573,-0.003421447429878412
6670.291384954496,-0.003442130207159408
6670.292384726419,-0.003462380914539595
6670.293384498342,-0.00348219658212431
6670.294384270264,-0.0035015743728661064
6670.295384042187,-0.0035205115855661906
6670.2963838141095,-0.0035390056578000063
6670.297383586033,-0.0035570541687622343
6670.298383357956,-0.0035746548420264334
6670.299383129878,-0.0035918055482145298
6670.300382901801,-0.0036085043075713167
6670.301382673723,-0.003624749292439155
6670.302382445647,-0.0036405388296280447
6670.303382217569,-0.0036558714026762654
6670.304381989492,-0.0036707456539967994
6670.305381761415,-0.0036851603869047724
6670.306381533337,-0.003699114567521159
6670.30738130526,-0.0037126073265479954
6670.308381077183,-0.0037256379609103456
6670.309380849106,-0.0037382059352602365
6670.310380621028,-0.0037503108833378054
6670.311380392951,-0.00376195260918489
6670.3123801648735,-0.0037731310882063067
6670.313379936797,-0.0037838464680741038
6670.31437970872,-0.0037940990694700916
6670.315379480642,-0.003803889386662045
6670.316379252565,-0.0038132180879089962
6670.317379024487,-0.0038220860156911686
6670.31837879641,-0.0038304941867601805
6670.319378568333,-0.003838443792005314
6670.320378340256,-0.0038459361961317652
6670.3213781121785,-0.0038529729371470007
6670.322377884101,-0.003859555725651574
6670.323377656024,-0.0038656864439310214
6670.324377427947,-0.0038713671448457956
6670.32537719987,-0.003876600050516565
6670.326376971792,-0.0038813875508025494
6670.327376743715,-0.003885732201570986
6670.3283765156375,-0.0038896367227561845
6670.329376287561,-0.003893103996207054
6670.330376059484,-0.003896137063322425
6670.331375831406,-0.0038987391224739433
6670.332375603329,-0.0039009135262168424
6670.333375375251,-0.003902663778289408
6670.334375147175,-0.0039039935304025033
6670.335374919097,-0.003904906578821081
6670.33637469102,-0.0039054068607401473
6670.337374462943,-0.0039054984504581784
6670.338374234865,-0.0039051855553514933
6670.339374006788,-0.0039044725116535567
6670.340373778711,-0.0039033637800436295
6670.341373550634,-0.0039018639410496126
6670.342373322556,-0.0038999776902702973
6670.343373094479,-0.003897709833422631
6670.3443728664015,-0.0038950652812199983
6670.345372638325,-0.0038920490440879237
6670.346372410248,-0.0038886662267240647
6670.34737218217,-0.0038849220225098554
6670.348371954093,-0.0038808217077816666
6670.349371726015,-0.0038763706359699296
6670.350371497939,-0.003871574231615251
6670.351371269861,-0.0038664379842712243
6670.352371041784,-0.0038609674423043185
6670.3533708137065,-0.0038551682066019473
6670.354370585629,-0.0038490459242005487
6670.355370357553,-0.0038426062818462305
6670.356370129475,-0.0038358549995012466
6670.357369901398,-0.0038287978238102016
6670.35836967332,-0.003821440521540422
6670.359369445243,-0.0038137888730113427
6670.3603692171655,-0.0038058486655280616
6670.361368989089,-0.003797625686834421
6670.362368761012,-0.0037891257186011065
6670.363368532934,-0.00378035452996432
6670.364368304857,-0.0037713178711305953
6670.365368076779,-0.0037620214670632235
6670.366367848703,-0.0037524710112656194
6670.367367620625,-0.0037426721596767166
6670.368367392548,-0.0037326305246931845
6670.369367164471,-0.0037223516693328886
6670.370366936393,-0.0037118411015535607
6670.371366708316,-0.0037011042687400764
6670.372366480239,-0.0036901465523730757
6670.373366252162,-0.0036789732628909463
6670.374366024084,-0.0036675896347563622
6670.375365796007,-0.0036560008217377308
6670.3763655679295,-0.0036442118924149914
6670.377365339853,-0.0036322278259182817
6670.378365111776,-0.0036200535079069867
6670.379364883698,-0.003607693726795665
6670.380364655621,-0.00359515317023227
6670.381364427543,-0.003582436421833008
6670.382364199467,-0.003569547958177045
6670.383363971389,-0.003556492146063185
6670.384363743312,-0.00354327324002955
6670.3853635152345,-0.003529895380136246
6670.386363287157,-0.003516362590010025
6670.387363059081,-0.003502678775149055
6670.388362831003,-0.0034888477214851435
6670.389362602926,-0.003474873094200037
6670.390362374848,-0.0034607584367918475
6670.391362146771,-0.0034465071703871247
6670.3923619186935,-0.0034321225932936335
6670.393361690617,-0.0034176078807885025
6670.39436146254,-0.003402966085136031
6670.395361234462,-0.0033882001358291358
6670.396361006385,-0.0033733128400481745
6670.397360778307,-0.003358306883330656
6670.398360550231,-0.0033431848304451995
6670.399360322153,-0.0033279491264630134
6670.400360094076,-0.0033126020980201003
6670.401359865999,-0.0032971459547633574
6670.402359637921,-0.003281582790973737
6670.403359409845,-0.0032659145873596028
6670.404359181767,-0.0032501432130134377
6670.40535895369,-0.0032342704275250727
6670.406358725612,-0.0032182978832446035
6670.407358497535,-0.0032022271276882066
6670.408358269458,-0.0031860596060801186
6670.409358041381,-0.003169796664024106
6670.410357813304,-0.003153439550297853
6670.411357585226,-0.003136989419763823
6670.412357357149,-0.003120447336390284
6670.413357129071,-0.003103814276376342
6670.414356900995,-0.003087091131374987
6670.415356672917,-0.0030702787118083085
6670.41635644484,-0.003053377750269206
6670.4173562167625,-0.0030363889050040527
6670.418355988685,-0.0030193127634709246
6670.419355760609,-0.0030021498459681397
6670.420355532531,-0.0029849006093279795
6670.421355304454,-0.002967565450670574
6670.422355076376,-0.0029501447112130516
6670.423354848299,-0.0029326386801291466
6670.4243546202215,-0.0029150475984545555
6670.425354392145,-0.002897371663033441
6670.426354164068,-0.002879611030501557
6670.42735393599,-0.0028617658213015854
6670.428353707913,-0.0028438361237263475
6670.429353479835,-0.0028258219979856534
6670.430353251759,-0.002807723480292616
6670.431353023681,-0.0027895405869653
6670.432352795604,-0.00277127331853959
6670.433352567527,-0.002752921663889146
6670.434352339449,-0.002734485604348253
6670.435352111373,-0.002715965117833299
6670.436351883295,-0.0026973601829585313
6670.437351655218,-0.0026786707831417092
6670.43835142714,-0.0026598969106952607
6670.439351199063,-0.0026410385708985932
6670.440350970986,-0.002622095786047262
6670.441350742909,-0.002603068599474752
6670.442350514832,-0.0025839570795427127
6670.443350286754,-0.0025647613235955545
6670.444350058677,-0.0025454814618754065
6670.445349830599,-0.0025261176613935615
6670.446349602523,-0.0025066701297546757
6670.447349374445,-0.002487139118930169
6670.448349146368,-0.002467524928977465
6670.4493489182905,-0.00244782791170193
6670.450348690213,-0.002428048474258578
6670.451348462137,-0.002408187082690801
6670.452348234059,-0.0023882442654035805
6670.453348005982,-0.0023682206165687677
6670.454347777904,-0.0023481167994601447
6670.455347549827,-0.0023279335497160764
6670.4563473217495,-0.002307671678527606
6670.457347093673,-0.0022873320757498894
6670.458346865596,-0.0022669157129348735
6670.459346637518,-0.0022464236462831403
6670.460346409441,-0.0022258570195128513
6670.461346181363,-0.002205217066643739
6670.462345953287,-0.0021845051146940912
6670.463345725209,-0.002163722586288697
6670.464345497132,-0.002142871002175718
6670.465345269055,-0.002121951983650475
6670.466345040977,-0.002100967254884187
6670.467344812901,-0.00207991864515575
6670.468344584823,-0.002058808090984719
6670.469344356746,-0.002037637638163765
6670.470344128668,-0.002016409443688955
6670.471343900591,-0.0019951257775863095
6670.472343672514,-0.001973789024633178
6670.473343444437,-0.001952401685973074
6670.47434321636,-0.0019309663806227027
6670.475342988282,-0.001909485846870028
6670.476342760205,-0.001887962943562336
6670.477342532127,-0.0018664006512833793
6670.478342304051,-0.0018448020734187802
6670.479342075973,-0.0018231704371090068
6670.480341847896,-0.0018015090940893199
6670.4813416198185,-0.0017798215214161709
6670.482341391741,-0.0017581113220796094
6670.483341163665,-0.0017363822255013154
6670.484340935587,-0.0017146380879179148
6670.48534070751,-0.0016928828926492739
6670.486340479432,-0.0016711207502514917
6670.487340251355,-0.0016493558985543248
6670.488340023278,-0.0016275927025828025
6670.489339795201,-0.0016058356543627813
6670.490339567124,-0.0015840893726101945
6670.491339339046,-0.001562358602303748
6670.492339110969,-0.0015406482141408272
6670.493338882892,-0.0015189632038764172
6670.494338654815,-0.001497308691544885
6670.495338426737,-0.0014756899205645507
6670.49633819866,-0.0014541122567250419
6670.497337970583,-0.0014325811870575303
6670.498337742505,-0.001411102318588019
6670.499337514429,-0.0013896813769739501
6670.500337286351,-0.0013683242050244982
6670.501337058274,-0.0013470367611050215
6670.502336830196,-0.0013258251174262544
6670.503336602119,-0.001304695458218955
6670.504336374042,-0.0012836540777948497
6670.505336145965,-0.0012627073784948362
6670.506335917888,-0.001241861868525511
6670.50733568981,-0.001221124159685173
6670.508335461733,-0.0012005009649805414
6670.509335233655,-0.0011799990961354804
6670.510335005579,-0.0011596254609930773
6670.511334777501,-0.0011393870608124618
6670.512334549424,-0.001119290987461773
6670.5133343213465,-0.0010993444205087172
6670.514334093269,-0.0010795546242101856
6670.515333865193,-0.0010599289444024555
6670.516333637115,-0.0010404748052935664
6670.517333409038,-0.0010211997061595475
6670.51833318096,-0.0010021112179462526
6670.519332952883,-0.0009832169797786454
6670.520332724806,-0.0009645246953794483
6670.521332496729,-0.0009460421293991312
6670.522332268652,-0.0009277771036592704
6670.523332040574,-0.0009097374933113519
6670.524331812497,-0.0008919312229131212
6670.52533158442,-0.0008743662624246076
6670.526331356343,-0.0008570506231259631
6670.527331128265,-0.0008399923534592635
6670.528330900188,-0.0008231995347964163
6670.529330672111,-0.0008066802771353208
6670.530330444033,-0.0007904427147264279
6670.531330215957,-0.0007744950016318617
6670.532329987879,-0.0007588453072192943
6670.533329759802,-0.0007435018115927993
6670.534329531724,-0.0007284727009629531
6670.535329303647,-0.000713766162958513
6670.53632907557,-0.0006993903818820522
6670.537328847493,-0.0006853535339119921
6670.538328619416,-0.0006716637822535212
6670.539328391338,-0.000658329272240936
6670.540328163261,-0.0006453581263939786
6670.541327935183,-0.0006327584394307761
6670.542327707107,-0.0006205382732400024
6670.543327479029,-0.0006087056518148932
6670.544327250952,-0.0005972685561517569
6670.5453270228745,-0.0005862349191156295
6670.546326794797,-0.0005756126202757355
6670.547326566721,-0.000565409480713416
6670.548326338643,-0.0005556332578051799
6670.549326110566,-0.0005462916399835184
6670.550325882488,-0.0005373922414780984
6670.551325654411,-0.0005289425970399177
6670.552325426334,-0.0005209501566509642
6670.553325198257,-0.0005134222802218849
6670.55432497018,-0.0005063662322801452
6670.555324742102,-0.000499789176651147
6670.556324514025,-0.0004936981711347927
6670.557324285948,-0.00048810016218002
6670.558324057871,-0.0004830019795599013
6670.559323829793,-0.00047841033104999245
6670.560323601716,-0.00047433179711271664
6670.561323373639,-0.0004707728255906737
6670.562323145561,-0.0004677397264118559
6670.563322917485,-0.00046523866630982294
6670.564322689407,-0.000463275663561944
6670.56532246133,-0.00046185658274885754
6670.566322233252,-0.0004609871295383368
6670.567322005175,-0.00046067284549678903
6670.568321777098,-0.0004609191029316568
6670.569321549021,-0.00046173109976804447
6670.570321320944,-0.0004631138544629501
6670.571321092866,-0.00046507220096055855
6670.572320864789,-0.0004676107836921389
6670.573320636712,-0.0004707340526241963
6670.574320408635,-0.00047444625835864665
6670.575320180557,-0.00047875144728890836
6670.57631995248,-0.00048365345681592863
6670.5773197244025,-0.0004891559106282828
6670.578319496326,-0.0004952622140505936
6670.579319268249,-0.0005019755494646258
6670.580319040171,-0.0005092988718074999
6670.581318812094,-0.0005172349041515438
6670.582318584016,-0.000525786133370349
6670.583318355939,-0.0005349548058956175
6670.584318127862,-0.0005447429235693788
6670.585317899785,-0.0005551522395961332
6670.586317671708,-0.0005661842545994206
6670.58731744363,-0.0005778402127872484
6670.588317215553,-0.0005901210982307193
6670.589316987476,-0.0006030276312600976
6670.590316759399,-0.0006165602649824403
6670.591316531321,-0.0006307191819248066
6670.592316303244,-0.0006455042908069191
6670.593316075167,-0.0006609152234469994
6670.594315847089,-0.0006769513318043142
6670.595315619013,-0.0006936116851617894
6670.596315390935,-0.0007108950674518617
6670.597315162858,-0.0007287999747285757
6670.59831493478,-0.000747324612788784
6670.599314706703,-0.0007664668949451782
6670.600314478626,-0.0007862244399537555
6670.601314250549,-0.0008065945700981961
6670.602314022472,-0.0008275743094334945
6670.603313794394,-0.0008491603821910428
6670.604313566317,-0.0008713492113472411
6670.60531333824,-0.0008941369173576014
6670.606313110163,-0.0009175193170582155
6670.607312882085,-0.0009414919227363875
6670.608312654008,-0.0009660499413721395
6670.6093124259305,-0.0009911882740522228
6670.610312197854,-0.0010169015155581788
6670.611311969777,-0.0010431839541298973
6670.612311741699,-0.0010700295714060424
6670.613311513622,-0.0010974320425426402
6670.614311285544,-0.0011253847365110515
6670.615311057467,-0.0011538807165764936
6670.61631082939,-0.0011829127409581852
6670.617310601313,-0.0012124732636721062
6670.618310373236,-0.0012425544355572462
6670.619310145158,-0.0012731481054860908
6670.620309917081,-0.0013042458217599477
6670.621309689004,-0.0013358388336895649
6670.622309460927,-0.0013679180933613374
6670.623309232849,-0.0014004742575892514
6670.624309004772,-0.001433497690052547
6670.625308776695,-0.0014669784636189267
6670.626308548618,-0.0015009063628529707
6670.627308320541,-0.0015352708867092525
6670.628308092463,-0.001570061251409495
6670.629307864386,-0.0016052663935029368
6670.630307636308,-0.001640874973108909
6670.631307408232,-0.0016768753773404388
6670.632307180154,-0.0017132557239074996
6670.633306952077,-0.00175000386489831
6670.634306724,-0.0017871073907368702
6670.635306495922,-0.0018245536343146906
6670.636306267845,-0.0018623296752944309
6670.637306039768,-0.0019004223445829246
6670.638305811691,-0.0019388182289708292
6670.639305583613,-0.0019775036759359095
6670.640305355536,-0.0020164647986067622
6670.6413051274585,-0.002055687480883593
6670.642304899382,-0.0020951573827125048
6670.643304671305,-0.002134859945509604
6670.644304443227,-0.002174780397731111
6670.64530421515,-0.00221490376058554
6670.646303987072,-0.002255214853883899
6670.647303758995,-0.002295698302023737
6670.648303530918,-0.002336338540102724
6670.649303302841,-0.0023771198201573184
6670.650303074764,-0.002418026217521947
6670.651302846686,-0.002459041637304034
6670.652302618609,-0.0025001498209701297
6670.653302390532,-0.0025413343530383287
6670.654302162455,-0.0025825786678721433
6670.655301934377,-0.0026238660565709323
6670.6563017063,-0.0026651796739519708
6670.657301478223,-0.0027065025456192012
6670.658301250146,-0.0027478175751136907
6670.659301022069,-0.0027891075511408303
6670.660300793991,-0.002830355154869336
6670.661300565914,-0.002871542967297155
6670.662300337836,-0.0029126534766794397
6670.66330010976,-0.002953669086013854
6670.664299881682,-0.0029945721205785294
6670.665299653605,-0.003035344835518094
6670.666299425528,-0.0030759694234732834
6670.66729919745,-0.003116428022249733
6670.668298969373,-0.003156702722521646
6670.669298741296,-0.003196775575566108
6670.670298513219,-0.003236628601023901
6670.671298285141,-0.003276243794682748
6670.672298057064,-0.003315603136278945
6670.6732978289865,-0.0033546885973133934
6670.67429760091,-0.0033934821488780863
6670.675297372833,-0.0034319657694891403
6670.676297144755,-0.0034701214529225125
6670.677296916678,-0.003507931216048579
6670.6782966886,-0.0035453771066617707
6670.679296460523,-0.00358244121130148
6670.680296232446,-0.0036191056630604586
6670.681296004369,-0.00365535264937693
6670.682295776292,-0.003691164419806624
6670.683295548214,-0.003726523293770916
6670.684295320137,-0.0037614116682772184
6670.68529509206,-0.0037958120256077117
6670.686294863983,-0.003829706940972449
6670.687294635905,-0.0038630790901228065
6670.688294407828,-0.0038959112569212054
6670.689294179751,-0.003928186340862987
6670.690293951674,-0.003959887364546331
6670.691293723597,-0.003990997481086089
6670.692293495519,-0.004021499981467464
6670.693293267442,-0.00405137830183552
6670.694293039364,-0.004080616030716594
6670.695292811288,-0.004109196916167812
6670.69629258321,-0.0041371048728510015
6670.697292355133,-0.004164323989027472
6670.698292127056,-0.004190838533470219
6670.699291898978,-0.004216632962290324
6670.700291670901,-0.004241691925674428
6670.701291442824,-0.00426600027453034
6670.702291214747,-0.00428954306703797
6670.703290986669,-0.004312305575102896
6670.704290758592,-0.004334273290709972
6670.7052905305145,-0.004355431932174397
6670.706290302438,-0.004375767450287648
6670.707290074361,-0.004395266034355671
6670.708289846283,-0.004413914118126571
6670.709289618206,-0.00443169838560503
6670.710289390128,-0.004448605776750535
6670.711289162052,-0.004464623493056418
6670.712288933974,-0.004479739003006637
6670.713288705897,-0.004493940047407175
6670.71428847782,-0.0045072146445889055
6670.715288249742,-0.004519551095478868
6670.716288021666,-0.004530937988536927
6670.717287793588,-0.004541364204554988
6670.718287565511,-0.004550818921316107
6670.719287337433,-0.004559291618111015
6670.720287109356,-0.004566772080109796
6670.721286881279,-0.004573250402586614
6670.722286653202,-0.004578716994995617
6670.723286425125,-0.004583162584896306
6670.724286197047,-0.004586578221726904
6670.72528596897,-0.004588955280424475
6670.726285740892,-0.004590285464890741
6670.727285512816,-0.0045905608113028015
6670.728285284738,-0.0045897736912681245
6670.729285056661,-0.004587916814823419
6670.730284828584,-0.004584983233277174
6670.731284600506,-0.004580966341895823
6670.732284372429,-0.004575859882433656
6670.733284144352,-0.004569657945506738
6670.734283916275,-0.004562354972811162
6670.735283688197,-0.004553945759186024
6670.73628346012,-0.004544425454521539
6670.7372832320425,-0.0045337895655126964
6670.738283003966,-0.004522033957258867
6670.739282775889,-0.004509154854709696
6670.740282547811,-0.0044951488439576226
6670.741282319734,-0.0044800128733772865
6670.742282091656,-0.004463744254612089
6670.74328186358,-0.004446340663408121
6670.744281635502,-0.004427800140295712
6670.745281407425,-0.004408121091118849
6670.746281179348,-0.0043873022874128
6670.74728095127,-0.004365342866630311
6670.748280723194,-0.004342242332216839
6670.749280495116,-0.0043180005535353476
6670.750280267039,-0.004292617765641266
6670.751280038961,-0.00426609456890827
6670.752279810884,-0.004238431928505601
6670.753279582807,-0.004209631173727661
6670.75427935473,-0.00417969399717663
6670.755279126653,-0.004148622453798893
6670.756278898575,-0.004116418959776028
6670.757278670498,-0.004083086291271163
6670.75827844242,-0.004048627583031517
6670.759278214344,-0.004013046326847999
6670.760277986266,-0.003976346369872818
6670.761277758189,-0.00393853191279616
6670.762277530112,-0.0038996075078831104
6670.763277302034,-0.003859578056872099
6670.764277073958,-0.003818448808736296
6670.76527684588,-0.0037762253573094804
6670.766276617803,-0.0037329136387780045
6670.767276389725,-0.0036885199290405952
6670.768276161648,-0.0036430508409377943
6670.769275933571,-0.0035965133213529546
6670.770275705494,-0.0035489146481867766
6670.771275477417,-0.0035002624272074635
6670.772275249339,-0.0034505645887786336
6670.773275021262,-0.003399829384467177
6670.774274793184,-0.003348065383533317
6670.775274565108,-0.0032952814693051826
6670.77627433703,-0.0032414868354402725
6670.777274108953,-0.003186690982076267
6670.778273880876,-0.0031309037118736724
6670.779273652798,-0.003074135125952858
6670.780273424722,-0.0030163956197281107
6670.781273196644,-0.002957695878641387
6670.782272968567,-0.0028980468737984915
6670.783272740489,-0.0028374598575104347
6670.784272512412,-0.0027759463587427257
6670.785272284335,-0.002713518178475347
6670.786272056258,-0.0026501873849761556
6670.787271828181,-0.002585966308990444
6670.788271600103,-0.002520867538849394
6670.789271372026,-0.002454903915500147
6670.790271143948,-0.00238808852746022
6670.791270915872,-0.002320434705698961
6670.792270687794,-0.0022519560184487263
6670.793270459717,-0.0021826662659484184
6670.79427023164,-0.0021125794751219776
6670.795270003562,-0.002041709894194366
6670.796269775486,-0.001970071987247559
6670.797269547408,-0.0018976804287190376
6670.798269319331,-0.00182455009784531
6670.799269091253,-0.001750696073053059
6670.800268863176,-0.0016761336263006054
6670.801268635099,-0.001600878217372516
6670.802268407022,-0.0015249454881302931
6670.803268178945,-0.0014483512567221783
6670.804267950867,-0.0013711115117551916
6670.80526772279,-0.0012932424064325903
6670.806267494712,-0.0012147602526600013
6670.807267266636,-0.0011356815151235104
6670.808267038558,-0.001056022805343022
6670.809266810481,-0.0009758008757041686
6670.810266582404,-0.0008950326134719969
6670.811266354326,-0.0008137350347895833
6670.81226612625,-0.0007319252786646495
6670.813265898172,-0.0006496206009471784
6670.814265670095,-0.0005668383683009567
6670.815265442017,-0.00048359605217189927
6670.81626521394,-0.00039991122275593357
6670.817264985863,-0.0003158015429691516
6670.818264757786,-0.0002312847624228665
6670.819264529709,-0.0001463787114061539
6670.820264301631,-6.110129487840389e-05
6670.821264073554,2.45295135256532e-05
6670.822263845476,0.00011049567747605645
6670.8232636174,0.00019677910391054673
6670.824263389322,0.0002833616489780846
6670.825263161245,0.00037022512396078187
6670.826262933168,0.0004573513011721335
6670.82726270509,0.0005447219198294884
6670.828262477014,0.0006323186918987502
6670.829262248936,0.0007201233079093431
6670.830262020859,0.0008081174427375112
6670.831261792781,0.0008962827613560492
6670.832261564704,0.00098460092454858
6670.833261336627,0.001073053594586504
6670.83426110855,0.001161622440866759
6670.835260880473,0.0012502891455085537
6670.836260652395,0.0013390354089072522
6670.837260424318,0.0014278429552436309
6670.83826019624,0.001516693537946765
6670.839259968164,0.0016055689451088615
6670.840259740086,0.0016944510048504315
6670.841259512009,0.001783321590634274
6670.842259283932,0.001872162626526836
6670.843259055854,0.001960956092405594
6670.844258827778,0.0020496840291111687
6670.8452585997,0.0021383285435429534
6670.846258371623,0.002226871813697042
6670.847258143545,0.002315296093645255
6670.848257915468,0.002403583718454013
6670.849257687391,0.002491717109041787
6670.850257459314,0.0025796787769737806
6670.851257231237,0.002667451329192474
6670.852257003159,0.0027550174726826355
6670.853256775082,0.0028423600190693593
6670.854256547005,0.002929461889147667
6670.855256318928,0.00301630611734217
6670.85625609085,0.0031028758560952556
6670.857255862773,0.0031891543801822408
6670.858255634696,0.0032751250909519194
6670.859255406618,0.003360771520490922
6670.860255178542,0.003446077335710313
6670.861254950464,0.003531026342352866
6670.862254722387,0.0036156024889194703
6670.863254494309,0.003699789870513206
6670.864254266232,0.0037835727325996834
6670.865254038155,0.0038669354746823756
6670.866253810078,0.00394986265389179
6670.867253582001,0.00403233898848748
6670.868253353923,0.004114349361272021
6670.869253125846,0.004195878822916178
6670.870252897768,0.004276912595194601
6670.871252669692,0.004357436074131416
6670.872252441614,0.004437434833055111
6670.873252213537,0.004516894625562152
6670.87425198546,0.004595801388388791
6670.875251757382,0.004674141244190505
6670.876251529306,0.004751900504228598
6670.877251301228,0.004829065670963493
6670.878251073151,0.00490562344055436
6670.879250845073,0.004981560705264756
6670.880250616996,0.0050568645557740426
6670.881250388919,0.005131522283394411
6670.882250160842,0.0052055213821934005
6670.883249932765,0.005278849551021882
6670.884249704687,0.005351494695447508
6670.88524947661,0.005423444929593642
6670.886249248533,0.0054946885778838165
6670.887249020456,0.005565214176691727
6670.888248792378,0.005635010475896752
6670.889248564301,0.005704066440344943
6670.890248336224,0.005772371251215375
6670.891248108146,0.005839914307291715
6670.89224788007,0.005906685226138785
6670.893247651992,0.005972673845183884
6670.894247423915,0.006037870222702587
6670.895247195837,0.006102264638708741
6670.89624696776,0.006165847595748391
6670.897246739683,0.00622860981959747
6670.898246511606,0.006290542259863126
6670.899246283529,0.006351636090488721
6670.900246055451,0.006411882710162632
6670.901245827374,0.006471273742631177
6670.902245599296,0.00652980103691609
6670.90324537122,0.006587456667437189
6670.904245143142,0.006644232934040986
6670.905244915065,0.00670012236193616
6670.906244686988,0.006755117701536911
6670.90724445891,0.006809211928215302
6670.908244230834,0.006862398241963784
6670.909244002756,0.0069146700669690695
6670.910243774679,0.006966021051098583
6670.911243546601,0.0070164450653006005
6670.912243318524,0.007065936202919215
6670.913243090447,0.007114488778925203
6670.91424286237,0.007162097329063882
6670.915242634293,0.007208756608921055
6670.916242406215,0.007254461592908189
6670.917242178138,0.007299207473167968
6670.918241950061,0.0073429896584014135
6670.919241721984,0.007385803772617784
6670.920241493906,0.007427645653808421
6670.921241265829,0.007468511352545771
6670.922241037752,0.0075083971305087375
6670.923240809674,0.007547299458935523
6670.924240581598,0.007585215017005121
6670.92524035352,0.007622140690148565
6670.926240125443,0.007658073568291051
6670.927239897365,0.007693010944026021
6670.928239669288,0.007726950310722316
6670.929239441211,0.007759889360565476
6670.930239213134,0.007791825982534272
6670.931238985057,0.007822758260313596
6670.932238756979,0.007852684470144844
6670.933238528902,0.007881603078615044
6670.934238300825,0.007909512740386091
6670.935238072748,0.007936412295865548
6670.93623784467,0.007962300768820723
6670.937237616593,0.007987177363937906
6670.938237388516,0.008011041464328841
6670.939237160439,0.008033892628986777
6670.940236932362,0.008055730590194592
6670.941236704284,0.008076555250887761
6670.942236476207,0.008096366681975112
6670.943236248129,0.008115165119620488
6670.944236020052,0.008132950962488625
6670.945235791975,0.008149724768958734
6670.946235563898,0.00816548725430937
6670.947235335821,0.008180239287878326
6670.948235107743,0.008193981890201305
6670.949234879666,0.0082067162301331
6670.950234651589,0.008218443621955056
6670.951234423512,0.008229165522472432
6670.952234195434,0.008238883528105163
6670.953233967357,0.008247599371975426
6670.95423373928,0.008255314920995247
6670.955233511202,0.008262032172957318
6670.956233283126,0.00826775325363205
6670.957233055048,0.008272480413873835
6670.958232826971,0.008276216026739388
6670.959232598893,0.008278962584621026
6670.960232370816,0.008280722696397647
6670.961232142739,0.008281499084606117
6670.962231914662,0.008281294582635743
6670.963231686585,0.008280112131948418
6670.964231458507,0.008277954779326947
6670.96523123043,0.008274825674153994
6670.966231002353,0.008270728065723964
6670.967230774276,0.008265665300590046
6670.968230546198,0.008259640819948469
6670.969230318121,0.008252658157061941
6670.970230090044,0.008244720934724134
6670.971229861967,0.008235832862766985
6670.97222963389,0.008225997735612531
6670.973229405812,0.00821521942987089
6670.974229177735,0.00820350190198588
6670.975228949657,0.008190849185929694
6670.97622872158,0.008177265390947834
6670.977228493503,0.008162754699355469
6670.978228265426,0.008147321364386149
6670.979228037349,0.008130969708093846
6670.980227809271,0.008113704119309118
6670.981227581194,0.008095529051650167
6670.982227353117,0.008076449021589521
6670.98322712504,0.008056468606576956
6670.984226896962,0.0080355924432192
6670.985226668885,0.00801382522551691
6670.986226440808,0.007991171703159303
6670.987226212731,0.007967636679876785
6670.988225984654,0.00794322501185175
6670.989225756576,0.00791794160618775
6670.990225528499,0.007891791419437062
6670.991225300421,0.00786477945618661
6670.992225072345,0.007836910767702128
6670.993224844267,0.007808190450630353
6670.99422461619,0.007778623645758987
6670.995224388113,0.007748215536834127
6670.996224160035,0.007716971349434808
6670.997223931958,0.007684896349904296
6670.998223703881,0.007651995844337772
6670.999223475804,0.007618275177626124
6671.000223247726,0.00758373973255555
6671.001223019649,0.007548394928962798
6671.002222791572,0.0075122462229458686
6671.003222563495,0.007475299106129992
6671.004222335418,0.0074375591049887085
6671.00522210734,0.0073990317802198205
6671.006221879263,0.0073597227261759345
6671.007221651185,0.00731963757034924
6671.008221423108,0.00727878197291009
6671.009221195031,0.007237161626298938
6671.010220966954,0.007194782254871117
6671.011220738877,0.007151649614593889
6671.012220510799,0.007107769492795216
6671.013220282722,0.007063147707963619
6671.014220054645,0.007017790109598506
6671.015219826568,0.0069717025781102495
6671.01621959849,0.006924891024769236
6671.017219370413,0.0068773613917030504
6671.018219142336,0.006829119651940847
6671.019218914259,0.006780171809503904
6671.020218686182,0.0067305238995412735
6671.021218458104,0.0066801819885094
6671.022218230027,0.0066291521743945805
6671.023218001949,0.006577440586977114
6671.024217773873,0.00652505338813602
6671.025217545795,0.006471996772193232
6671.026217317718,0.006418276966296189
6671.0272170896405,0.006363900230837817
6671.028216861563,0.006308872859912908
6671.029216633486,0.0062532011818099585
6671.030216405409,0.006196891559537617
6671.031216177332,0.006139950391384931
6671.032215949254,0.006082384111514649
6671.033215721177,0.006024199190588904
6671.0342154931,0.005965402136426662
6671.035215265023,0.005905999494692315
6671.036215036946,0.005845997849614824
6671.037214808868,0.0057854038247367725
6671.038214580791,0.0057242240836926205
6671.039214352713,0.005662465331015339
6671.040214124636,0.005600134312970473
6671.041213896559,0.0055372378184165485
6671.042213668482,0.005473782679690625
6671.0432134404045,0.00540977577351773
6671.044213212327,0.0053452240219428555
6671.04521298425,0.005280134393284098
6671.046212756173,0.005214513903105525
6671.047212528096,0.005148369615208302
6671.048212300018,0.005081708642638592
6671.049212071941,0.005014538148710747
6671.050211843864,0.004946865348044259
6671.051211615787,0.004878697507613018
6671.05221138771,0.004810041947805337
6671.053211159632,0.004740906043493319
6671.054210931555,0.004671297225110112
6671.055210703477,0.004601222979733712
6671.056210475401,0.004530690852176025
6671.057210247323,0.004459708446076029
6671.058210019246,0.00438828342499597
6671.0592097911685,0.004316423513519629
6671.060209563091,0.004244136498351806
6671.061209335014,0.0041714302294182165
6671.062209106937,0.004098312620965089
6671.06320887886,0.004024791652657798
6671.064208650782,0.003950875370677908
6671.065208422705,0.0038765718888180453
6671.066208194628,0.0038018893895740403
6671.067207966551,0.0037268361252337802
6671.068207738474,0.003651420418962191
6671.069207510396,0.003575650665881728
6671.070207282319,0.0034995353341476473
6671.071207054241,0.0034230829660172307
6671.072206826165,0.003346302178911981
6671.073206598087,0.0032692016664716246
6671.07420637001,0.00319179019959855
6671.0752061419325,0.00311407662749109
6671.076205913855,0.0030360698786638662
6671.077205685779,0.0029577789619531863
6671.078205457701,0.0028792129675052893
6671.079205229624,0.002800381067745017
6671.080205001546,0.002721292518322288
6671.081204773469,0.002641956659033567
6671.082204545392,0.002562382914715334
6671.083204317315,0.0024825807961064393
6671.084204089238,0.002402559900676069
6671.08520386116,0.002322329913413979
6671.086203633083,0.0022419006075795342
6671.087203405005,0.0021612818454060474
6671.088203176929,0.002080483578756858
6671.089202948851,0.0019995158497295744
6671.090202720774,0.0019183887912049167
6671.0912024926965,0.001837112627336629
6671.092202264619,0.0017556976739789565
6671.093202036542,0.0016741543390482688
6671.094201808465,0.0015924931228154734
6671.095201580388,0.001510724618125949
6671.09620135231,0.0014288595105438181
6671.097201124233,0.0013469085784174684
6671.098200896156,0.001264882692863299
6671.099200668079,0.0011827928176647371
6671.100200440002,0.0011006500090836287
6671.101200211924,0.0010184654155811666
6671.102199983847,0.0009362502774455941
6671.103199755769,0.0008540159263240055
6671.104199527693,0.0007717737846556647
6671.105199299615,0.0006895353650043811
6671.106199071538,0.0006073122692876107
6671.1071988434605,0.0005251161879000857
6671.108198615383,0.00044295889872993354
6671.109198387307,0.00036085226606540185
6671.110198159229,0.00027880823939048884
6671.111197931152,0.00019683885206795302
6671.112197703074,0.00011495621990835479
6671.113197474997,3.317253962394313e-05
6671.11419724692,-4.849991283365133e-05
6671.115197018843,-0.0001300487840528231
6671.116196790766,-0.0002114616450592723
6671.117196562688,-0.00029272599333178984
6671.118196334611,-0.00037382925493701784
6671.119196106533,-0.0004547587867834738
6671.120195878457,-0.0005355018789949326
6671.121195650379,-0.0006160457574030591
6671.122195422302,-0.0006963775861589931
6671.1231951942245,-0.0007764844704634126
6671.124194966147,-0.0008563534594144461
6671.125194738071,-0.0009359715489726683
6671.126194509993,-0.0010153256850422901
6671.127194281916,-0.0010944027666675506
6671.128194053838,-0.001173189649343234
6671.129193825761,-0.0012516731484381691
6671.130193597684,-0.0013298400427305109
6671.131193369607,-0.0014076770780535458
6671.13219314153,-0.001485170971050711
6671.133192913452,-0.0015623084130384575
6671.134192685375,-0.0016390760739755281
6671.135192457297,-0.0017154606065371476
6671.136192229221,-0.0017914486502925266
6671.137192001143,-0.0018670268359839933
6671.138191773066,-0.001942181789905958
6671.1391915449885,-0.0020169001383818193
6671.140191316911,-0.002091168512336856
6671.141191088835,-0.002164973551965087
6671.142190860757,-0.002238301911488024
6671.14319063268,-0.0023111402640032153
6671.144190404602,-0.0023834753064204068
6671.145190176525,-0.002455293764483096
6671.146189948448,-0.0025265823978731497
6671.147189720371,-0.0025973280053960593
6671.148189492294,-0.0026675174302442845
6671.149189264216,-0.0027371375653359887
6671.150189036139,-0.002806175358726332
6671.151188808061,-0.0028746178190883357
6671.152188579985,-0.002942452021260197
6671.153188351907,-0.00300966511185582
6671.15418812383,-0.0030762443149352343
6671.1551878957525,-0.00314217693773147
6671.156187667675,-0.003207450376430395
6671.157187439599,-0.0032720521219999454
6671.158187211521,-0.003335969766065172
6671.159186983444,-0.003399191006825478
6671.160186755366,-0.003461703655010439
6671.161186527289,-0.0035234956398705734
6671.162186299212,-0.0035845550151994312
6671.163186071135,-0.0036448699653833195
6671.164185843058,-0.003704428811474909
6671.16518561498,-0.0037632200172868628
6671.166185386903,-0.0038212321955014847
6671.167185158825,-0.0038784541137922286
6671.168184930749,-0.003934874700952789
6671.169184702671,-0.00399048305302932
6671.170184474594,-0.004045268439451207
6671.1711842465165,-0.004099220309155707
6671.172184018439,-0.004152328296701647
6671.173183790363,-0.004204582228367258
6671.174183562285,-0.004255972128227144
6671.175183334208,-0.0043064882242032695
6671.17618310613,-0.004356120954084771
6671.177182878053,-0.004404860971511308
6671.178182649976,-0.004452699151914536
6671.179182421899,-0.004499626598412172
6671.180182193822,-0.004545634647649006
6671.181181965744,-0.004590714875579069
6671.182181737667,-0.004634859103183063
6671.183181509589,-0.00467805940211505
6671.184181281513,-0.0047203081002723125
6671.185181053435,-0.004761597787282187
6671.186180825358,-0.004801921319899584
6671.1871805972805,-0.00484127182730882
6671.188180369203,-0.0048796427163232585
6671.189180141127,-0.004917027676476203
6671.190179913049,-0.004953420684996376
6671.191179684972,-0.0049888160116612615
6671.192179456894,-0.0050232082235215315
6671.193179228817,-0.00505659218948973
6671.19417900074,-0.005088963084786376
6671.195178772663,-0.005120316395236629
6671.196178544586,-0.00515064792141062
6671.197178316508,-0.005179953782600575
6671.198178088431,-0.005208230420627767
6671.199177860353,-0.0052354746034723254
6671.200177632277,-0.005261683428718852
6671.201177404199,-0.005286854326810744
6671.202177176122,-0.00531098506410602
6671.2031769480445,-0.005334073745727392
6671.204176719967,-0.005356118818199256
6671.205176491891,-0.005377119071864223
6671.206176263813,-0.005397073643071808
6671.207176035736,-0.0054159820161318786
6671.208175807658,-0.00543384402502558
6671.209175579581,-0.00545065985486648
6671.210175351504,-0.005466430043104839
6671.211175123427,-0.005481155480468154
6671.21217489535,-0.005494837411631317
6671.213174667272,-0.0055074774356100665
6671.214174439195,-0.005519077505871702
6671.215174211118,-0.005529639930157391
6671.216173983041,-0.005539167370010702
6671.217173754963,-0.005547662840007461
6671.218173526886,-0.005555129706682368
6671.2191732988085,-0.005561571687148297
6671.220173070731,-0.00556699284740467
6671.221172842655,-0.005571397600331822
6671.222172614577,-0.0055747907033688515
6671.2231723865,-0.005577177255872965
6671.224172158422,-0.005578562696158936
6671.225171930345,-0.0055789527982178224
6671.226171702268,-0.005578353668114601
6671.227171474191,-0.00557677174006489
6671.228171246114,-0.005574213772191471
6671.229171018036,-0.005570686841961846
6671.230170789959,-0.005566198341308602
6671.231170561881,-0.00556075597143505
6671.232170333805,-0.005554367737309231
6671.233170105727,-0.005547041941850141
6671.23416987765,-0.005538787179810832
6671.2351696495725,-0.005529612331363859
6671.236169421495,-0.005519526555395401
6671.237169193419,-0.005508539282515286
6671.238168965341,-0.005496660207791128
6671.239168737264,-0.00548389928321575
6671.240168509186,-0.005470266709918208
6671.241168281109,-0.005455772930129846
6671.242168053032,-0.005440428618918041
6671.243167824955,-0.00542424467570157
6671.244167596878,-0.005407232215562728
6671.2451673688,-0.005389402560372606
6671.246167140723,-0.005370767229746988
6671.247166912646,-0.005351337931851277
6671.248166684569,-0.005331126554073675
6671.249166456491,-0.005310145153586469
6671.250166228414,-0.00528840594781569
6671.2511660003365,-0.005265921304839787
6671.252165772259,-0.005242703733738054
6671.253165544183,-0.005218765874909615
6671.254165316105,-0.00519412049038355
6671.255165088028,-0.005168780454140572
6671.25616485995,-0.005142758742466205
6671.257164631873,-0.005116068424354956
6671.258164403796,-0.005088722651984363
6671.259164175719,-0.005060734651277048
6671.260163947642,-0.005032117712568089
6671.261163719564,-0.005002885181394068
6671.262163491487,-0.004973050449419175
6671.263163263409,-0.0049426269455127006
6671.264163035333,-0.004911628126991155
6671.265162807255,-0.004880067471037157
6671.266162579178,-0.004847958466306073
6671.2671623511005,-0.004815314604730262
6671.268162123023,-0.004782149373529635
6671.269161894947,-0.004748476247436107
6671.270161666869,-0.004714308681138424
6671.271161438792,-0.00467966010195272
6671.272161210714,-0.004644543902723162
6671.273160982637,-0.004608973434956008
6671.27416075456,-0.004572962002189505
6671.275160526483,-0.004536522853601187
6671.276160298406,-0.004499669177853381
6671.277160070328,-0.004462414097176995
6671.278159842251,-0.004424770661693078
6671.279159614174,-0.004386751843971026
6671.280159386097,-0.004348370533821867
6671.281159158019,-0.004309639533324544
6671.282158929942,-0.004270571552082789
6671.2831587018645,-0.004231179202709789
6671.284158473787,-0.0041914749965376
6671.285158245711,-0.004151471339547991
6671.286158017633,-0.004111180528521217
6671.287157789556,-0.004070614747399084
6671.288157561478,-0.004029786063858516
6671.289157333401,-0.003988706426091818
6671.290157105324,-0.003947387659789696
6671.291156877247,-0.003905841465323096
6671.29215664917,-0.0038640794151198333
6671.293156421092,-0.0038221129512319473
6671.294156193015,-0.003779953383089666
6671.295155964938,-0.003737611885437792
6671.296155736861,-0.003695099496450261
6671.297155508783,-0.003652427116018557
6671.298155280706,-0.0036096055042095896
6671.2991550526285,-0.003566645279888571
6671.300154824552,-0.0035235569195023694
6671.301154596475,-0.0034803507560187976
6671.302154368397,-0.003437036978017252
6671.30315414032,-0.003393625628926117
6671.304153912242,-0.003350126606402359
6671.305153684165,-0.003306549661848782
6671.306153456088,-0.0032629044000644734
6671.307153228011,-0.003219200279024072
6671.308152999934,-0.0031754466097815826
6671.309152771856,-0.0031316525564945353
6671.310152543779,-0.0030878271365643996
6671.311152315702,-0.0030439792208892323
6671.312152087625,-0.0030001175342246156
6671.313151859547,-0.0029562506556490135
6671.31415163147,-0.002912387019129755
6671.3151514033925,-0.002868534914185907
6671.316151175315,-0.002824702486644396
6671.317150947239,-0.0027808977394858142
6671.318150719161,-0.0027371285337764143
6671.319150491084,-0.0026934025896828903
6671.320150263006,-0.002649727487566588
6671.321150034929,-0.0026061106691538495
6671.322149806852,-0.0025625594387792775
6671.323149578775,-0.002519080964698714
6671.324149350698,-0.0024756822804687844
6671.32514912262,-0.00243237028638984
6671.326148894543,-0.0023891517510091277
6671.327148666466,-0.002346033312681017
6671.328148438389,-0.002303021481181119
6671.329148210311,-0.0022601226393711917
6671.330147982234,-0.0022173430449117775
6671.3311477541565,-0.002174688832019614
6671.33214752608,-0.0021321660132669566
6671.333147298003,-0.0020897804814200504
6671.334147069925,-0.0020475380113140567
6671.335146841848,-0.002005444261761845
6671.33614661377,-0.0019635047774941316
6671.337146385693,-0.0019217249911285246
6671.338146157616,-0.0018801102251651235
6671.339145929539,-0.001838665694006363
6671.340145701462,-0.0017973965059988803
6671.341145473384,-0.0017563076654951981
6671.342145245307,-0.0017154040749330654
6671.34314501723,-0.001674690536930318
6671.344144789153,-0.0016341717563931346
6671.345144561075,-0.0015938523426355844
6671.346144332998,-0.0015537368115083805
6671.3471441049205,-0.0015138295875347738
6671.348143876844,-0.0014741350060515452
6671.349143648767,-0.0014346573153530744
6671.350143420689,-0.0013954006788364922
6671.351143192612,-0.0013563691771459367
6671.352142964534,-0.0013175668103139618
6671.353142736458,-0.0012789974998981722
6671.35414250838,-0.0012406650911111969
6671.355142280303,-0.0012025733549421642
6671.356142052226,-0.0011647259902679036
6671.357141824148,-0.0011271266259521816
6671.358141596071,-0.0010897788229313537
6671.359141367994,-0.0010526860762849093
6671.360141139917,-0.0010158518172894582
6671.361140911839,-0.0009792794154547834
6671.362140683762,-0.0009429721805406301
6671.3631404556845,-0.0009069333645529433
6671.364140227608,-0.0008711661637182743
6671.365139999531,-0.0008356737204350731
6671.366139771453,-0.0008004591252005589
6671.367139543376,-0.0007655254185118129
6671.368139315298,-0.0007308755927396845
6671.369139087221,-0.000696512593974031
6671.370138859144,-0.0006624393238387473
6671.371138631067,-0.0006286586412749814
6671.37213840299,-0.0005951733642908898
6671.373138174912,-0.0005619862716762481
6671.374137946835,-0.0005291001046801969
6671.375137718758,-0.0004965175686503676
6671.376137490681,-0.00046424133463158975
6671.377137262603,-0.00043227404092234056
6671.378137034526,-0.00040061829458705277
6671.3791368064485,-0.00036927667292237926
6671.380136578372,-0.000338251724875514
6671.381136350295,-0.00030754597241272125
6671.382136122217,-0.00027716191183631826
6671.38313589414,-0.0002471020150484843
6671.384135666062,-0.00021736873076041595
6671.385135437986,-0.00018796448564550544
6671.386135209908,-0.0001588916854353704
6671.387134981831,-0.0001301527159577133
6671.388134753754,-0.0001017499441151311
6671.389134525676,-7.368571880413542e-05
6671.390134297599,-4.596237177378248e-05
6671.391134069522,-1.858221842344986e-05
6671.392133841445,8.452441460562577e-06
6671.393133613367,3.513932302979169e-05
6671.39413338529,6.147615575978165e-05
6671.3951331572125,8.746068289759944e-05
6671.396132929136,0.00011309066097053356
6671.397132701059,0.00013836385935575405
6671.398132472981,0.00016327805991069223
6671.399132244904,0.0001878310566639212
6671.400132016826,0.0002120206555663727
6671.401131788749,0.000235844674302799
6671.402131560672,0.0002593009421634729
6671.403131332595,0.00028238729997620365
6671.404131104518,0.0003051016000988341
6671.40513087644,0.000327441706472466
6671.406130648363,0.00034940549473573475
6671.407130420286,0.00037099085240050513
6671.408130192209,0.0003921956790893795
6671.409129964131,0.0004130178868353823
6671.410129736054,0.0004334554004441266
6671.4111295079765,0.00045350615791867635
6671.4121292799,0.0004731681109472247
6671.413129051823,0.000492439225453619
6671.414128823745,0.000511317482210695
6671.415128595668,0.0005298008775163362
6671.41612836759,0.0005478874239321277
6671.417128139514,0.0005655751510844319
6671.418127911436,0.0005828621065276485
6671.419127683359,0.0005997463566693656
6671.4201274552815,0.0006162259877570401
6671.421127227204,0.0006322991069257921
6671.422126999127,0.0006479638433068404
6671.42312677105,0.0006632183491960496
6671.424126542973,0.0006780608012820009
6671.425126314895,0.0006924894019329139
6671.426126086818,0.0007065023805416537
6671.4271258587405,0.0007200979949279415
6671.428125630664,0.0007332745327967687
6671.429125402587,0.0007460303132518885
6671.430125174509,0.000758363688363154
6671.431124946432,0.0007702730447863513
6671.432124718354,0.000781756805434059
6671.433124490278,0.0007928134311959415
6671.4341242622,0.0008034414227067601
6671.435124034123,0.0008136393221602671
6671.4361238060455,0.0008234057151670527
6671.437123577968,0.0008327392326543407
6671.438123349892,0.0008416385528056755
6671.439123121814,0.000850102403038413
6671.440122893737,0.0008581295620169171
6671.441122665659,0.0008657188616993656
6671.442122437582,0.0008728691894160705
6671.4431222095045,0.0008795794899772114
6671.444121981428,0.0008858487678078682
6671.445121753351,0.0008916760891082005
6671.446121525273,0.0008970605840365795
6671.447121297196,0.0009020014489134257
6671.448121069118,0.0009064979484434572
6671.449120841042,0.0009105494179540116
6671.450120612964,0.000914155265647077
6671.451120384887,0.000917314974862638
6671.4521201568095,0.0009200281063509194
6671.453119928732,0.0009222943005510822
6671.454119700655,0.0009241132798739057
6671.455119472578,0.0009254848509859597
6671.456119244501,0.0009264089070927404
6671.457119016423,0.0009268854302181996
6671.458118788346,0.0009269144934780544
6671.4591185602685,0.0009264962633442162
6671.460118332192,0.0009256310018976434
6671.461118104115,0.0009243190690668875
6671.462117876037,0.0009225609248495792
6671.46311764796,0.0009203571315140901
6671.464117419882,0.0009177083557785998
6671.465117191806,0.0009146153709648032
6671.466116963728,0.000911079059123494
6671.467116735651,0.0009071004131292422
6671.4681165075735,0.0009026805387413441
6671.469116279496,0.0008978206566281696
6671.47011605142,0.000892522104351959
6671.471115823342,0.0008867863383110517
6671.472115595265,0.0008806149356364612
6671.473115367187,0.0008740095960396505
6671.47411513911,0.000866972143608328
6671.4751149110325,0.0008595045285470726
6671.476114682956,0.0008516088288596158
6671.477114454879,0.0008432872519696416
6671.478114226801,0.0008345421362770226
6671.479113998724,0.0008253759526464731
6671.480113770646,0.0008157913058256804
6671.48111354257,0.0008057909357900638
6671.482113314492,0.0007953777190114103
6671.483113086415,0.000784554669647732
6671.4841128583375,0.000773324940651795
6671.48511263026,0.0007616918247958669
6671.486112402184,0.0007496587556103428
6671.487112174106,0.0007372293082340233
6671.488111946029,0.0007244072001739491
6671.489111717951,0.0007111962919728274
6671.490111489874,0.0006976005877822179
6671.491111261797,0.0006836242358397801
6671.49211103372,0.0006692715288490121
6671.493110805643,0.0006545469042600226
6671.494110577565,0.0006394549444499727
6671.495110349488,0.0006240003768019021
6671.49611012141,0.0006081880736807283
6671.497109893334,0.000592023052305291
6671.498109665256,0.0005755104745154165
6671.499109437179,0.0005586556464330911
6671.5001092091015,0.0005414640180169462
6671.501108981024,0.0005239411825093826
6671.502108752948,0.0005060928757757661
6671.50310852487,0.00048792497553524377
6671.504108296793,0.00046944350048283334
6671.505108068715,0.00045065460930255555
6671.506107840638,0.0004315645995714882
6671.5071076125605,0.0004121799065547387
6671.508107384484,0.0003925071018914438
6671.509107156407,0.0003725528921720221
6671.510106928329,0.00035232411740702014
6671.511106700252,0.0003318277493880244
6671.512106472174,0.0003110708899412637
6671.513106244098,0.0002900607690747129
6671.51410601602,0.0002688047430197223
6671.515105787943,0.00024731029216843885
6671.5161055598655,0.00022558501890854163
6671.517105331788,0.00020363664535707988
6671.518105103712,0.00018147301099547683
6671.519104875634,0.00015910207020804513
6671.520104647557,0.0001365318897266519
6671.521104419479,0.00011377064598445827
6671.522104191402,9.082662238191285e-05
6671.523103963325,6.770820646837424e-05
6671.524103735248,4.442388704286297e-05
6671.525103507171,2.0982251177506064e-05
6671.526103279093,-2.6080188327443437e-06
6671.527103051016,-2.633814859054658e-05
6671.528102822938,-5.0199274783216836e-05
6671.529102594862,-7.418244843288722e-05
6671.530102366784,-9.827863820631856e-05
6671.531102138707,-0.0001224787337809554
6671.5321019106295,-0.00014677354926384832
6671.533101682552,-0.00017115382666010382
6671.534101454476,-0.00019561023938756
6671.535101226398,-0.0002201333958344264
6671.536100998321,-0.0002447138429566713
6671.537100770243,-0.00026934206991198175
6671.538100542166,-0.00029400851172716293
6671.5391003140885,-0.00031870355299588215
6671.540100086012,-0.0003434175316037041
6671.541099857935,-0.0003681407424774061
6671.542099629857,-0.00039286344135561045
6671.54309940178,-0.00041757584857782167
6671.544099173702,-0.0004422681528890187
6671.545098945626,-0.0004669305152570147
6671.546098717548,-0.0004915530726998703
6671.547098489471,-0.0005161259421207232
6671.5480982613935,-0.000540639224147476
6671.549098033316,-0.0005650830069748654
6671.55009780524,-0.0005894473702065267
6671.551097577162,-0.0006137223886947378
6671.552097349085,-0.0006378981363756064
6671.553097121007,-0.0006619646900975186
6671.55409689293,-0.0006859121334407236
6671.555096664853,-0.0007097305605259661
6671.556096436776,-0.0007334100798101252
6671.557096208699,-0.000756940817866852
6671.558095980621,-0.0007803129231502472
6671.559095752544,-0.0008035165697396554
6671.560095524466,-0.0008265419610636991
6671.56109529639,-0.0008493793336017197
6671.562095068312,-0.0008720189605608442
6671.563094840235,-0.0008944511555269434
6671.5640946121575,-0.0009166662760878118
6671.56509438408,-0.0009386547274269468
6671.566094156004,-0.000960406965886369
6671.567093927926,-0.0009819135024969738
6671.568093699849,-0.001003164906474959
6671.569093471771,-0.0010241518086829193
6671.570093243694,-0.0010448649050542476
6671.571093015617,-0.0010652949599795317
6671.57209278754,-0.001085432809653674
6671.573092559463,-0.0011052693653825197
6671.574092331385,-0.0011247956168478027
6671.575092103308,-0.0011440026353292808
6671.576091875231,-0.001162881576882958
6671.577091647154,-0.0011814236854743513
6671.578091419076,-0.001199620296065804
6671.579091190999,-0.0012174628376568947
6671.5800909629215,-0.0012349428362770434
6671.581090734844,-0.0012520519179294689
6671.582090506768,-0.0012687818114857055
6671.58309027869,-0.001285124351529965
6671.584090050613,-0.0013010714811527051
6671.585089822535,-0.0013166152546928572
6671.586089594458,-0.0013317478404282267
6671.587089366381,-0.0013464615232136425
6671.588089138304,-0.00136074870706647
6671.589088910227,-0.0013746019176991402
6671.590088682149,-0.0013880138049983885
6671.591088454072,-0.0014009771454509283
6671.592088225994,-0.0014134848445153255
6671.593087997918,-0.0014255299389398723
6671.59408776984,-0.0014371055990262899
6671.595087541763,-0.0014482051308391233
6671.5960873136855,-0.001458821978360718
6671.597087085608,-0.001468949725591724
6671.598086857532,-0.001478582098597098
6671.599086629454,-0.0014877129674976076
6671.600086401377,-0.0014963363484068607
6671.601086173299,-0.0015044464053138818
6671.602085945222,-0.001512037451911242
6671.603085717145,-0.0015191039533687374
6671.604085489068,-0.0015256405280526034
6671.605085260991,-0.0015316419491902484
6671.606085032913,-0.0015371031464804872
6671.607084804836,-0.0015420192076492417
6671.608084576759,-0.0015463853799506674
6671.609084348682,-0.0015501970716136437
6671.610084120604,-0.001553449853233558
6671.611083892527,-0.0015561394591093087
6671.6120836644495,-0.001558261788525437
6671.613083436372,-0.0015598129069792788
6671.614083208296,-0.0015607890473530017
6671.615082980218,-0.0015611866110303576
6671.616082752141,-0.0015610021689579574
6671.617082524063,-0.0015602324626508763
6671.618082295986,-0.0015588744051424235
6671.619082067909,-0.0015569250818779489
6671.620081839832,-0.0015543817515526416
6671.621081611755,-0.0015512418468933563
6671.622081383677,-0.0015475029753845928
6671.6230811556,-0.0015431629199388335
6671.624080927522,-0.0015382196395115012
6671.625080699446,-0.0015326712696608243
6671.626080471368,-0.0015265161230529017
6671.627080243291,-0.001519752689912259
6671.6280800152135,-0.0015123796384181533
6671.629079787136,-0.0015043958150468546
6671.63007955906,-0.0014958002448600654
6671.631079330982,-0.0014865921317396033
6671.632079102905,-0.0014767708585684196
6671.633078874827,-0.001466335987358004
6671.63407864675,-0.0014552872593222035
6671.635078418673,-0.0014436245948974858
6671.636078190596,-0.0014313480937096846
6671.637077962519,-0.0014184580344872714
6671.638077734441,-0.0014049548749211912
6671.639077506364,-0.0013908392514712805
6671.640077278287,-0.0013761119791192253
6671.64107705021,-0.0013607740510679408
6671.642076822132,-0.0013448266383871514
6671.643076594055,-0.0013282710896048216
6671.6440763659775,-0.0013111089302439735
6671.6450761379,-0.0012933418623043117
6671.646075909824,-0.0012749717636880095
6671.647075681746,-0.001256000687568985
6671.648075453669,-0.0012364308617050352
6671.649075225591,-0.0012162646876922604
6671.650074997514,-0.001195504740161285
6671.651074769437,-0.001174153765914845
6671.65207454136,-0.0011522146830063751
6671.653074313283,-0.0011296905797592656
6671.654074085205,-0.0011065847137265192
6671.655073857128,-0.0010829005105906027
6671.656073629051,-0.0010586415630033847
6671.657073400974,-0.0010338116293661618
6671.658073172896,-0.001008414632549916
6671.659072944819,-0.0009824546585560786
6671.6600727167415,-0.0009559359551182046
6671.661072488665,-0.0009288629302450924
6671.662072260588,-0.0009012401507059866
6671.66307203251,-0.000873072340458608
6671.664071804433,-0.0008443643790208366
6671.665071576355,-0.000815121299786934
6671.666071348278,-0.0007853482882892342
6671.667071120201,-0.0007550506804062591
6671.668070892124,-0.0007242339605182327
6671.669070664047,-0.0006929037596109941
6671.670070435969,-0.0006610658533293314
6671.671070207892,-0.0006287261599807935
6671.672069979815,-0.0005958907384910773
6671.673069751738,-0.0005625657863121278
6671.67406952366,-0.0005287576372841473
6671.675069295583,-0.0004944727594527685
6671.6760690675055,-0.0004597177528427246
6671.677068839428,-0.00042449934718942055
6671.678068611352,-0.0003888243996299009
6671.679068383274,-0.00035269989235478213
6671.680068155197,-0.0003161329302227814
6671.681067927119,-0.0002791307383395268
6671.682067699042,-0.0002417006596023614
6671.683067470965,-0.00020385015221286503
6671.684067242888,-0.00016558678715880776
6671.685067014811,-0.00012691824566722325
6671.686066786733,-8.78523166302613e-05
6671.687066558656,-4.839689400545416e-05
6671.688066330579,-8.559974192022733e-06
6671.689066102502,3.165034661514082e-05
6671.690065874424,7.22258750921576e-05
6671.691065646347,0.00011315832347183812
6671.6920654182695,0.00015443931224666557
6671.693065190193,0.00019606037288740343
6671.694064962116,0.00023801295057565585
6671.695064734038,0.0002802884069487297
6671.696064505961,0.0003228780228551793
6671.697064277883,0.000365773001119462
6671.698064049806,0.0004089644693141964
6671.699063821729,0.0004524434825385883
6671.700063593652,0.0004962010262016684
6671.701063365575,0.0005402280188090546
6671.702063137497,0.000584515314752013
6671.70306290942,0.000629053707097627
6671.704062681343,0.0006738339303789095
6671.705062453266,0.0007188466633837002
6671.706062225188,0.000764082531941195
6671.707061997111,0.0008095321117049641
6671.7080617690335,0.0008551859309313134
6671.709061540957,0.0009010344732518578
6671.71006131288,0.0009470681804391745
6671.711061084802,0.0009932774551644026
6671.712060856725,0.001039652663745646
6671.713060628647,0.0010861841388860223
6671.714060400571,0.0011328621824001957
6671.715060172493,0.001179677067928222
6671.716059944416,0.0012266190436355366
6671.717059716339,0.0012736783348979216
6671.718059488261,0.00132084514697028
6671.719059260184,0.001368109667638052
6671.720059032107,0.0014154620698500963
6671.72105880403,0.0014628925143318704
6671.722058575952,0.0015103911521777418
6671.723058347875,0.0015579481274212849
6671.7240581197975,0.0016055535795824413
6671.725057891721,0.0016531976461904648
6671.726057663644,0.001700870465281619
6671.727057435566,0.0017485621778706513
6671.728057207489,0.001796262930395131
6671.729056979411,0.0018439628771318034
6671.730056751334,0.001891652182584205
6671.731056523257,0.0019393210238408643
6671.73205629518,0.0019869595929035075
6671.733056067103,0.0020345580989847623
6671.734055839025,0.0020821067707748617
6671.735055610948,0.002129595858676851
6671.736055382871,0.0021770156370097718
6671.737055154794,0.002224356406179245
6671.738054926716,0.0022716084948148467
6671.739054698639,0.00231876226187366
6671.7400544705615,0.002365808098709388
6671.741054242485,0.002412736431106424
6671.742054014408,0.00245953772127831
6671.74305378633,0.0025062024698300164
6671.744053558253,0.002552721217683519
6671.745053330175,0.0025990845479661605
6671.746053102099,0.0026452830878612955
6671.747052874021,0.0026913075104207456
6671.748052645944,0.002737148536338589
6671.749052417867,0.002782796935685829
6671.750052189789,0.0028282435296054843
6671.751051961712,0.0028734791919676757
6671.752051733635,0.0029184948509842668
6671.753051505558,0.0029632814907826497
6671.75405127748,0.003007830152938274
6671.755051049403,0.003052131937965555
6671.7560508213255,0.0030961780067668217
6671.757050593249,0.003139959582039024
6671.758050365172,0.00318346794963798
6671.759050137094,0.0032266944599000117
6671.760049909017,0.0032696305289209044
6671.761049680939,0.0033122676397921874
6671.762049452862,0.0033545973437948268
6671.763049224785,0.003396611261550519
6671.764048996708,0.0034383010841308494
6671.765048768631,0.0034796585741246966
6671.766048540553,0.003520675566664331
6671.767048312476,0.003561343970410749
6671.768048084399,0.0036016557684988414
6671.769047856322,0.0036416030194430593
6671.770047628244,0.0036811778580042686
6671.771047400167,0.003720372496018504
6671.7720471720895,0.0037591792231883307
6671.773046944013,0.003797590407837522
6671.774046715936,0.003835598497629767
6671.775046487858,0.003873196020252117
6671.776046259781,0.003910375584063896
6671.777046031703,0.00394712987871181
6671.778045803627,0.0039834516757119775
6671.779045575549,0.004019333828999614
6671.780045347472,0.0040547692754470625
6671.781045119395,0.004089751035350863
6671.782044891317,0.004124272212888503
6671.78304466324,0.004158325996545519
6671.784044435163,0.0041919056595135845
6671.785044207086,0.004225004560060228
6671.786043979008,0.0042576161418707995
6671.787043750931,0.0042897339343633285
6671.7880435228535,0.004321351552976922
6671.789043294777,0.0043524626994343365
6671.7900430667,0.00438306116197935
6671.791042838622,0.004413140815589563
6671.792042610545,0.004442695622165171
6671.793042382467,0.004471719630694194
6671.794042154391,0.004500206977394589
6671.795041926313,0.004528151885833601
6671.796041698236,0.004555548667024625
6671.797041470159,0.004582391719501826
6671.798041242081,0.004608675529372686
6671.799041014005,0.0046343946703486525
6671.800040785927,0.004659543803754072
6671.80104055785,0.004684117678513638
6671.802040329772,0.004708111131118642
6671.803040101695,0.004731519085572424
6671.8040398736175,0.004754336553315466
6671.805039645541,0.0047765586331306
6671.806039417464,0.004798180511028871
6671.807039189386,0.004819197460116572
6671.808038961309,0.004839604840443999
6671.809038733231,0.0048593980988364755
6671.810038505155,0.004878572768708233
6671.811038277077,0.004897124469859743
6671.812038049,0.004915048908259134
6671.813037820923,0.004932341875808378
6671.814037592845,0.004948999250095011
6671.815037364768,0.0049650169941302235
6671.816037136691,0.004980391156074328
6671.817036908614,0.004995117868950718
6671.818036680536,0.005009193350349627
6671.819036452459,0.005022613902123174
6671.8200362243815,0.0050353759100733725
6671.821035996305,0.005047475843634952
6671.822035768228,0.005058910255554964
6671.82303554015,0.005069675781571195
6671.824035312073,0.005079769140091387
6671.825035083995,0.005089187131875207
6671.826034855919,0.005097926639720758
6671.827034627841,0.005105984628157285
6671.828034399764,0.0051133581431455685
6671.829034171687,0.005120044311787351
6671.830033943609,0.005126040342044975
6671.831033715533,0.005131343522472302
6671.832033487455,0.005135951221957848
6671.833033259378,0.00513986088948096
6671.8340330313,0.005143070053881828
6671.835032803223,0.005145576323646032
6671.8360325751455,0.0051473773867043125
6671.837032347069,0.005148471010248225
6671.838032118992,0.0051488550405622835
6671.839031890914,0.005148527402873214
6671.840031662837,0.005147486101216891
6671.841031434759,0.00514572921832354
6671.842031206683,0.005143254915521725
6671.843030978605,0.005140061432661685
6671.844030750528,0.0051361470880584735
6671.8450305224505,0.005131510278455387
6671.846030294373,0.005126149479008063
6671.847030066297,0.0051200632432896334
6671.848029838219,0.0051132502033172066
6671.849029610142,0.005105709069599959
6671.850029382064,0.0050974386312090175
6671.851029153987,0.0050884377558692885
6671.85202892591,0.005078705390073357
6671.853028697833,0.005068240559217501
6671.854028469756,0.005057042367759888
6671.855028241678,0.005045109999400912
6671.856028013601,0.005032442717285647
6671.857027785523,0.005019039864228333
6671.858027557447,0.0050049008629587605
6671.859027329369,0.0049900252163904285
6671.860027101292,0.004974412507910299
6671.861026873215,0.004958062401689953
6671.862026645137,0.0049409746430179756
6671.863026417061,0.004923149058653361
6671.864026188983,0.004904585557199736
6671.865025960906,0.004885284129500205
6671.866025732828,0.0048652448490525925
6671.867025504751,0.004844467872444901
6671.8680252766735,0.004822953439810757
6671.869025048597,0.004800701875304654
6671.87002482052,0.004777713587596788
6671.871024592442,0.004753989070387281
6671.872024364365,0.004729528902939588
6671.873024136287,0.004704333750632864
6671.874023908211,0.0046784043655331035
6671.875023680133,0.004651741586982848
6671.876023452056,0.004624346342209289
6671.8770232239785,0.004596219646950601
6671.878022995901,0.004567362606100307
6671.879022767825,0.004537776414369534
6671.880022539747,0.004507462356966943
6671.88102231167,0.004476421810296149
6671.882022083592,0.004444656242670399
6671.883021855515,0.004412167215044265
6671.884021627438,0.004378956381762065
6671.885021399361,0.004345025491322715
6671.886021171284,0.0043103763871606415
6671.887020943206,0.004275011008442355
6671.888020715129,0.00423893139087822
6671.889020487051,0.00420213966754892
