Time,Filtered_ECG
6416.870789650815,0.004211842658688716
6416.87178942303,0.003926377451770856
6416.872789195246,0.0036405736668532044
6416.873788967461,0.0033544802047168944
6416.874788739677,0.0030681462127983778
6416.875788511891,0.0027816210687961296
6416.876788284107,0.0024949543640785878
6416.877788056322,0.0022081958869018072
6416.8787878285375,0.0019213956054456528
6416.879787600753,0.0016346036506776334
6416.880787372968,0.0013478702990536485
6416.881787145183,0.0010612459550649643
6416.882786917398,0.0007747811336407065
6416.883786689614,0.0004885264424150487
6416.884786461829,0.00020253256386815947
6416.885786234045,-8.314976265014728e-05
6416.886786006259,-0.0003684697590051827
6416.887785778475,-0.0006533766264617359
6416.88878555069,-0.0009378195639591765
6416.8897853229055,-0.001221747786468467
6416.890785095121,-0.001505110543422234
6416.891784867335,-0.0017878571372090203
6416.892784639551,-0.0020699369417227836
6416.893784411766,-0.0023512994209585864
6416.894784183982,-0.0026318941476452667
6416.895783956197,-0.002911670821905653
6416.896783728413,-0.003190579289934656
6416.897783500627,-0.0034685695626853743
6416.898783272843,-0.003745591834553181
6416.899783045058,-0.00402159650204773
6416.9007828172735,-0.004296534182442847
6416.901782589489,-0.0045703557323943725
6416.902782361703,-0.0048430122665162065
6416.903782133919,-0.005114455175904983
6416.904781906134,-0.005384636146604104
6416.90578167835,-0.005653507177998168
6416.906781450565,-0.005921020601129191
6416.907781222781,-0.006187129096926356
6416.908780994995,-0.006451785714341361
6416.909780767211,-0.00671494388838165
6416.910780539426,-0.006976557458034102
6416.911780311641,-0.0072365806840718775
6416.912780083857,-0.0074949682667372446
6416.913779856071,-0.007751675363293312
6416.914779628287,-0.0080066576054375
6416.915779400502,-0.00825987111656957
6416.916779172718,-0.00851127252890684
6416.917778944933,-0.008760819000439147
6416.918778717149,-0.00900846823171597
6416.919778489363,-0.009254178482458112
6416.920778261579,-0.009497908587986338
6416.921778033794,-0.00973961797545939
6416.922777806009,-0.009979266679913815
6416.923777578225,-0.010216815360098112
6416.924777350439,-0.010452225314093701
6416.925777122655,-0.010685458494715309
6416.92677689487,-0.010916477524683336
6416.927776667086,-0.011145245711560897
6416.928776439301,-0.01137172706244821
6416.929776211516,-0.011595886298427142
6416.930775983731,-0.011817688868748769
6416.931775755947,-0.012037100964756917
6416.932775528162,-0.012254089533540662
6416.933775300377,-0.012468622291308705
6416.934775072593,-0.012680667736478456
6416.935774844807,-0.012890195162472447
6416.936774617023,-0.013097174670214493
6416.937774389238,-0.013301577180317862
6416.938774161454,-0.013503374444957552
6416.939773933669,-0.013702539059418806
6416.940773705884,-0.013899044473314073
6416.941773478099,-0.014092865001460784
6416.9427732503145,-0.01428397583441267
6416.94377302253,-0.0144723530486376
6416.944772794745,-0.01465797361633535
6416.945772566961,-0.014840815414888988
6416.946772339175,-0.01502085723594385
6416.947772111391,-0.015198078794108295
6416.948771883606,-0.015372460735270512
6416.949771655822,-0.015543984644525827
6416.950771428037,-0.01571263305370901
6416.951771200252,-0.015878389448526115
6416.952770972467,-0.01604123827528045
6416.9537707446825,-0.016201164947187208
6416.954770516898,-0.016358155850271245
6416.955770289113,-0.016512198348842436
6416.956770061328,-0.01666328079054281
6416.957769833543,-0.016811392510959765
6416.958769605759,-0.016956523837799557
6416.959769377974,-0.017098666094615345
6416.96076915019,-0.017237811604084288
6416.961768922405,-0.01737395369082839
6416.96276869462,-0.017507086683774126
6416.963768466835,-0.0176372059180462
6416.9647682390505,-0.017764307736391104
6416.965768011266,-0.017888389490126545
6416.966767783481,-0.018009449539613042
6416.967767555696,-0.018127487254244328
6416.968767327911,-0.018242503011953414
6416.969767100127,-0.018354498198231463
6416.970766872342,-0.01846347520465669
6416.971766644558,-0.018569437426930867
6416.972766416773,-0.01867238926242096
6416.973766188988,-0.018772336107203618
6416.974765961203,-0.01886928435261012
6416.9757657334185,-0.018963241381269504
6416.976765505634,-0.019054215562647556
6416.977765277849,-0.0191422162480794
6416.978765050064,-0.01922725376529352
6416.979764822279,-0.01930933941242535
6416.980764594495,-0.019388485451518823
6416.98176436671,-0.019464705101514736
6416.982764138926,-0.019538012530725173
6416.983763911141,-0.01960842284879372
6416.984763683356,-0.01967595209814172
6416.985763455571,-0.01974061724490117
6416.9867632277865,-0.019802436169335382
6416.987763000002,-0.019861427655748852
6416.988762772217,-0.019917611381888235
6416.989762544432,-0.01997100790783662
6416.990762316647,-0.020021638664403735
6416.991762088863,-0.020069525941015
6416.992761861078,-0.02011469287310272
6416.993761633294,-0.0201571634290029
6416.994761405508,-0.020196962396361436
6416.995761177724,-0.02023411536805345
6416.996760949939,-0.02026864872761979
6416.997760722154,-0.02030058963422476
6416.99876049437,-0.020329966007139332
6416.999760266585,-0.020356806509754525
6417.0007600388,-0.0203811405331299
6417.001759811015,-0.020402998179082792
6417.002759583231,-0.02042241024282437
6417.003759355446,-0.020439408195149323
6417.004759127662,-0.020454024164186443
6417.005758899876,-0.020466290916718075
6417.006758672092,-0.020476241839076762
6417.007758444307,-0.020483910917628006
6417.008758216522,-0.02048933271884829
6417.009757988738,-0.020492542369008014
6417.010757760953,-0.020493575533469314
6417.011757533168,-0.020492468395608983
6417.012757305383,-0.020489257635377015
6417.013757077599,-0.02048398040750152
6417.014756849814,-0.020476674319350786
6417.01575662203,-0.02046737740846344
6417.016756394244,-0.020456128119757746
6417.01775616646,-0.0204429652824312
6417.018755938675,-0.020427928086561763
6417.01975571089,-0.020411056059422446
6417.020755483106,-0.02039238904152134
6417.02175525532,-0.020371967162379573
6417.022755027536,-0.02034983081606046
6417.023754799751,-0.02032602063646362
6417.024754571967,-0.020300577472398888
6417.025754344182,-0.020273542362455717
6417.026754116398,-0.020244956509684817
6417.027753888612,-0.020214861256109766
6417.028753660828,-0.020183298057087233
6417.029753433043,-0.020150308455535292
6417.030753205258,-0.020115934056050114
6417.031752977474,-0.020080216498931894
6417.032752749688,-0.020043197434141447
6417.033752521904,-0.0200049184952093
6417.034752294119,-0.019965421273119337
6417.035752066335,-0.01992474729018919
6417.03675183855,-0.019882937973969714
6417.037751610766,-0.019840034631185867
6417.03875138298,-0.019796078421741435
6417.039751155196,-0.019751110332810053
6417.040750927411,-0.019705171153035186
6417.041750699626,-0.01965830144686191
6417.042750471842,-0.01961054152902347
6417.043750244056,-0.019561931439205944
6417.044750016272,-0.01951251091691443
6417.045749788487,-0.01946231937656433
6417.046749560703,-0.019411395882821304
6417.047749332918,-0.0193597791262135
6417.0487491051335,-0.019307507399039442
6417.049748877348,-0.01925461857159474
6417.050748649564,-0.019201150068740416
6417.051748421779,-0.019147138846835318
6417.052748193994,-0.019092621371054587
6417.05374796621,-0.019037633593115586
6417.054747738424,-0.0189822109294321
6417.05574751064,-0.01892638823971694
6417.056747282855,-0.018870199806052354
6417.057747055071,-0.01881367931244698
6417.058746827286,-0.01875685982489741
6417.0597465995015,-0.01869977377197183
6417.060746371716,-0.018642452925932747
6417.061746143932,-0.018584928384415448
6417.062745916147,-0.018527230552678287
6417.063745688362,-0.01846938912644081
6417.064745460578,-0.01841143307532512
6417.065745232792,-0.018353390626915607
6417.066745005008,-0.018295289251451442
6417.067744777223,-0.01823715564716575
6417.068744549439,-0.018179015726284567
6417.069744321654,-0.01812089460169791
6417.070744093869,-0.0180628165743144
6417.071743866084,-0.018004805121109982
6417.0727436383,-0.017946882883880248
6417.073743410515,-0.01788907165870483
6417.07474318273,-0.017831392386131056
6417.075742954946,-0.017773865142082818
6417.07674272716,-0.01771650912949922
6417.077742499376,-0.017659342670706173
6417.078742271591,-0.01760238320052282
6417.079742043807,-0.01754564726010343
6417.080741816022,-0.01748915049151429
6417.081741588237,-0.017432907633044142
6417.082741360452,-0.017376932515245865
6417.083741132668,-0.017321238057706273
6417.084740904883,-0.017265836266540335
6417.085740677098,-0.017210738232605296
6417.086740449314,-0.017155954130429623
6417.087740221528,-0.017101493217850986
6417.088739993744,-0.017047363836356768
6417.089739765959,-0.016993573412119867
6417.090739538175,-0.016940128457721908
6417.09173931039,-0.01688703457455515
6417.092739082605,-0.016834296455893665
6417.09373885482,-0.016781917890623697
6417.094738627035,-0.01672990176762221
6417.095738399251,-0.016678250080771978
6417.096738171466,-0.016626963934600683
6417.097737943681,-0.016576043550530807
6417.098737715896,-0.01652548827372648
6417.099737488112,-0.01647529658052294
6417.100737260327,-0.016425466086423847
6417.101737032543,-0.01637599355465153
6417.102736804758,-0.01632687490523511
6417.103736576973,-0.016278105224621323
6417.104736349188,-0.016229678775792906
6417.105736121403,-0.01618158900887943
6417.106735893619,-0.016133828572245316
6417.107735665834,-0.016086389324039874
6417.108735438049,-0.01603926234419411
6417.109735210264,-0.015992437946848972
6417.11073498248,-0.015945905693199734
6417.111734754695,-0.015899654404741035
6417.112734526911,-0.015853672176897104
6417.113734299126,-0.015807946393021407
6417.1147340713405,-0.015762463738749847
6417.115733843556,-0.01571721021669124
6417.116733615771,-0.015672171161438368
6417.117733387987,-0.015627331254882634
6417.118733160202,-0.015582674541814848
6417.119732932417,-0.015538184445794464
6417.120732704632,-0.015493843785269358
6417.121732476848,-0.015449634789928083
6417.122732249063,-0.015405539117266559
6417.123732021279,-0.015361537869351129
6417.124731793494,-0.01531761160976004
6417.1257315657085,-0.015273740380685425
6417.126731337924,-0.01522990372017809
6417.127731110139,-0.015186080679517431
6417.128730882355,-0.015142249840688956
6417.12973065457,-0.015098389333951934
6417.130730426785,-0.01505447685547975
6417.131730199,-0.015010489685055485
6417.132729971216,-0.014966404703805248
6417.133729743431,-0.014922198411951634
6417.134729515647,-0.014877846946569412
6417.135729287861,-0.014833326099325327
6417.1367290600765,-0.014788611334183558
6417.137728832292,-0.014743677805058189
6417.138728604507,-0.014698500373393875
6417.139728376723,-0.014653053625655848
6417.140728148938,-0.014607311890710527
6417.141727921153,-0.014561249257078229
6417.142727693368,-0.01451483959003976
6417.143727465584,-0.014468056548579064
6417.144727237799,-0.014420873602144587
6417.145727010015,-0.01437326404721244
6417.146726782229,-0.01432520102363504
6417.1477265544445,-0.01427665753075938
6417.14872632666,-0.014227606443299718
6417.149726098875,-0.014178020526949955
6417.150725871091,-0.014127872453721727
6417.151725643306,-0.01407713481699474
6417.152725415521,-0.014025780146266783
6417.153725187736,-0.013973780921591501
6417.154724959952,-0.013921109587693114
6417.155724732167,-0.01386773856774818
6417.156724504383,-0.013813640276825802
6417.157724276597,-0.01375878713497906
6417.1587240488125,-0.013703151579981936
6417.159723821028,-0.013646706079707898
6417.160723593243,-0.013589423144148318
6417.161723365459,-0.013531275337071156
6417.162723137673,-0.013472235287322868
6417.163722909889,-0.013412275699779118
6417.164722682104,-0.013351369365952756
6417.16572245432,-0.013289489174270343
6417.166722226535,-0.01322660812003144
6417.167721998751,-0.013162699315067842
6417.168721770965,-0.013097735997122845
6417.1697215431805,-0.013031691538973562
6417.170721315396,-0.01296453945732206
6417.171721087611,-0.01289625342148389
6417.172720859827,-0.012826807261904967
6417.173720632041,-0.012756174978540098
6417.174720404257,-0.012684330749128381
6417.175720176472,-0.01261124893740247
6417.176719948688,-0.01253690410126997
6417.177719720903,-0.01246127100100646
6417.178719493119,-0.01238432460750038
6417.179719265333,-0.012306040110590541
6417.180719037548,-0.0122263929275374
6417.181718809764,-0.012145358711669128
6417.182718581979,-0.012062913361243117
6417.183718354195,-0.011979033028562689
6417.184718126409,-0.011893694129387485
6417.185717898625,-0.011806873352674187
6417.18671767084,-0.011718547670682028
6417.187717443056,-0.011628694349475038
6417.188717215271,-0.011537290959850234
6417.189716987487,-0.011444315388718145
6417.190716759701,-0.01134974585095908
6417.191716531916,-0.011253560901775518
6417.192716304132,-0.011155739449557646
6417.193716076347,-0.011056260769275685
6417.194715848563,-0.010955104516408772
6417.195715620777,-0.010852250741416285
6417.196715392993,-0.010747679904753464
6417.197715165208,-0.010641372892429127
6417.198714937424,-0.010533311032099476
6417.199714709639,-0.010423476109688308
6417.2007144818535,-0.010311850386520702
6417.201714254069,-0.010198416616954281
6417.202714026284,-0.010083158066489413
6417.2037137985,-0.009966058530337218
6417.204713570715,-0.009847102352421902
6417.205713342931,-0.009726274444791634
6417.206713115145,-0.00960356030740997
6417.207712887361,-0.009478946048297653
6417.208712659576,-0.00935241840399261
6417.209712431792,-0.009223964760294096
6417.210712204007,-0.009093573173255287
6417.2117119762215,-0.008961232390387193
6417.212711748437,-0.008826931872035617
6417.213711520652,-0.008690661812891826
6417.214711292868,-0.008552413163596758
6417.215711065083,-0.00841217765239791
6417.216710837299,-0.008269947806817498
6417.217710609513,-0.008125716975290156
6417.218710381729,-0.007979479348728313
6417.219710153944,-0.007831229981973426
6417.22070992616,-0.007680964815091586
6417.221709698375,-0.007528680694472473
6417.2227094705895,-0.007374375393691285
6417.223709242805,-0.007218047634093984
6417.22470901502,-0.0070596971050670785
6417.225708787236,-0.00689932448395407
6417.226708559451,-0.006736931455581593
6417.227708331666,-0.006572520731359283
6417.228708103881,-0.006406096067918318
6417.229707876097,-0.006237662285254554
6417.230707648312,-0.00606722528434308
6417.231707420528,-0.0058947920641918405
6417.232707192743,-0.0057203707383028345
6417.2337069649575,-0.005543970550510083
6417.234706737173,-0.005365601890164253
6417.235706509388,-0.005185276306634411
6417.236706281604,-0.005003006523097966
6417.237706053819,-0.004818806449590479
6417.238705826034,-0.004632691195287708
6417.239705598249,-0.0044446770799930375
6417.240705370465,-0.004254781644804294
6417.24170514268,-0.004063023661934925
6417.242704914896,-0.0038694231436654644
6417.243704687111,-0.0036740013504022342
6417.2447044593255,-0.0034767807978212614
6417.245704231541,-0.003277785263076417
6417.246704003756,-0.0030770397900518566
6417.247703775972,-0.0028745706936398846
6417.248703548187,-0.0026704055630264564
6417.249703320402,-0.002464573263967599
6417.250703092617,-0.0022571039400411295
6417.251702864833,-0.002048029012859192
6417.252702637048,-0.0018373811812282758
6417.253702409264,-0.001625194419244553
6417.254702181479,-0.0014115039733135122
6417.2557019536935,-0.0011963463580840306
6417.256701725909,-0.0009797593512881804
6417.257701498124,-0.0007617819874792741
6417.25870127034,-0.0005424545506619376
6417.259701042555,-0.00032181856580936174
6417.26070081477,-9.991678926435344e-05
6417.261700586985,0.0001232068019776279
6417.262700359201,0.00034750702210359
6417.263700131416,0.0005729374894346747
6417.264699903632,0.0007994506404909903
6417.265699675846,0.0010269977451644878
6417.266699448061,0.0012555289229930976
6417.267699220277,0.0014849931605277653
6417.268698992492,0.0017153383297825416
6417.269698764708,0.0019465112077564762
6417.270698536923,0.0021784574970147214
6417.271698309138,0.002411121847314983
6417.272698081353,0.0026444478782642476
6417.273697853569,0.0028783782029895956
6417.274697625784,0.0031128544528058614
6417.275697398,0.0033478173028619654
6417.276697170214,0.0035832064987468513
6417.277696942429,0.003818960884035097
6417.278696714645,0.004055018428751386
6417.27969648686,0.004291316258732091
6417.280696259076,0.00452779068586122
6417.281696031291,0.004764377239156857
6417.282695803506,0.0050010106966831515
6417.283695575721,0.005237625118261678
6417.284695347937,0.005474153878954876
6417.285695120152,0.005710529703293193
6417.286694892367,0.00594668470021659
6417.287694664582,0.006182550398700262
6417.288694436797,0.006418057784033834
6417.289694209013,0.006653137334722715
6417.290693981228,0.006887719059979947
6417.291693753444,0.007121732537776531
6417.292693525658,0.007355106953418012
6417.293693297874,0.007587771138614987
6417.294693070089,0.00781965361101517
6417.295692842305,0.00805068261416472
6417.29669261452,0.008280786157866583
6417.297692386735,0.008509892058903692
6417.29869215895,0.00873792798209494
6417.299691931165,0.008964821481651843
6417.300691703381,0.009190500042803846
6417.301691475596,0.009414891123660174
6417.302691247812,0.009637922197276185
6417.303691020026,0.00985952079389211
6417.304690792242,0.010079614543312155
6417.305690564457,0.010298131217392049
6417.306690336673,0.010514998772603314
6417.307690108888,0.010730145392642792
6417.308689881103,0.010943499531056338
6417.309689653318,0.011154989953845968
6417.310689425533,0.011364545782030173
6417.311689197749,0.011572096534127628
6417.312688969964,0.011777572168534894
6417.31368874218,0.011980903125769394
6417.314688514394,0.012182020370549404
6417.31568828661,0.012380855433683608
6417.316688058825,0.012577340453743424
6417.3176878310405,0.012771408218492044
6417.318687603256,0.012962992206044844
6417.319687375471,0.013152026625736397
6417.320687147686,0.013338446458669951
6417.321686919901,0.013522187497925709
6417.322686692117,0.013703186388404788
6417.323686464332,0.013881380666286063
6417.324686236548,0.0140567087980736
6417.325686008762,0.014229110219212786
6417.326685780978,0.014398525372253593
6417.327685553193,0.014564895744539966
6417.3286853254085,0.014728163905404667
6417.329685097624,0.014888273542849417
6417.330684869839,0.015045169499690427
6417.331684642054,0.015198797809149737
6417.332684414269,0.015349105729872919
6417.333684186485,0.015496041780353995
6417.3346839587,0.01563955577274854
6417.335683730916,0.015779598846056148
6417.33668350313,0.015916123498653595
6417.337683275346,0.016049083620160293
6417.338683047561,0.01617843452261766
6417.3396828197765,0.016304132970964252
6417.340682591992,0.016426137212788558
6417.341682364207,0.016544407007341267
6417.342682136422,0.016658903653788918
6417.343681908637,0.0167695900186905
6417.344681680853,0.016876430562678717
6417.345681453068,0.016979391366327333
6417.346681225284,0.017078440155186142
6417.347680997498,0.017173546323965026
6417.348680769714,0.0172646809598486
6417.349680541929,0.017351816864923073
6417.3506803141445,0.017434928577696986
6417.35168008636,0.017513992393697796
6417.352679858574,0.017588986385126452
6417.35367963079,0.01765989041955236
6417.354679403005,0.017726686177631585
6417.355679175221,0.01778935716983161
6417.356678947436,0.01784788875214637
6417.357678719651,0.017902268140785785
6417.358678491866,0.01795248442582449
6417.359678264082,0.017998528583794863
6417.360678036297,0.01804039348920981
6417.3616778085125,0.01807807392500116
6417.362677580728,0.018111566591859734
6417.363677352942,0.018140870116463415
6417.364677125158,0.018165985058579897
6417.365676897373,0.018186913917031186
6417.366676669589,0.018203661134507245
6417.367676441804,0.018216233101216887
6417.368676214019,0.018224638157364557
6417.369675986234,0.01822888659444243
6417.37067575845,0.018228990655327956
6417.371675530665,0.018224964533177828
6417.37267530288,0.018216824369110374
6417.373675075096,0.018204588248669242
6417.37467484731,0.018188276197062373
6417.375674619526,0.018167910173171486
6417.376674391741,0.018143514062328614
6417.377674163957,0.01811511366785743
6417.378673936172,0.018082736701378502
6417.379673708387,0.018046412771878757
6417.380673480602,0.018006173373546673
6417.381673252818,0.01796205187237572
6417.382673025033,0.017914083491539643
6417.383672797248,0.017862305295544147
6417.384672569464,0.01780675617316055
6417.385672341678,0.017747476819147946
6417.386672113894,0.017684509714771413
6417.387671886109,0.01761789910712479
6417.388671658325,0.017547690987267602
6417.38967143054,0.017473933067186673
6417.390671202755,0.017396674755594064
6417.39167097497,0.017315967132574002
6417.392670747186,0.01723186292309261
6417.393670519401,0.017144416469385422
6417.394670291616,0.017053683702239007
6417.395670063831,0.016959722111184277
6417.396669836046,0.01686259071362053
6417.397669608262,0.016762350022890414
6417.398669380477,0.016659062015327297
6417.399669152693,0.016552790096297693
6417.400668924908,0.016443599065262278
6417.401668697123,0.016331555079880045
6417.402668469338,0.016216725619180868
6417.4036682415535,0.016099179445832525
6417.404668013769,0.015978986567528893
6417.405667785984,0.01585621819752661
6417.406667558199,0.015730946714358242
6417.407667330414,0.01560324562075052
6417.40866710263,0.01547318950177695
6417.409666874845,0.015340853982274598
6417.410666647061,0.015206315683555465
6417.411666419276,0.015069652179443328
6417.412666191491,0.014930941951667503
6417.413665963706,0.014790264344645618
6417.4146657359215,0.014647699519688155
6417.415665508137,0.014503328408658409
6417.416665280352,0.014357232667122235
6417.417665052567,0.014209494627022779
6417.418664824782,0.014060197248915942
6417.419664596998,0.013909424073802973
6417.420664369213,0.013757259174596902
6417.421664141429,0.01360378710725973
6417.422663913643,0.013449092861647402
6417.423663685859,0.013293261812099614
6417.424663458074,0.01313637966781137
6417.4256632302895,0.012978532423023135
6417.426663002505,0.012819806307066263
6417.42766277472,0.012660287734300245
6417.428662546935,0.012500063253978129
6417.42966231915,0.012339219500076258
6417.430662091366,0.012177843141124283
6417.431661863581,0.012016020830071186
6417.432661635797,0.011853839154222891
6417.433661408011,0.011691384585286861
6417.434661180227,0.01152874342955891
6417.435660952442,0.0113660017782873
6417.4366607246575,0.011203245458248988
6417.437660496873,0.011040559982572666
6417.438660269088,0.010878030501842844
6417.439660041303,0.010715741755518728
6417.440659813518,0.01055377802370098
6417.441659585734,0.010392223079278652
6417.442659357949,0.010231160140487734
6417.443659130165,0.010070671823911772
6417.444658902379,0.00991084009795406
6417.445658674595,0.00975174623680993
6417.44665844681,0.009593470774966705
6417.4476582190255,0.009436093462257955
6417.448657991241,0.009279693219497773
6417.449657763456,0.009124348094719946
6417.450657535671,0.008970135220046058
6417.451657307886,0.008817130769205705
6417.452657080102,0.008665409915731346
6417.453656852317,0.008515046791849477
6417.454656624533,0.008366114448089268
6417.455656396747,0.00821868481362914
6417.456656168963,0.008072828657401257
6417.457655941178,0.007928615549973416
6417.4586557133935,0.007786113826227171
6417.459655485609,0.007645390548850451
6417.460655257823,0.007506511472662147
6417.461655030039,0.007369541009785308
6417.462654802254,0.00723454219568476
6417.46365457447,0.007101576656083984
6417.464654346685,0.006970704574775214
6417.465654118901,0.006841984662335804
6417.466653891115,0.006715474125763116
6417.467653663331,0.006591228639039415
6417.468653435546,0.006469302314637607
6417.469653207761,0.006349747675977985
6417.470652979977,0.00623261563084559
6417.471652752191,0.006117955445777204
6417.472652524407,0.006005814721426481
6417.473652296622,0.00589623936891523
6417.474652068838,0.005789273587178438
6417.475651841053,0.005684959841310225
6417.476651613269,0.005583338841917589
6417.477651385483,0.0054844495254884355
6417.478651157699,0.005388329035779989
6417.479650929914,0.005295012706233101
6417.480650702129,0.005204534043417353
6417.481650474345,0.005116924711511106
6417.482650246559,0.005032214517819783
6417.483650018775,0.004950431399334879
6417.48464979099,0.004871601410335298
6417.485649563206,0.004795748711031799
6417.486649335421,0.004722895557254591
6417.487649107636,0.004653062291183347
6417.488648879851,0.004586267333118309
6417.4896486520665,0.0045225271742905145
6417.490648424282,0.004461856370708626
6417.491648196497,0.004404267538039319
6417.492647968713,0.0043497713475177105
6417.493647740927,0.0042983765228839215
6417.494647513143,0.004250089838341509
6417.495647285358,0.004204916117533316
6417.496647057574,0.004162858233530086
6417.497646829789,0.004123917109827102
6417.498646602004,0.004088091722343873
6417.499646374219,0.004055379102421682
6417.5006461464345,0.004025774340813443
6417.50164591865,0.003999270592659907
6417.502645690865,0.003975859083445745
6417.503645463081,0.003955529115928504
6417.504645235295,0.0039382680780328545
6417.505645007511,0.0039240614517019375
6417.506644779726,0.003912892822697104
6417.507644551942,0.0039047438913368034
6417.508644324157,0.003899594484164882
6417.509644096372,0.0038974225665381257
6417.510643868587,0.003898204256122439
6417.5116436408025,0.0039019138372867464
6417.512643413018,0.003908523776383503
6417.513643185233,0.0039180047379047105
6417.514642957449,0.003930325601502431
6417.515642729663,0.003945453479863033
6417.516642501879,0.003963353737424587
6417.517642274094,0.003983990009927034
6417.51864204631,0.004007324224784769
6417.519641818525,0.004033316622271293
6417.52064159074,0.004061925777505365
6417.521641362955,0.004093108623227819
6417.5226411351705,0.004126820473357799
6417.523640907386,0.004163015047316757
6417.524640679601,0.004201644495108117
6417.525640451816,0.004242659423140082
6417.526640224031,0.004286008920778713
6417.527639996247,0.004331640587618026
6417.528639768462,0.004379500561453563
6417.529639540678,0.004429533546945611
6417.530639312893,0.004481682844958023
6417.531639085108,0.004535890382558494
6417.532638857323,0.004592096743666035
6417.5336386295385,0.0046502412003314245
6417.534638401754,0.0047102617446365055
6417.535638173969,0.0047720951211983635
6417.536637946184,0.004835676860264605
6417.537637718399,0.004900941311386154
6417.538637490615,0.004967821677654106
6417.53963726283,0.005036250050487214
6417.540637035046,0.005106157444956428
6417.541636807261,0.005177473835632684
6417.542636579476,0.005250128192943739
6417.543636351691,0.005324048520025424
6417.5446361239065,0.005399161890052297
6417.545635896122,0.005475394484032236
6417.546635668337,0.005552671629049125
6417.547635440552,0.005630917836937409
6417.548635212767,0.005710056843371912
6417.549634984983,0.005790011647355975
6417.550634757198,0.005870704551090709
6417.551634529414,0.005952057200207896
6417.552634301628,0.006033990624348935
6417.553634073844,0.0061164252780721955
6417.554633846059,0.006199281082071163
6417.555633618274,0.006282477464685848
6417.55663339049,0.006365933403689979
6417.557633162705,0.006449567468336533
6417.55863293492,0.006533297861644017
6417.559632707135,0.006617042462905692
6417.560632479351,0.00670071887040353
6417.561632251566,0.006784244444308198
6417.562632023782,0.006867536349745783
6417.563631795996,0.006950511600011343
6417.564631568212,0.007033087099908753
6417.565631340427,0.007115179689195828
6417.566631112642,0.007196706186113245
6417.567630884858,0.00727758343097542
6417.568630657073,0.007357728329801256
6417.569630429288,0.007437057897962429
6417.570630201503,0.007515489303826705
6417.571629973719,0.007592939912373676
6417.572629745934,0.007669327328760235
6417.57362951815,0.007744569441813187
6417.574629290364,0.007818584467426547
6417.57562906258,0.007891290991841432
6417.576628834795,0.007962608014786716
6417.57762860701,0.008032454992458986
6417.578628379226,0.008100751880320618
6417.579628151441,0.008167419175695006
6417.580627923656,0.00823237796013801
6417.581627695871,0.008295549941564732
6417.582627468087,0.008356857496110565
6417.583627240302,0.008416223709705371
6417.584627012518,0.008473572419339503
6417.585626784732,0.008528828254000295
6417.586626556948,0.008581916675257689
6417.587626329163,0.008632764017477682
6417.588626101378,0.008681297527642488
6417.589625873594,0.008727445404756458
6417.590625645808,0.008771136838817147
6417.591625418024,0.0088123020493312
6417.592625190239,0.008850872323355198
6417.593624962455,0.008886780053042135
6417.59462473467,0.008919958772674944
6417.5956245068855,0.00895034319516925
6417.5966242791,0.008977869248028441
6417.597624051316,0.009002474108735016
6417.598623823531,0.009024096239563026
6417.599623595746,0.009042675421797097
6417.600623367962,0.009058152789344093
6417.601623140176,0.009070470861723847
6417.602622912392,0.009079573576425604
6417.603622684607,0.00908540632061698
6417.604622456823,0.009087915962192291
6417.605622229038,0.009087050880147251
6417.6066220012535,0.009082760994267254
6417.607621773468,0.009074997794116716
6417.608621545684,0.009063714367317267
6417.609621317899,0.009048865427102992
6417.610621090114,0.00903040733914127
6417.61162086233,0.009008298147608191
6417.612620634544,0.008982497600507938
6417.61362040676,0.008952967174226018
6417.614620178975,0.008919670097306735
6417.615619951191,0.008882571373445875
6417.616619723406,0.008841637803690171
6417.617619495621,0.008796838007835577
6417.618619267836,0.00874814244501691
6417.619619040052,0.008695523433481681
6417.620618812267,0.0086389551695412
6417.621618584482,0.008578413745692032
6417.622618356698,0.008513877167900929
6417.623618128912,0.008445325372046224
6417.624617901128,0.008372740239508606
6417.625617673343,0.008296105611904164
6417.626617445559,0.008215407304952509
6417.627617217774,0.008130633121472776
6417.628616989989,0.008041772863500397
6417.629616762204,0.00794881834351753
6417.63061653442,0.007851763394790151
6417.631616306635,0.007750603880804901
6417.63261607885,0.007645337703798939
6417.633615851066,0.007535964812376324
6417.63461562328,0.007422487208204773
6417.635615395496,0.0073049089517870725
6417.636615167711,0.007183236167301956
6417.637614939927,0.007057477046509794
6417.638614712142,0.006927641851718935
6417.639614484357,0.006793742917809041
6417.640614256572,0.00665579465330814
6417.641614028787,0.006513813540520489
6417.642613801003,0.006367818134702663
6417.643613573218,0.006217829062285544
6417.644613345434,0.006063869018140123
6417.645613117648,0.0059059627618852665
6417.646612889864,0.005744137113235817
6417.647612662079,0.005578420946389668
6417.648612434295,0.005408845183452767
6417.64961220651,0.005235442786901333
6417.650611978725,0.005058248751080992
6417.65161175094,0.004877300092743001
6417.652611523155,0.004692635840618237
6417.653611295371,0.0045042970240302726
6417.654611067586,0.004312326660549612
6417.655610839801,0.004116769742691984
6417.656610612016,0.003917673223664485
6417.657610384232,0.0037150860021642955
6417.658610156447,0.003509058906235471
6417.659609928663,0.0032996446761901737
6417.660609700878,0.003086897946601288
6417.6616094730925,0.0028708752273739905
6417.662609245308,0.002651634883904303
6417.663609017523,0.002429237116333085
6417.664608789739,0.0022037439379043477
6417.665608561954,0.001975219152437236
6417.666608334169,0.0017437283309215156
6417.667608106384,0.0015093387872469413
6417.6686078786,0.0012721195530773903
6417.669607650815,0.0010321413518811504
6417.670607423031,0.0007894765721291826
6417.671607195246,0.0005441992396735763
6417.6726069674605,0.0002963849893187569
6417.673606739676,4.611103559835574e-05
6417.674606511891,-0.00020654385722892573
6417.675606284107,-0.00046149940595064016
6417.676606056322,-0.000718673839924723
6417.677605828537,-0.0009779839333414375
6417.678605600752,-0.0012393450382075636
6417.679605372968,-0.0015026711180367415
6417.680605145183,-0.0017678747822294902
6417.681604917399,-0.002034867321126127
6417.682604689613,-0.002303558741715601
6417.6836044618285,-0.002573857803983034
6417.684604234044,-0.0028456720578785614
6417.685604006259,-0.003118907880889828
6417.686603778475,-0.0033934705162002817
6417.68760355069,-0.003669264111415227
6417.688603322905,-0.003946191757837472
6417.68960309512,-0.004224155530274355
6417.690602867336,-0.004503056527357886
6417.691602639551,-0.004782794912359811
6417.692602411767,-0.005063269954483366
6417.693602183981,-0.005344380070613422
6417.6946019561965,-0.005626022867506543
6417.695601728412,-0.005908095184402141
6417.696601500627,-0.0061904931360354815
6417.697601272843,-0.006473112156032789
6417.698601045058,-0.0067558470406682255
6417.699600817273,-0.007038591992962086
6417.700600589488,-0.0073212406670992315
6417.701600361704,-0.0076036862131465465
6417.702600133919,-0.007885821322048162
6417.703599906135,-0.008167538270877158
6417.704599678349,-0.00844872896832259
6417.7055994505645,-0.008729285000390778
6417.70659922278,-0.009009097676299925
6417.707598994995,-0.009288058074547157
6417.708598767211,-0.009566057089127136
6417.709598539426,-0.009842985475881366
6417.710598311641,-0.010118733898957195
6417.711598083856,-0.010393192977355388
6417.712597856072,-0.01066625333154495
6417.713597628287,-0.010937805630123469
6417.714597400503,-0.0112077406365008
6417.715597172717,-0.011475949255583288
6417.7165969449325,-0.011742322580435179
6417.717596717148,-0.012006751938893315
6417.718596489363,-0.0122691289401108
6417.719596261579,-0.012529345521005078
6417.720596033793,-0.012787293992585887
6417.721595806009,-0.013042867086138547
6417.722595578224,-0.013295957999238283
6417.72359535044,-0.013546460441571347
6417.724595122655,-0.013794268680538874
6417.725594894871,-0.014039277586619369
6417.726594667085,-0.014281382678465798
6417.7275944393,-0.014520480167713238
6417.728594211516,-0.014756467003473077
6417.729593983731,-0.014989240916489897
6417.730593755947,-0.01521870046293733
6417.731593528161,-0.015444745067829484
6417.732593300377,-0.01566727506802483
6417.733593072592,-0.0158861917547998
6417.734592844808,-0.016101397415969575
6417.735592617023,-0.016312795377533832
6417.736592389239,-0.01652029004482548
6417.737592161453,-0.016723786943140626
6417.738591933668,-0.01692319275782833
6417.739591705884,-0.01711841537381902
6417.740591478099,-0.01730936391457101
6417.741591250315,-0.01749594878041515
6417.742591022529,-0.017678081686278192
6417.743590794745,-0.017855675698766373
6417.74459056696,-0.01802864527259131
6417.745590339176,-0.018196906286321098
6417.746590111391,-0.018360376077440205
6417.7475898836055,-0.018518973476702397
6417.748589655821,-0.018672618841761593
6417.749589428036,-0.01882123409006619
6417.750589200252,-0.018964742731003015
6417.751588972467,-0.019103069897277756
6417.752588744683,-0.019236142375519308
6417.753588516897,-0.01936388863609599
6417.754588289113,-0.019486238862132084
6417.755588061328,-0.01960312497771349
6417.756587833544,-0.019714480675271685
6417.757587605759,-0.019820241442135532
6417.7585873779735,-0.019920344586240903
6417.759587150189,-0.020014729260988774
6417.760586922404,-0.02010333648924309
6417.76158669462,-0.020186109186460497
6417.762586466835,-0.02026299218294504
6417.763586239051,-0.02033393224522167
6417.764586011265,-0.02039887809652332
6417.765585783481,-0.020457780436387265
6417.766585555696,-0.020510591959357144
6417.767585327912,-0.02055726737278795
6417.768585100127,-0.020597763413752114
6417.7695848723415,-0.020632038865045502
6417.770584644557,-0.020660054570292897
6417.771584416772,-0.020681773448153192
6417.772584188988,-0.020697160505625107
6417.773583961203,-0.020706182850454644
6417.774583733419,-0.020708809702645964
6417.775583505633,-0.02070501240507759
6417.776583277849,-0.020694764433226025
6417.777583050064,-0.020678041403999075
6417.77858282228,-0.020654821083681357
6417.779582594495,-0.020625083394994824
6417.7805823667095,-0.02058881042327746
6417.781582138925,-0.020545986421783773
6417.78258191114,-0.020496597816111198
6417.783581683356,-0.020440633207757155
6417.784581455571,-0.020378083376812017
6417.785581227786,-0.020308941283793968
6417.786581000001,-0.020233202070632193
6417.787580772217,-0.020150863060805515
6417.788580544432,-0.02006192375864395
6417.789580316648,-0.019966385847801214
6417.790580088863,-0.01986425318890658
6417.7915798610775,-0.01975553181640472
6417.792579633293,-0.019640229934592624
6417.793579405508,-0.019518357912862563
6417.794579177724,-0.01938992828016029
6417.795578949939,-0.019254955718667553
6417.796578722154,-0.01911345705671792
6417.797578494369,-0.018965451260954818
6417.798578266585,-0.01881095942774065
6417.7995780388,-0.01865000477382589
6417.800577811016,-0.01848261262628725
6417.801577583231,-0.01830881041174424
6417.8025773554455,-0.01812862764486375
6417.803577127661,-0.01794209591616273
6417.804576899876,-0.01774924887911949
6417.805576672092,-0.017550122236604557
6417.806576444307,-0.017344753726642438
6417.807576216522,-0.01713318310751602
6417.808575988737,-0.016915452142225642
6417.809575760953,-0.01669160458231522
6417.810575533168,-0.016461686151077983
6417.811575305384,-0.016225744526154762
6417.812575077598,-0.015983829321537836
6417.813574849813,-0.01573599206899367
6417.814574622029,-0.015482286198917805
6417.815574394244,-0.015222767020635323
6417.81657416646,-0.014957491702160134
6417.817573938675,-0.014686519249426384
6417.81857371089,-0.014409910485005301
6417.819573483105,-0.014127728026320716
6417.820573255321,-0.013840036263376636
6417.821573027536,-0.013546901336010315
6417.822572799752,-0.013248391110684302
6417.823572571966,-0.012944575156831058
6417.824572344181,-0.012635524722763688
6417.825572116397,-0.012321312711166299
6417.826571888612,-0.012002013654177492
6417.827571660828,-0.011677703688080179
6417.828571433043,-0.011348460527610916
6417.829571205258,-0.011014363439901673
6417.830570977473,-0.010675493218066845
6417.831570749689,-0.01033193215444811
6417.832570521904,-0.009983764013529475
6417.833570294119,-0.009631074004534602
6417.834570066334,-0.009273948753718132
6417.835569838549,-0.00891247627636229
6417.836569610765,-0.008546745948489627
6417.83756938298,-0.008176848478302233
6417.838569155196,-0.007802875877357418
6417.839568927411,-0.007424921431489412
6417.840568699626,-0.007043079671486516
6417.841568471841,-0.006657446343533024
6417.842568244057,-0.006268118379425313
6417.843568016272,-0.005875193866571726
6417.844567788487,-0.005478772017786073
6417.845567560702,-0.005078953140884888
6417.846567332917,-0.0046758386080988125
6417.847567105133,-0.004269530825308679
6417.848566877348,-0.003860133201116994
6417.849566649564,-0.0034477501157656153
6417.850566421778,-0.0030324868899103802
6417.851566193994,-0.0026144497532633944
6417.852565966209,-0.0021937458131135418
6417.853565738425,-0.0017704830227356
6417.85456551064,-0.001344770149698083
6417.855565282855,-0.0009167167440796435
6417.85656505507,-0.0004864331066035628
6417.857564827285,-5.403025669956694e-05
6417.858564599501,0.00038038009949799186
6417.859564371716,0.0008166856012066319
6417.860564143932,0.0012547732650979115
6417.861563916146,0.0016945295174361041
6417.862563688362,0.002135840226243981
6417.863563460577,0.00257859073348604
6417.8645632327925,0.0030226658872592464
6417.865563005008,0.0034679500739811056
6417.866562777223,0.003914327250564658
6417.867562549438,0.004361680976569811
6417.868562321653,0.004809894446320245
6417.869562093869,0.00525885052097501
6417.870561866084,0.005708431760543823
6417.8715616383,0.006158520455835015
6417.872561410514,0.0066089986603251015
6417.87356118273,0.007059748221939086
6417.874560954945,0.007510650814730815
6417.8755607271605,0.007961587970453054
6417.876560499376,0.008412441110007406
6417.877560271591,0.00886309157476466
6417.878560043806,0.009313420657746619
6417.879559816021,0.009763309634660919
6417.880559588237,0.01021263979478054
6417.881559360452,0.010661292471659917
6417.882559132668,0.011109149073679509
6417.883558904882,0.011556091114410683
6417.884558677098,0.012002000242792585
6417.885558449313,0.0124467582731126
6417.8865582215285,0.012890247214781984
6417.887557993744,0.013332349301898175
6417.888557765959,0.01377294702258553
6417.889557538174,0.014211923148106308
6417.890557310389,0.014649160761734066
6417.891557082605,0.015084543287381926
6417.89255685482,0.015517954517978596
6417.893556627036,0.0159492786435856
6417.89455639925,0.016378400279249854
6417.895556171466,0.01680520449258665
6417.896555943681,0.017229576831088982
6417.8975557158965,0.017651403349160363
6417.898555488112,0.018070570634869103
6417.899555260326,0.018486965836423126
6417.900555032542,0.018900476688365142
6417.901554804757,0.01931099153748845
6417.902554576973,0.01971839936847412
6417.903554349188,0.02012258982925041
6417.904554121404,0.02052345325607531
6417.905553893618,0.02092088069834305
6417.906553665834,0.021314763943115277
6417.907553438049,0.021704995539377558
6417.9085532102645,0.0220914688220217
6417.90955298248,0.02247407793555435
6417.910552754694,0.02285271785753234
6417.91155252691,0.02322728442172521
6417.912552299125,0.02359767434100568
6417.913552071341,0.023963785229968892
6417.914551843556,0.024325515627281642
6417.915551615771,0.02468276501776322
6417.916551387986,0.02503543385419993
6417.917551160202,0.025383423578895857
6417.918550932417,0.025726636644962934
6417.9195507046325,0.026064976537353582
6417.920550476848,0.026398347793639542
6417.921550249062,0.026726656024540562
6417.922550021278,0.027049807934206676
6417.923549793493,0.02736771134025769
6417.924549565709,0.027680275193583542
6417.925549337924,0.027987409597909185
6417.926549110139,0.028289025829127522
6417.927548882354,0.028585036354404028
6417.92854865457,0.028875354851056804
6417.929548426785,0.02915989622521574
6417.930548199,0.029438576630264626
6417.931547971216,0.029711313485070005
6417.93254774343,0.029978025492000748
6417.933547515646,0.03023863265474236
6417.934547287861,0.03049305629591034
6417.935547060077,0.03074121907446714
6417.936546832292,0.03098304500294762
6417.937546604507,0.03121845946449812
6417.938546376722,0.03144738922973479
6417.939546148938,0.031669762473426816
6417.940545921153,0.03188550879101048
6417.941545693368,0.03209455921493993
6417.942545465583,0.032296846230880485
6417.943545237798,0.03249230379375011
6417.944545010014,0.03268086734361456
6417.945544782229,0.03286247382144153
6417.946544554445,0.033037061684718774
6417.94754432666,0.0332045709229412
6417.948544098875,0.03336494307297145
6417.94954387109,0.03351812123427848
6417.9505436433055,0.03366405008405825
6417.951543415521,0.03380267589224033
6417.952543187736,0.033933946536384194
6417.953542959951,0.03405781151646835
6417.954542732166,0.03417422196957559
6417.955542504382,0.03428313068447752
6417.956542276597,0.03438449211612127
6417.957542048813,0.03447826240002152
6417.958541821028,0.03456439936656063
6417.959541593243,0.03464286255519976
6417.960541365458,0.03471361322860329
6417.9615411376735,0.03477661438667882
6417.962540909889,0.034831830780534166
6417.963540682104,0.034879228926352666
6417.964540454319,0.03491877711918701
6417.965540226534,0.034950445446671495
6417.96653999875,0.034974205802651814
6417.967539770965,0.034990031900731154
6417.968539543181,0.03499789928773054
6417.969539315396,0.03499778535706103
6417.970539087611,0.03498966936200479
6417.971538859826,0.03497353242890158
6417.9725386320415,0.03494935757023702
6417.973538404257,0.03491712969762829
6417.974538176472,0.03487683563470323
6417.975537948687,0.03482846412986818
6417.976537720902,0.03477200586896021
6417.977537493118,0.03470745348777901
6417.978537265333,0.034634801584493516
6417.979537037549,0.03455404673191817
6417.980536809763,0.03446518748965301
6417.981536581979,0.034368224416081096
6417.982536354194,0.03426316008021599
6417.9835361264095,0.03414999907339062
6417.984535898625,0.034028748020777724
6417.98553567084,0.0338994155927305
6417.986535443055,0.03376201251593037
6417.98753521527,0.03361655158432718
6417.988534987486,0.033463047669855146
6417.989534759701,0.03330151773290596
6417.990534531917,0.03313198083253829
6417.991534304131,0.03295445813640078
6417.992534076347,0.03276897293034323
6417.993533848562,0.03257555062768834
6417.9945336207775,0.03237421877813394
6417.995533392993,0.03216500707625344
6417.996533165208,0.031947947369559734
6417.997532937423,0.03172307366609564
6417.998532709638,0.03149042214151181
6417.999532481854,0.031250031145590544
6418.000532254069,0.03100194120817187
6418.001532026285,0.030746195044436157
6418.002531798499,0.03048283755949516
6418.003531570715,0.030211915852241835
6418.00453134293,0.029933479218407374
6418.0055311151455,0.029647579152772757
6418.006530887361,0.02935426935048113
6418.007530659575,0.02905360570739685
6418.008530431791,0.028745646319457027
6418.009530204006,0.02843045148096183
6418.010529976222,0.02810808368175088
6418.011529748437,0.027778607603214538
6418.012529520653,0.02744209011309077
6418.013529292867,0.02709860025900109
6418.014529065083,0.026748209260681728
6418.015528837298,0.026390990500869807
6418.016528609513,0.026027019514807435
6418.017528381729,0.025656373978330645
6418.018528153943,0.025279133694513435
6418.019527926159,0.024895380578841043
6418.020527698374,0.024505198642890382
6418.02152747059,0.02410867397649927
6418.022527242805,0.023705894728410174
6418.023527015021,0.0232969510853779
6418.024526787235,0.02288193524973465
6418.025526559451,0.022460941415409684
6418.026526331666,0.022034065742404622
6418.027526103881,0.021601406329729008
6418.028525876097,0.02116306318680441
6418.029525648311,0.02071913820334858
6418.030525420527,0.02026973511775467
6418.031525192742,0.019814959483983794
6418.032524964958,0.019354918636992395
6418.033524737173,0.01888972165671949
6418.034524509389,0.018419479330662143
6418.035524281603,0.01794430411507109
6418.0365240538185,0.017464310094801754
6418.037523826034,0.01697961294185906
6418.038523598249,0.016490329872677276
6418.039523370465,0.015996579604178628
6418.040523142679,0.015498482308656573
6418.041522914895,0.014996159567531234
6418.04252268711,0.014489734324025855
6418.043522459326,0.013979330834814108
6418.044522231541,0.013465074620688718
6418.045522003756,0.012947092416302389
6418.046521775971,0.012425512119032336
6418.0475215481865,0.01190046273702022
6418.048521320402,0.011372074336439589
6418.049521092617,0.010840477988043313
6418.050520864833,0.010305805713043731
6418.051520637047,0.009768190428378348
6418.052520409263,0.009227765891413922
6418.053520181478,0.008684666644141662
6418.054519953694,0.008139027956916081
6418.055519725909,0.007590985771789849
6418.056519498124,0.007040676645496745
6418.057519270339,0.006488237692134513
6418.0585190425545,0.0059338065255990355
6418.05951881477,0.005377521201820707
6418.060518586985,0.00481952016085326
6418.061518359201,0.004259942168864523
6418.062518131415,0.0036989262600777457
6418.063517903631,0.003136611678711183
6418.064517675846,0.002573137820962677
6418.065517448062,0.0020086441770850016
6418.066517220277,0.0014432702735967477
6418.067516992492,0.00087715561567256
6418.068516764707,0.0003104396297555691
6418.0695165369225,-0.0002567383935661063
6418.070516309138,-0.0008242393563778616
6418.071516081353,-0.0013919244099121412
6418.072515853568,-0.00195965501063793
6418.073515625783,-0.0025272929759279656
6418.074515397999,-0.0030947005392661995
6418.075515170214,-0.003661740404958726
6418.07651494243,-0.004228275802312058
6418.077514714645,-0.0047941705392432815
6418.07851448686,-0.005359289055287371
6418.079514259075,-0.00592349647396779
6418.0805140312905,-0.006486658654497484
6418.081513803506,-0.007048642242778523
6418.082513575721,-0.007609314721669855
6418.083513347936,-0.008168544460493983
6418.084513120151,-0.008726200763754672
6418.085512892367,-0.009282153919039181
6418.086512664582,-0.009836275244079852
6418.087512436798,-0.010388437132951227
6418.088512209013,-0.010938513101380136
6418.089511981228,-0.011486377831147457
6418.090511753443,-0.012031907213561515
6418.0915115256585,-0.012574978391984317
6418.092511297874,-0.013115469803393
6418.093511070089,-0.013653261218959947
6418.094510842304,-0.01418823378363596
6418.095510614519,-0.014720270054721757
6418.096510386735,-0.015249254039413736
6418.09751015895,-0.01577507123131065
6418.098509931166,-0.016297608645868513
6418.099509703381,-0.016816754854791956
6418.100509475596,-0.017332400019351102
6418.101509247811,-0.017844435922614192
6418.102509020026,-0.018352756000587386
6418.103508792242,-0.01885725537225442
6418.104508564457,-0.019357830868510055
6418.105508336672,-0.019854381059982433
6418.106508108887,-0.020346806283740734
6418.107507881103,-0.02083500866888553
6418.108507653318,-0.021318892161020463
6418.109507425534,-0.021798362545604848
6418.110507197748,-0.022273327470187867
6418.111506969964,-0.022743696465526077
6418.112506742179,-0.02320938096558694
6418.113506514394,-0.023670294326441965
6418.11450628661,-0.024126351844053966
6418.115506058825,-0.02457747077096359
6418.11650583104,-0.02502357033188102
6418.117505603255,-0.025464571738189435
6418.118505375471,-0.02590039820136727
6418.119505147686,-0.02633097494533716
6418.120504919902,-0.026756229217750057
6418.121504692116,-0.027176090300213705
6418.122504464332,-0.027590489517475225
6418.123504236547,-0.027999360245568525
6418.124504008762,-0.028402637918937573
6418.125503780978,-0.028800260036547298
6418.126503553193,-0.029192166166994143
6418.127503325408,-0.029578297952628882
6418.128503097623,-0.029958599112704366
6418.129502869839,-0.030333015445561252
6418.130502642054,-0.030701494829864794
6418.13150241427,-0.03106398722490592
6418.132502186484,-0.03142044466997998
6418.1335019587,-0.031770821282856396
6418.134501730915,-0.03211507325735254
6418.13550150313,-0.032453158860024915
6418.136501275346,-0.03278503842599035
6418.13750104756,-0.03311067435388995
6418.138500819776,-0.03343003110000813
6418.139500591991,-0.03374307517155902
6418.140500364207,-0.03404977511915254
6418.141500136422,-0.03435010152845266
6418.142499908638,-0.03464402701104039
6418.143499680852,-0.03493152619449455
6418.144499453068,-0.0352125757117035
6418.145499225283,-0.035487154189421624
6418.146498997498,-0.03575524223608434
6418.147498769714,-0.03601682242889591
6418.148498541928,-0.036271879300204556
6418.149498314144,-0.036520399323179416
6418.150498086359,-0.036762370896804335
6418.151497858575,-0.03699778433020353
6418.15249763079,-0.037226631826314284
6418.1534974030055,-0.037448907464921855
6418.15449717522,-0.037664607185071704
6418.155496947436,-0.03787372876687427
6418.156496719651,-0.038076271812717145
6418.157496491866,-0.03827223772789968
6418.158496264082,-0.03846162970070501
6418.159496036296,-0.038644452681924533
6418.160495808512,-0.03882071336385003
6418.161495580727,-0.038990420158749206
6418.162495352943,-0.03915358317684035
6418.163495125158,-0.03931021420378249
6418.1644948973735,-0.03946032667769764
6418.165494669588,-0.03960393566574209
6418.166494441804,-0.03974105784024386
6418.167494214019,-0.0398717114544236
6418.168493986234,-0.0399959163177166
6418.16949375845,-0.04011369377071316
6418.170493530664,-0.040225066659735055
6418.17149330288,-0.04033005931106546
6418.172493075095,-0.040428697504849787
6418.173492847311,-0.04052100844868476
6418.174492619526,-0.04060702075091258
6418.175492391741,-0.04068676439363699
6418.176492163956,-0.04076027070547752
6418.177491936172,-0.040827572334077925
6418.178491708387,-0.04088870321838455
6418.179491480602,-0.04094369856071002
6418.180491252818,-0.040992594798597924
6418.181491025032,-0.04103542957650382
6418.182490797248,-0.04107224171730826
6418.183490569463,-0.041103071193677586
6418.184490341679,-0.04112795909928837
6418.185490113894,-0.04114694761993137
6418.186489886109,-0.04116008000451112
6418.187489658324,-0.04116740053595695
6418.188489430539,-0.041168954502061726
6418.189489202755,-0.04116478816626409
6418.19048897497,-0.04115494873839013
6418.191488747186,-0.041139484345370236
6418.1924885194,-0.04111844400194669
6418.193488291616,-0.04109187758138737
6418.194488063831,-0.04105983578622045
6418.195487836047,-0.041022370119004725
6418.196487608262,-0.04097953285314944
6418.197487380477,-0.040931377003797335
6418.198487152692,-0.04087795629878396
6418.199486924907,-0.04081932514968609
6418.200486697123,-0.0407555386229718
6418.201486469338,-0.0406866524112646
6418.202486241553,-0.04061272280473403
6418.203486013768,-0.040533806662625016
6418.204485785984,-0.04044996138493854
6418.205485558199,-0.04036124488427613
6418.206485330415,-0.040267715557860545
6418.20748510263,-0.04016943225974516
6418.2084848748445,-0.040066454273224236
6418.20948464706,-0.03995884128345619
6418.210484419275,-0.03984665335031186
6418.211484191491,-0.03972995088145928
6418.212483963706,-0.03960879460569642
6418.213483735921,-0.03948324554654295
6418.214483508136,-0.03935336499610165
6418.215483280352,-0.03921921448919961
6418.216483052567,-0.0390808557778191
6418.217482824783,-0.03893835080582729
6418.218482596998,-0.038791761684013715
6418.2194823692125,-0.038641150665444005
6418.220482141428,-0.03848658012113804
6418.221481913643,-0.03832811251608066
6418.222481685859,-0.03816581038557277
6418.223481458074,-0.03799973631193073
6418.224481230289,-0.037829952901541626
6418.225481002504,-0.03765652276228189
6418.22648077472,-0.03747950848130657
6418.227480546935,-0.037298972603216296
6418.228480319151,-0.03711497760860861
6418.229480091366,-0.036927585893020136
6418.2304798635805,-0.036736859746265595
6418.231479635796,-0.03654286133217943
6418.232479408011,-0.03634565266876555
6418.233479180227,-0.0361452956087601
6418.234478952442,-0.03594185182061203
6418.235478724657,-0.03573538276988547
6418.236478496872,-0.03552594970108769
6418.237478269088,-0.03531361361992551
6418.238478041303,-0.035098435275992844
6418.239477813519,-0.03488047514589137
6418.240477585733,-0.03465979341678599
6418.2414773579485,-0.034436449970396625
6418.242477130164,-0.03421050436742764
6418.243476902379,-0.0339820158324361
6418.244476674595,-0.03375104323914002
6418.24547644681,-0.03351764509616777
6418.246476219025,-0.03328187953324955
6418.24747599124,-0.03304380428785214
6418.248475763456,-0.03280347669225753
6418.249475535671,-0.03256095366108634
6418.250475307887,-0.032316291679266744
6418.251475080101,-0.032069546790449044
6418.2524748523165,-0.03182077458586651
6418.253474624532,-0.03157003019364234
6418.254474396747,-0.03131736826854252
6418.255474168963,-0.03106284298217408
6418.256473941178,-0.030806508013627717
6418.257473713393,-0.030548416540563523
6418.258473485608,-0.030288621230737996
6418.259473257824,-0.03002717423397034
6418.260473030039,-0.029764127174545678
6418.261472802255,-0.029499531144052748
6418.262472574469,-0.02923343669465352
6418.2634723466845,-0.028965893832782114
6418.2644721189,-0.028696952013270435
6418.265471891115,-0.028426660133898003
6418.266471663331,-0.028155066530363395
6418.267471435545,-0.027882218971674658
6418.268471207761,-0.02760816465595597
6418.269470979976,-0.02733295020666763
6418.270470752192,-0.027056621669236385
6418.271470524407,-0.026779224508092784
6418.272470296623,-0.026500803604112007
6418.273470068837,-0.026221403252454294
6418.274469841052,-0.02594106716080078
6418.275469613268,-0.025659838447979987
6418.276469385483,-0.025377759642979756
6418.277469157699,-0.025094872684338947
6418.278468929913,-0.024811218919912836
6418.279468702129,-0.02452683910700562
6418.280468474344,-0.02424177341286343
6418.28146824656,-0.023956061415520997
6418.282468018775,-0.023669742104995183
6418.283467790991,-0.0233828538848185
6418.284467563205,-0.023095434573906077
6418.28546733542,-0.022807521408749403
6418.286467107636,-0.02251915104593029
6418.287466879851,-0.02223035956494856
6418.288466652067,-0.02194118247135697
6418.289466424281,-0.021651654700196782
6418.290466196497,-0.02136181061972735
6418.291465968712,-0.02107168403544303
6418.292465740928,-0.020781308194370445
6418.293465513143,-0.020490715789639055
6418.294465285359,-0.020199938965317646
6418.295465057573,-0.019909009321509068
6418.296464829788,-0.01961795791969525
6418.297464602004,-0.019326815288324094
6418.298464374219,-0.019035611428629667
6418.299464146435,-0.018744375820676715
6418.300463918649,-0.018453137429620604
6418.301463690865,-0.01816192471217354
6418.30246346308,-0.017870765623268028
6418.303463235296,-0.01757968762290865
6418.304463007511,-0.017288717683203166
6418.3054627797255,-0.01699788229556424
6418.306462551941,-0.01670720747807291
6418.307462324156,-0.016416718782995148
6418.308462096372,-0.0161264413044428
6418.309461868587,-0.015836399686170424
6418.310461640803,-0.015546618129499612
6418.311461413017,-0.015257120401362451
6418.312461185233,-0.01496792984245593
6418.313460957448,-0.014679069375499171
6418.314460729664,-0.0143905615135852
6418.315460501879,-0.014102428368618964
6418.3164602740935,-0.013814691659833034
6418.317460046309,-0.013527372722372373
6418.318459818524,-0.013240492515939286
6418.31945959074,-0.012954071633489621
6418.320459362955,-0.012668130309971293
6418.321459135171,-0.012382688431096205
6418.322458907385,-0.012097765542136853
6418.323458679601,-0.011813380856739136
6418.324458451816,-0.011529553265743179
6418.325458224032,-0.011246301346004272
6418.326457996247,-0.010963643369206261
6418.3274577684615,-0.010681597310659912
6418.328457540677,-0.01040018085807905
6418.329457312892,-0.010119411420327334
6418.330457085108,-0.009839306136128675
6418.331456857323,-0.009559881882734452
6418.332456629538,-0.009281155284540639
6418.333456401753,-0.009003142721648082
6418.334456173969,-0.008725860338359082
6418.335455946184,-0.008449324051603384
6418.3364557184,-0.008173549559286604
6418.337455490615,-0.007898552348554015
6418.3384552628295,-0.007624347703962579
6418.339455035045,-0.007350950715554088
6418.34045480726,-0.007078376286822454
6418.341454579476,-0.00680663914256833
6418.342454351691,-0.006535753836634608
6418.343454123906,-0.00626573475951666
6418.344453896121,-0.0059965961458416425
6418.345453668337,-0.005728352081711617
6418.346453440552,-0.0054610165119056385
6418.347453212768,-0.0051946032469364104
6418.348452984983,-0.0049291259699575166
6418.3494527571975,-0.004664598243517568
6418.350452529413,-0.004401033516158049
6418.351452301628,-0.004138445128851913
6418.352452073844,-0.003876846321280311
6418.353451846059,-0.0036162502379450292
6418.354451618274,-0.0033566699341143202
6418.355451390489,-0.0030981183815998667
6418.356451162705,-0.0028406084743625736
6418.35745093492,-0.002584153033944895
6418.358450707136,-0.002328764814727431
6418.359450479351,-0.0020744565090076595
6418.360450251565,-0.001821240751898924
6418.361450023781,-0.0015691301260481224
6418.362449795996,-0.0013181371661709635
6418.363449568212,-0.0010682743634041001
6418.364449340427,-0.0008195541694738859
6418.365449112642,-0.0005719890006819035
6418.366448884857,-0.0003255912417077651
6418.367448657073,-8.03732492299977e-05
6418.368448429288,0.00016365264463390528
6418.369448201504,0.0004064741290669624
6418.370447973718,0.0006480789114702364
6418.371447745933,0.0008884547145568227
6418.372447518149,0.0011275892736206424
6418.373447290364,0.001365470333978418
6418.37444706258,0.00160208564858332
6418.375446834795,0.001837422975808975
6418.37644660701,0.0020714700774027714
6418.377446379225,0.002304214716607664
6418.378446151441,0.0025356446564519276
6418.379445923656,0.0027657476582064913
6418.380445695872,0.0029945114800095885
6418.381445468086,0.0032219238756584904
6418.382445240301,0.003447972593568025
6418.383445012517,0.0036726453758955057
6418.384444784732,0.003895929957831524
6418.385444556948,0.004117814067055934
6418.386444329163,0.004338285423358214
6418.387444101378,0.0045573317384213
6418.388443873593,0.0047749407157679094
6418.389443645809,0.0049911000508683625
6418.390443418024,0.005205797431408893
6418.391443190239,0.0054190205377194515
6418.392442962454,0.005630757043360045
6418.393442734669,0.005840994615864715
6418.394442506885,0.0060497209176423586
6418.3954422791,0.0062569236070337516
6418.396442051316,0.00646259033952423
6418.39744182353,0.006666708769111647
6418.398441595746,0.006869266549829223
6418.399441367961,0.007070251337422851
6418.400441140177,0.0072696507911822646
6418.401440912392,0.007467452575925121
6418.402440684607,0.007663644364132734
6418.403440456822,0.007858213838235742
6418.404440229037,0.00805114869304756
6418.405440001253,0.008242436638343046
6418.406439773468,0.008432065401579493
6418.407439545684,0.00862002273075666
6418.408439317898,0.008806296397412268
6418.409439090114,0.008990874199749149
6418.410438862329,0.009173743965889977
6418.4114386345445,0.00935489355725534
6418.41243840676,0.009534310872060888
6418.413438178975,0.009711983848929294
6418.41443795119,0.009887900470612925
6418.415437723405,0.010062048767823233
6418.416437495621,0.010234416823163135
6418.417437267836,0.010404992775158845
6418.418437040052,0.0105737648223877
6418.419436812266,0.01074072122769864
6418.420436584482,0.010905850322521986
6418.421436356697,0.011069140511265067
6418.4224361289125,0.011230580275790025
6418.423435901128,0.011390158179969988
6418.424435673343,0.011547862874319387
6418.425435445558,0.011703683100694024
6418.426435217773,0.011857607697056164
6418.427434989989,0.012009625602299711
6418.428434762204,0.012159725861130372
6418.42943453442,0.012307897628995512
6418.430434306634,0.012454130177058355
6418.43143407885,0.012598412897211135
6418.432433851065,0.012740735307121807
6418.4334336232805,0.01288108705530908
6418.434433395496,0.013019457926240707
6418.435433167711,0.013155837845450309
6418.436432939926,0.013290216884668318
6418.437432712141,0.013422585266963088
6418.438432484357,0.01355293337188853
6418.439432256572,0.013681251740634951
6418.440432028788,0.013807531081179993
6418.441431801002,0.013931762273436654
6418.442431573218,0.014053936374395405
6418.443431345433,0.014174044623257364
6418.4444311176485,0.014292078446555436
6418.445430889864,0.014408029463260233
6418.446430662079,0.014521889489867537
6418.447430434294,0.01463365054546402
6418.448430206509,0.01474330485676789
6418.449429978725,0.014850844863141211
6418.45042975094,0.014956263221570667
6418.451429523156,0.01505955281161362
6418.45242929537,0.015160706740306484
6418.453429067586,0.015259718347032563
6418.454428839801,0.01535658120834678
6418.4554286120165,0.01545128914275507
6418.456428384232,0.015543836215446511
6418.457428156446,0.015634216742976628
6418.458427928662,0.01572242529790047
6418.459427700877,0.0158084567133543
6418.460427473093,0.015892306087584695
6418.461427245308,0.015973968788423776
6418.462427017523,0.01605344045770926
6418.463426789738,0.016130717015647746
6418.464426561954,0.01620579466511951
6418.465426334169,0.016278669895922995
6418.4664261063845,0.016349339488956945
6418.4674258786,0.016417800520338116
6418.468425650814,0.016484050365452352
6418.46942542303,0.016548086702936872
6418.470425195245,0.016609907518591628
6418.471424967461,0.01666951110921763
6418.472424739676,0.01672689608638031
6418.473424511891,0.016782061380096136
6418.474424284106,0.016835006242440873
6418.475424056322,0.016885730251078434
6418.476423828537,0.016934233312709376
6418.477423600752,0.016980515666438573
6418.478423372968,0.01702457788706184
6418.479423145182,0.017066420888271528
6418.480422917398,0.017106045925781122
6418.481422689613,0.017143454600368948
6418.482422461829,0.017178648860840896
6418.483422234044,0.017211631006911927
6418.484422006259,0.017242403692005862
6418.485421778474,0.017270969925972882
6418.48642155069,0.017297333077723902
6418.487421322905,0.01732149687778082
6418.48842109512,0.01734346542074162
6418.489420867336,0.017363243167659165
6418.49042063955,0.017380834948332417
6418.491420411766,0.017396245963509038
6418.492420183981,0.017409481786998124
6418.493419956197,0.01742054836769209
6418.494419728412,0.01742945203149674
6418.495419500627,0.01743619948316909
6418.496419272842,0.017440797808062486
6418.4974190450575,0.01744325447377903
6418.498418817273,0.01744357733172953
6418.499418589488,0.017441774618601167
6418.500418361703,0.01743785495773339
6418.501418133918,0.01743182736040219
6418.502417906134,0.017423701227012974
6418.503417678349,0.017413486348201886
6418.504417450565,0.017401192905845388
6418.50541722278,0.017386831473977366
6418.506416994995,0.017370413019613073
6418.50741676721,0.017351948903478753
6418.5084165394255,0.01733145088064573
6418.509416311641,0.01730893110106757
6418.510416083856,0.017284402110018707
6418.511415856071,0.017257876848433017
6418.512415628286,0.017229368653140637
6418.513415400502,0.017198891257001546
6418.514415172717,0.01716645878893462
6418.515414944933,0.0171320857738411
6418.516414717148,0.017095787132421724
6418.517414489363,0.017057578180887135
6418.518414261578,0.017017474630561392
6418.5194140337935,0.016975492587378592
6418.520413806009,0.016931648551272698
6418.521413578224,0.01688595941546061
6418.522413350439,0.016838442465618414
6418.523413122654,0.016789115378950552
6418.52441289487,0.016737996223151377
6418.525412667085,0.016685103455258324
6418.526412439301,0.01663045592039578
6418.527412211515,0.01657407285040848
6418.528411983731,0.01651597386238314
6418.529411755946,0.01645617895705701
6418.5304115281615,0.016394708517111858
6418.531411300377,0.016331583305352067
6418.532411072592,0.016266824462765332
6418.533410844807,0.016200453506464818
6418.534410617022,0.016132492327511665
6418.535410389238,0.016062963188617087
6418.536410161453,0.015991888721723566
6418.537409933669,0.015919291925465023
6418.538409705883,0.01584519616250612
6418.539409478099,0.015769625156761023
6418.540409250314,0.015692602990492167
6418.5414090225295,0.015614154101289421
6418.542408794745,0.015534303278930179
6418.54340856696,0.015453075662120577
6418.544408339175,0.015370496735117995
6418.54540811139,0.015286592324234816
6418.546407883606,0.015201388594223373
6418.547407655821,0.015114912044541962
6418.548407428037,0.015027189505501812
6418.549407200251,0.014938248134295048
6418.550406972467,0.014848115410903664
6418.551406744682,0.014756819133889758
6418.5524065168975,0.014664387416067282
6418.553406289113,0.01457084868005577
6418.554406061328,0.014476231653716753
6418.555405833543,0.014380565365473798
6418.556405605758,0.014283879139517421
6418.557405377974,0.014186202590896525
6418.558405150189,0.014087565620498232
6418.559404922405,0.013987998409918212
6418.560404694619,0.013887531416223642
6418.561404466835,0.013786195366610965
6418.56240423905,0.013684021252960426
6418.563404011265,0.01358104032628921
6418.564403783481,0.013477284091104788
6418.565403555695,0.013372784299659896
6418.566403327911,0.013267572946110395
6418.567403100126,0.013161682260577165
6418.568402872342,0.01305514470311316
6418.569402644557,0.012947992957576643
6418.570402416773,0.01284025992541172
6418.571402188987,0.012731978719337242
6418.572401961203,0.01262318265694532
6418.573401733418,0.012513905254210624
6418.574401505633,0.012404180218912006
6418.575401277849,0.012294041443968007
6418.576401050063,0.012183523000688094
6418.577400822279,0.012072659131941563
6418.578400594494,0.011961484245246163
6418.57940036671,0.01185003290577843
6418.580400138925,0.011738339829307685
6418.581399911141,0.011626439875055437
6418.582399683355,0.011514368038481661
6418.5833994555705,0.01140215944399918
6418.584399227786,0.011289849337617137
6418.585399000001,0.01117747307951425
6418.586398772217,0.011065066136542357
6418.587398544431,0.010952664074660652
6418.588398316647,0.01084030255130089
6418.589398088862,0.010728017307663835
6418.590397861078,0.010615844160947192
6418.591397633293,0.010503818996505343
6418.592397405508,0.010391977759941289
6418.593397177723,0.010280356449131296
6418.5943969499385,0.010168991106182962
6418.595396722154,0.010057917809327684
6418.596396494369,0.009947172664748776
6418.597396266585,0.009836791798346772
6418.598396038799,0.009726811347443704
6418.599395811015,0.009617267452428318
6418.60039558323,0.009508196248344212
6418.601395355446,0.009399633856422885
6418.602395127661,0.00929161637556351
6418.603394899876,0.009184179873761142
6418.604394672091,0.00907736037948487
6418.6053944443065,0.008971193873007209
6418.606394216522,0.008865716277685889
6418.607393988737,0.008760963451199024
6418.608393760953,0.008656971176734541
6418.609393533167,0.00855377515413474
6418.610393305383,0.008451410990996805
6418.611393077598,0.008349914193730107
6418.612392849814,0.008249320158571157
6418.613392622029,0.008149664162557193
6418.614392394244,0.008050981354459454
6418.615392166459,0.007953306745677523
6418.6163919386745,0.007856675201096322
6418.61739171089,0.00776112142990769
6418.618391483105,0.007666679976398756
6418.619391255321,0.007573385210709537
6418.620391027535,0.007481271319562313
6418.621390799751,0.007390372296965338
6418.622390571966,0.007300721934893416
6418.623390344182,0.007212353813947748
6418.624390116397,0.007125301293997326
6418.625389888612,0.007039597504804042
6418.626389660827,0.006955275336633575
6418.6273894330425,0.006872367430854039
6418.628389205258,0.006790906170524351
6418.629388977473,0.006710923670974254
6418.630388749688,0.006632451770377964
6418.631388521903,0.006555522020323504
6418.632388294119,0.00648016567637994
6418.633388066334,0.006406413688664922
6418.63438783855,0.006334296692415243
6418.635387610765,0.006263844998563474
6418.63638738298,0.006195088584324102
6418.637387155195,0.00612805708379301
6418.6383869274105,0.006062779778564412
6418.639386699626,0.005999285588369626
6418.640386471841,0.005937603061742129
6418.641386244056,0.005877760366713348
6418.642386016271,0.005819785281543545
6418.643385788487,0.005763705185492005
6418.644385560702,0.005709547049630542
6418.645385332918,0.005657337427704172
6418.646385105133,0.005607102447042625
6418.647384877348,0.005558867799526259
6418.648384649563,0.0055126587326097985
6418.649384421778,0.0054685000404072915
6418.650384193994,0.005426416054841586
6418.651383966209,0.005386430636861571
6418.652383738424,0.005348567167730428
6418.653383510639,0.005312848540388141
6418.654383282855,0.0052792971508916296
6418.65538305507,0.00524793488993605
6418.656382827286,0.005218783134461047
6418.6573825995,0.005191862739346
6418.658382371716,0.005167194029198537
6418.659382143931,0.0051447967902407705
6418.660381916146,0.0051246902622977515
6418.661381688362,0.005106893130892615
6418.662381460577,0.005091423519452665
6418.663381232792,0.0050782989816303995
6418.664381005007,0.005067536493743102
6418.665380777223,0.005059152447334282
6418.666380549438,0.005053162641859852
6418.667380321654,0.005049582277501585
6418.668380093868,0.005048425948110088
6418.669379866084,0.005049707634279216
6418.670379638299,0.005053440696553584
6418.671379410514,0.005059637868770657
6418.67237918273,0.005068311251538624
6418.673378954945,0.005079472305851198
6418.67437872716,0.005093131846840367
6418.675378499375,0.005109300037668125
6418.676378271591,0.005127986383558215
6418.677378043806,0.005149199725968856
6418.678377816022,0.0051729482369074304
6418.679377588236,0.005199239413387893
6418.680377360452,0.005228080072031517
6418.681377132667,0.00525947634381123
6418.682376904882,0.005293433668939471
6418.683376677098,0.005329956791899036
6418.684376449313,0.00536904975661598
6418.685376221528,0.005410715901773149
6418.686375993743,0.0054549578562625625
6418.687375765959,0.005501777534774468
6418.688375538174,0.005551176133520615
6418.68937531039,0.005603154126089
6418.690375082604,0.005657711259427177
6418.69137485482,0.005714846549951012
6418.692374627035,0.00577455827977569
6418.69337439925,0.005836843993065718
6418.694374171466,0.005901700492500756
6418.69537394368,0.0059691238358542805
6418.696373715896,0.006039109332682339
6418.697373488111,0.006111651541119944
6418.698373260327,0.0061867442647829795
6418.699373032542,0.006264380549773784
6418.7003728047575,0.006344552681788783
6418.701372576972,0.006427252183326759
6418.702372349188,0.006512469810996418
6418.703372121403,0.006600195552922028
6418.704371893618,0.006690418626245914
6418.705371665834,0.006783127474726681
6418.706371438048,0.006878309766432094
6418.707371210264,0.006975952391525709
6418.708370982479,0.007076041460146484
6418.709370754695,0.00717856230038086
6418.71037052691,0.007283499456326994
6418.7113702991255,0.007390836686251155
6418.71237007134,0.007500556960836607
6418.713369843556,0.007612642461525658
6418.714369615771,0.007727074578956025
6418.715369387986,0.007843833911493115
6418.716369160202,0.007962900263860366
6418.717368932416,0.00808425264587026
6418.718368704632,0.008207869271259074
6418.719368476847,0.008333727556628723
6418.720368249063,0.0084618041204993
6418.721368021278,0.008592074782476016
6418.722367793493,0.00872451456253425
6418.723367565708,0.008859097680426344
6418.724367337924,0.008995797555213793
6418.725367110139,0.0091345868049284
6418.726366882354,0.009275437246366005
6418.72736665457,0.009418319895016456
6418.728366426784,0.009563204965133663
6418.729366199,0.009710061869949676
6418.730365971215,0.00985885922203703
6418.731365743431,0.01000956483382376
6418.732365515646,0.010162145718265793
6418.733365287861,0.010316568089681693
6418.734365060076,0.010472797364755142
6418.735364832291,0.010630798163710937
6418.736364604507,0.010790534311670638
6418.737364376722,0.010951968840194466
6418.738364148938,0.011115063989016322
6418.739363921152,0.011279781207978982
6418.740363693368,0.01144608115917663
6418.741363465583,0.0116139237193118
6418.742363237799,0.011783267982273624
6418.743363010014,0.011954072261944159
6418.744362782229,0.012126294095239212
6418.745362554444,0.012299890245389857
6418.746362326659,0.012474816705470642
6418.747362098875,0.012651028702180251
6418.74836187109,0.012828480699880278
6418.749361643306,0.013007126404897604
6418.75036141552,0.01318691877009581
6418.751361187736,0.013367809999720938
6418.752360959951,0.013549751554526864
6418.753360732167,0.013732694157185501
6418.754360504382,0.013916587797987061
6418.755360276597,0.014101381740835788
6418.756360048812,0.014287024529546702
6418.757359821027,0.014473463994449109
6418.758359593243,0.01466064725930276
6418.759359365458,0.014848520748532582
6418.760359137674,0.015037030194787866
6418.761358909888,0.015226120646831704
6418.762358682104,0.015415736477766097
6418.763358454319,0.015605821393597886
6418.764358226535,0.015796318442150233
6418.76535799875,0.0159871700223239
6418.7663577709645,0.016178317893712227
6418.76735754318,0.016369703186573308
6418.768357315395,0.01656126641216258
6418.769357087611,0.016752947473428762
6418.770356859826,0.016944685676075908
6418.771356632041,0.01713641973999418
6418.772356404256,0.017328087811061765
6418.773356176472,0.017519627473320375
6418.774355948687,0.01771097576152667
6418.775355720903,0.01790206917408201
6418.776355493118,0.018092843686342987
6418.7773552653325,0.018283234764315273
6418.778355037548,0.01847317737873344
6418.779354809763,0.018662606019529338
6418.780354581979,0.018851454710691502
6418.781354354194,0.019039657025517947
6418.782354126409,0.019227146102264336
6418.783353898624,0.019413854660189155
6418.78435367084,0.019599715015997197
6418.785353443055,0.01978465910068222
6418.786353215271,0.019968618476769246
6418.787352987486,0.020151524355956758
6418.7883527597005,0.020333307617158677
6418.789352531916,0.020513898824945854
6418.790352304131,0.020693228248386677
6418.791352076347,0.020871225880286347
6418.792351848562,0.021047821456824448
6418.793351620777,0.02122294447759044
6418.794351392992,0.02139652422601693
6418.795351165208,0.02156848979021083
6418.796350937423,0.021738770084182728
6418.797350709639,0.02190729386947513
6418.798350481853,0.022073989777190293
6418.7993502540685,0.022238786330418665
6418.800350026284,0.022401611967068698
6418.801349798499,0.022562395063098897
6418.802349570715,0.022721063956152587
6418.80334934293,0.02287754696959572
6418.804349115145,0.023031772436957646
6418.80534888736,0.023183668726774437
6418.806348659576,0.023333164267833842
6418.807348431791,0.02348018757482071
6418.808348204007,0.023624667274361234
6418.809347976221,0.023766532131463906
6418.8103477484365,0.02390571107635482
6418.811347520652,0.024042133231704493
6418.812347292867,0.02417572794024291
6418.813347065083,0.024306424792759383
6418.814346837298,0.02443415365648324
6418.815346609513,0.02455884470384144
6418.816346381728,0.024680428441588898
6418.817346153944,0.02479883574030717
6418.818345926159,0.024913997864267002
6418.819345698375,0.025025846501649966
6418.820345470589,0.02513431379512413
6418.8213452428045,0.025239332372768222
6418.82234501502,0.0253408353793383
6418.823344787235,0.025438756507870322
6418.824344559451,0.025533030031611254
6418.825344331666,0.025623590836270835
6418.826344103881,0.025710374452585415
6418.827343876096,0.02579331708918451
6418.828343648312,0.02587235566575029
6418.829343420527,0.025947427846459363
6418.830343192743,0.026018472073695658
6418.831342964957,0.02608542760202247
6418.832342737172,0.026148234532400963
6418.833342509388,0.026206833846641506
6418.834342281603,0.026261167442073446
6418.835342053819,0.026311178166417606
6418.836341826033,0.026356809852844876
6418.837341598249,0.026398007355202688
6418.838341370464,0.026434716583389764
6418.83934114268,0.026466884538857743
6418.840340914895,0.02649445935021633
6418.841340687111,0.02651739030891646
6418.842340459325,0.02653562790498351
6418.84334023154,0.026549123862769964
6418.844340003756,0.026557831176694083
6418.845339775971,0.02656170414692827
6418.846339548187,0.02656069841499773
6418.847339320401,0.026554770999246954
6418.848339092617,0.026543880330128583
6418.849338864832,0.0265279862852662
6418.850338637048,0.026507050224239544
6418.851338409263,0.02648103502303802
6418.852338181478,0.026449905108125542
6418.853337953693,0.026413626490057435
6418.854337725908,0.02637216679658794
6418.855337498124,0.026325495305205185
6418.856337270339,0.02627358297502884
6418.857337042555,0.026216402478004868
6418.858336814769,0.026153928229330985
6418.859336586985,0.026086136417045925
6418.8603363592,0.026013005030715936
6418.861336131416,0.025934513889152164
6418.862335903631,0.025850644667093584
6418.8633356758455,0.025761380920791405
6418.864335448061,0.025666708112432872
6418.865335220276,0.025566613633344653
6418.866334992492,0.025461086825918945
6418.867334764707,0.025350119004208475
6418.868334536923,0.0252337034731402
6418.869334309137,0.025111835546300972
6418.870334081353,0.024984512562252224
6418.871333853568,0.024851733899334597
6418.872333625784,0.024713500988927353
6418.873333397999,0.02456981732713166
6418.8743331702135,0.024420688484851353
6418.875332942429,0.024266122116249286
6418.876332714644,0.024106127965562014
6418.87733248686,0.023940717872260216
6418.878332259075,0.02376990577454645
6418.879332031291,0.023593707711186157
6418.880331803505,0.02341214182167162
6418.881331575721,0.02322522834472215
6418.882331347936,0.023032989615127147
6418.883331120152,0.02283545005894186
6418.884330892367,0.022632636187048766
6418.8853306645815,0.022424576587100675
6418.886330436797,0.02221130191386469
6418.887330209012,0.021992844877989366
6418.888329981228,0.02176924023322052
6418.889329753443,0.02154052476209421
6418.890329525659,0.02130673726013804
6418.891329297873,0.02106791851861452
6418.892329070089,0.0208241113058424
6418.893328842304,0.02057536034713385
6418.89432861452,0.020321712303387127
6418.895328386735,0.02006321574837571
6418.8963281589495,0.019799921144776206
6418.897327931165,0.019531880818978272
6418.89832770338,0.019259148934720628
6418.899327475596,0.018981781465597564
6418.900327247811,0.018699836166480726
6418.901327020026,0.01841337254390096
6418.902326792241,0.018122451825434732
6418.903326564457,0.017827136928139406
6418.904326336672,0.017527492426081037
6418.905326108888,0.017223584516997816
6418.906325881103,0.0169154809881416
6418.9073256533175,0.01660325118133928
6418.908325425533,0.016286965957315172
6418.909325197748,0.015966697659314875
6418.910324969964,0.01564252007607056
6418.911324742179,0.015314508404147017
6418.912324514394,0.014982739209707337
6418.913324286609,0.014647290389736563
6418.914324058825,0.014308241132761326
6418.91532383104,0.013965671879103062
6418.916323603256,0.013619664280702213
6418.917323375471,0.0132703011605504
6418.918323147685,0.012917666471767245
6418.919322919901,0.012561845256358081
6418.920322692116,0.012202923603688175
6418.921322464332,0.011840988608708521
6418.922322236547,0.011476128329967495
6418.923322008762,0.01110843174744189
6418.924321780977,0.010737988720219957
6418.925321553193,0.010364889944068163
6418.926321325408,0.009989226908912578
6418.927321097624,0.009611091856264903
6418.928320869838,0.009230577736622309
6418.929320642053,0.00884777816686942
6418.930320414269,0.008462787387710008
6418.931320186484,0.008075700221155141
6418.9323199587,0.007686612028093822
6418.933319730915,0.007295618665971476
6418.93431950313,0.0069028164466010756
6418.935319275345,0.006508302094131249
6418.936319047561,0.00611217270319529
6418.937318819776,0.005714525697264608
6418.938318591991,0.005315458787229759
6418.939318364206,0.004915069930231686
6418.940318136421,0.004513457288765185
6418.941317908637,0.0041107191900759555
6418.942317680852,0.003706954085871773
6418.943317453068,0.0033022605123674328
6418.944317225283,0.002896737050682215
6418.945316997498,0.0024904822876076396
6418.946316769713,0.0020835947767623526
6418.947316541929,0.0016761730001500857
6418.948316314144,0.0012683153301358049
6418.949316086359,0.0008601199918543337
6418.950315858574,0.00045168502606495413
6418.951315630789,4.310825246470981e-05
6418.952315403005,-0.00036551276652759316
6418.95331517522,-0.000774080761505344
6418.954314947436,-0.0011824987913152446
6418.955314719651,-0.0015906702777952187
6418.956314491866,-0.001998499039999096
6418.957314264081,-0.00240588932789838
6418.9583140362965,-0.002812745855551756
6418.959313808512,-0.0032189738337334377
6418.960313580727,-0.003624479002011976
6418.961313352942,-0.004029167660271762
6418.962313125157,-0.004432946699670152
6418.963312897373,-0.004835723633023824
6418.964312669588,-0.0052374066246186875
6418.965312441804,-0.005637904519438326
6418.966312214018,-0.006037126871806575
6418.967311986234,-0.006434983973440403
6418.968311758449,-0.006831386880909664
6418.9693115306645,-0.007226247442500699
6418.97031130288,-0.007619478324481024
6418.971311075095,-0.008010993036762585
6418.97231084731,-0.008400705957961217
6418.973310619525,-0.008788532359850143
6418.974310391741,-0.009174388431205327
6418.975310163956,-0.009558191301040584
6418.976309936172,-0.009939859061230277
6418.977309708386,-0.01031931078851747
6418.978309480602,-0.010696466565905425
6418.979309252817,-0.011071247503430451
6418.9803090250325,-0.011443575758314423
6418.981308797248,-0.0118133745544956
6418.982308569463,-0.0121805682015368
6418.983308341678,-0.012545082112910428
6418.984308113893,-0.012906842823660369
6418.985307886109,-0.013265778007441048
6418.986307658324,-0.013621816492934436
6418.98730743054,-0.01397488827964605
6418.988307202754,-0.01432492455308131
6418.98930697497,-0.014671857699303894
6418.990306747185,-0.015015621318878056
6418.9913065194005,-0.015356150240197004
6418.992306291616,-0.015693380532199798
6418.993306063831,-0.016027249516479217
6418.994305836046,-0.016357695778783148
6418.995305608261,-0.016684659179911975
6418.996305380477,-0.01700808086601435
6418.997305152692,-0.017327903278283572
6418.998304924908,-0.017644070162056866
6418.999304697122,-0.017956526575319653
6419.000304469338,-0.018265218896617197
6419.001304241553,-0.01857009483237615
6419.0023040137685,-0.018871103423638867
6419.003303785984,-0.019168195052213646
6419.004303558198,-0.019461321446244514
6419.005303330414,-0.019750435685204532
6419.006303102629,-0.02003549220431692
6419.007302874845,-0.020316446798408615
6419.00830264706,-0.020593256625201267
6419.009302419276,-0.020865880208044717
6419.01030219149,-0.02113427743809847
6419.011301963706,-0.021398409575966747
6419.012301735921,-0.021658239252792907
6419.0133015081365,-0.021913730470819286
6419.014301280352,-0.022164848603418587
6419.015301052566,-0.022411560394602983
6419.016300824782,-0.022653833958017056
6419.017300596997,-0.022891638775420775
6419.018300369213,-0.0231249456946685
6419.019300141428,-0.023353726927190153
6419.020299913644,-0.02357795604498058
6419.021299685858,-0.023797607977103608
6419.022299458074,-0.024012659005717262
6419.023299230289,-0.02422308676162713
6419.024299002504,-0.024428870219375225
6419.02529877472,-0.024629989691871867
6419.026298546934,-0.02482642682457852
6419.02729831915,-0.02501816458924968
6419.028298091365,-0.025205187277242195
6419.029297863581,-0.025387480492400413
6419.030297635796,-0.025565031143525794
6419.031297408011,-0.025737827436439705
6419.032297180226,-0.02590585886564806
6419.033296952442,-0.02606911620561655
6419.034296724657,-0.026227591501664982
6419.035296496872,-0.026381278060489212
6419.036296269088,-0.026530170440318985
6419.037296041302,-0.02667426444071965
6419.038295813518,-0.026813557092045644
6419.039295585733,-0.026948046644553497
6419.040295357949,-0.02707773255718219
6419.041295130164,-0.02720261548600857
6419.042294902379,-0.027322697272385815
6419.043294674594,-0.027437980930773074
6419.0442944468095,-0.02754847063626467
6419.045294219025,-0.0276541717118274
6419.04629399124,-0.027755090615254635
6419.047293763456,-0.027851234925846097
6419.04829353567,-0.027942613330822257
6419.049293307886,-0.028029235611482302
6419.050293080101,-0.028111112629114744
6419.051292852317,-0.028188256310669603
6419.052292624532,-0.028260679634201192
6419.053292396747,-0.02832839661409038
6419.054292168962,-0.02839142228605525
6419.0552919411775,-0.028449772691958714
6419.056291713393,-0.028503464864421513
6419.057291485608,-0.028552516811248582
6419.058291257823,-0.028596947499676745
6419.059291030038,-0.0286367768404513
6419.060290802254,-0.028672025671739067
6419.061290574469,-0.028702715742885486
6419.062290346685,-0.02872886969802346
6419.0632901189,-0.028750511059541694
6419.064289891115,-0.02876766421142046
6419.06528966333,-0.028780354382442946
6419.0662894355455,-0.02878860762929038
6419.067289207761,-0.028792450819529324
6419.068288979976,-0.028791911614499722
6419.069288752191,-0.028787018452112335
6419.070288524406,-0.028777800529564385
6419.071288296622,-0.028764287785982435
6419.072288068837,-0.028746510885001412
6419.073287841053,-0.028724501197288917
6419.074287613268,-0.02869829078302381
6419.075287385483,-0.028667912374338037
6419.076287157698,-0.028633399357730387
6419.0772869299135,-0.028594785756460794
6419.078286702129,-0.028552106212933536
6419.079286474344,-0.028505395971077662
6419.080286246559,-0.02845469085873268
6419.081286018774,-0.028400027270047794
6419.08228579099,-0.028341442147903007
6419.083285563205,-0.02827897296636053
6419.084285335421,-0.028212657713155256
6419.085285107636,-0.02814253487223323
6419.086284879851,-0.0280686434063472
6419.087284652066,-0.02799102273971855
6419.0882844242815,-0.02790971274077489
6419.089284196497,-0.027824753704972657
6419.090283968712,-0.027736186337714172
6419.091283740927,-0.027644051737368273
6419.092283513142,-0.027548391378403887
6419.093283285358,-0.027449247094645586
6419.094283057573,-0.027346661062659913
6419.095282829789,-0.027240675785281165
6419.096282602003,-0.02713133407528486
6419.097282374219,-0.027018679039216873
6419.098282146434,-0.026902754061385776
6419.0992819186495,-0.026783602788025797
6419.100281690865,-0.02666126911163749
6419.10128146308,-0.026535797155513175
6419.102281235295,-0.026407231258454147
6419.10328100751,-0.026275615959686593
6419.104280779726,-0.026140995983983166
6419.105280551941,-0.026003416226997086
6419.106280324157,-0.025862921740815704
6419.107280096371,-0.02571955771974018
6419.108279868587,-0.025573369486297858
6419.109279640802,-0.02542440247749361
6419.110279413017,-0.025272702231306243
6419.111279185233,-0.0251183143734357
6419.112278957448,-0.02496128460430652
6419.113278729663,-0.024801658686332537
6419.114278501878,-0.02463948243144739
6419.115278274094,-0.0244748016889047
6419.116278046309,-0.02430766233335141
6419.117277818525,-0.024138110253176737
6419.118277590739,-0.02396619133913888
6419.119277362955,-0.023791951473270824
6419.12027713517,-0.023615436518066205
6419.121276907385,-0.02343669230594581
6419.122276679601,-0.02325576462900496
6419.123276451815,-0.023072699229041746
6419.124276224031,-0.02288754178786586
6419.125275996246,-0.022700337917887666
6419.126275768462,-0.022511133152986765
6419.127275540677,-0.02231997293965925
6419.128275312893,-0.022126902628442517
6419.129275085107,-0.0219319674656162
6419.130274857323,-0.021735212585177507
6419.131274629538,-0.021536683001088987
6419.132274401753,-0.021336423599796105
6419.133274173969,-0.021134479133011908
6419.134273946183,-0.02093089421076538
6419.135273718399,-0.020725713294709475
6419.136273490614,-0.020518980691684313
6419.13727326283,-0.020310740547530296
6419.138273035045,-0.02010103684114542
6419.139272807261,-0.019889913378780516
6419.140272579475,-0.01967741378856602
6419.1412723516905,-0.019463581515263468
6419.142272123906,-0.01924845981523513
6419.143271896121,-0.019032091751624992
6419.144271668337,-0.0188145201897446
6419.145271440551,-0.01859578779265726
6419.146271212767,-0.018375937016954332
6419.147270984982,-0.01815501010871745
6419.148270757198,-0.017933049099660574
6419.149270529413,-0.017710095803445968
6419.150270301629,-0.017486191812168286
6419.151270073843,-0.017261378493000988
6419.1522698460585,-0.017035696984999453
6419.153269618274,-0.016809188196055168
6419.154269390489,-0.01658189279999517
6419.155269162705,-0.016353851233820958
6419.156268934919,-0.01612510369508073
6419.157268707135,-0.015895690139368684
6419.15826847935,-0.015665650277944775
6419.159268251566,-0.015435023575468268
6419.160268023781,-0.015203849247838228
6419.161267795996,-0.014972166260134255
6419.162267568211,-0.01474001332465082
6419.1632673404265,-0.014507428899018874
6419.164267112642,-0.014274451184408747
6419.165266884857,-0.01404111812380865
6419.166266657073,-0.013807467400373538
6419.167266429287,-0.013573536435839438
6419.168266201503,-0.013339362388998674
6419.169265973718,-0.013104982154231769
6419.170265745934,-0.012870432360092093
6419.171265518149,-0.012635749367939625
6419.172265290364,-0.01240096927062042
6419.173265062579,-0.0121661278911886
6419.1742648347945,-0.011931260781667842
6419.17526460701,-0.011696403221849382
6419.176264379225,-0.01146159021812356
6419.177264151441,-0.011226856502341969
6419.178263923655,-0.01099223653070725
6419.179263695871,-0.010757764482687684
6419.180263468086,-0.01052347425995394
6419.181263240302,-0.01028939948533549
6419.182263012517,-0.010055573501794573
6419.183262784732,-0.009822029371415799
6419.184262556947,-0.009588799874409835
6419.1852623291625,-0.009355917508129915
6419.186262101378,-0.009123414486100108
6419.187261873593,-0.008891322737054555
6419.188261645808,-0.00865967390398709
6419.189261418023,-0.008428499343210823
6419.190261190239,-0.008197830123427492
6419.191260962454,-0.007967697024806616
6419.19226073467,-0.0077381305380747
6419.193260506885,-0.007509160863614927
6419.1942602791,-0.007280817910577831
6419.195260051315,-0.007053131296003572
6419.19625982353,-0.0068261303439563605
6419.197259595746,-0.006599844084671644
6419.198259367961,-0.006374301253716702
6419.199259140176,-0.006149530291165408
6419.200258912391,-0.005925559340788123
6419.201258684607,-0.0057024162492579
6419.202258456822,-0.005480128565374518
6419.203258229038,-0.005258723539308119
6419.204258001253,-0.005038228121864546
6419.205257773468,-0.004818668963774716
6419.206257545683,-0.004600072415010518
6419.207257317898,-0.004382464524129831
6419.208257090114,-0.004165871037653317
6419.209256862329,-0.003950317399475685
6419.210256634544,-0.003735828750314085
6419.211256406759,-0.0035224299271962396
6419.212256178975,-0.003310145462990831
6419.21325595119,-0.00309899958598251
6419.214255723406,-0.002889016219493704
6419.215255495621,-0.0026802189815551746
6419.216255267836,-0.0024726311846270405
6419.217255040051,-0.0022662758353717244
6419.218254812266,-0.0020611756344800745
6419.219254584482,-0.0018573529765517425
6419.220254356697,-0.0016548299500307982
6419.221254128912,-0.0014536283371975422
6419.222253901127,-0.0012537696142175042
6419.223253673343,-0.0010552749512487045
6419.224253445558,-0.0008581652126083416
6419.225253217774,-0.0006624609570001368
6419.226252989988,-0.00046818243780361144
6419.227252762204,-0.0002753496034265564
6419.228252534419,-8.398209772192053e-05
6419.229252306634,0.00010590073952973443
6419.23025207885,0.00029427987207115633
6419.231251851065,0.00048113656655177263
6419.23225162328,0.0006664523918427354
6419.233251395495,0.0008502092182830775
6419.234251167711,0.001032389216856685
6419.235250939926,0.001212974858300119
6419.236250712142,0.001391948912141682
6419.237250484356,0.0015692944456724856
6419.238250256572,0.0017449948228505973
6419.239250028787,0.001919033703139582
6419.240249801002,0.002091395040282891
6419.241249573218,0.0022620630810155744
6419.242249345433,0.0024310223637147264
6419.243249117648,0.0025982577169899376
6419.244248889863,0.002763754258214862
6419.245248662079,0.0029274973920008452
6419.246248434294,0.003089472808613411
6419.2472482065095,0.0032496664823322948
6419.248247978724,0.0034080646697556
6419.24924775094,0.0035646539080485626
6419.250247523155,0.0037194210131373698
6419.25124729537,0.00387235307784841
6419.252247067586,0.004023437469993318
6419.2532468398,0.004172661830400257
6419.254246612016,0.00432001407089199
6419.255246384231,0.0044654823722115634
6419.256246156447,0.00460905518189672
6419.257245928662,0.00475072121210452
6419.2582457008775,0.00489046943738799
6419.259245473092,0.005028289092426877
6419.260245245308,0.005164169669714766
6419.261245017523,0.005298100917204903
6419.262244789738,0.005430072835917031
6419.263244561954,0.005560075677507431
6419.264244334168,0.005688099941804255
6419.265244106384,0.005814136374310063
6419.266243878599,0.005938175963673347
6419.267243650815,0.0060602099391307215
6419.26824342303,0.0061802297679214345
6419.2692431952455,0.006298227152675849
6419.27024296746,0.006414194028779567
6419.271242739676,0.006528122561714921
6419.272242511891,0.006640005144381626
6419.273242284106,0.0067498343943984945
6419.274242056322,0.006857603151388259
6419.275241828536,0.006963304474247773
6419.276241600752,0.0070669316384061225
6419.277241372967,0.007168478133073472
6419.278241145183,0.00726793765848369
6419.279240917398,0.007365304123133981
6419.2802406896135,0.007460571641024791
6419.281240461828,0.007553734528903142
6419.282240234044,0.007644787303512375
6419.283240006259,0.007733724678850971
6419.284239778474,0.007820541563442772
6419.28523955069,0.007905233057620609
6419.286239322904,0.007987794450825031
6419.28723909512,0.008068221218919563
6419.288238867335,0.008146509021523746
6419.289238639551,0.00822265369936511
6419.290238411766,0.008296651271651165
6419.291238183981,0.008368497933462464
6419.292237956196,0.00843819005316783
6419.293237728411,0.008505724169862994
6419.294237500627,0.008571096990834061
6419.295237272842,0.008634305389047536
6419.296237045058,0.00869534640066904
6419.297236817272,0.008754217222613186
6419.298236589488,0.00881091521012753
6419.299236361703,0.008865437874413724
6419.300236133919,0.00891778288028932
6419.301235906134,0.008967948043893649
6419.302235678349,0.009015931330441252
6419.303235450564,0.009061730852026214
6419.304235222779,0.00910534486548064
6419.305234994995,0.009146771770290277
6419.30623476721,0.009186010106570195
6419.307234539426,0.009223058553103184
6419.30823431164,0.009257915925443415
6419.309234083856,0.009290581174087724
6419.310233856071,0.00932105338271675
6419.311233628287,0.009349331766507941
6419.312233400502,0.009375415670522365
6419.3132331727165,0.009399304568167158
6419.314232944932,0.009420998059735439
6419.315232717147,0.009440495871025625
6419.316232489363,0.00945779785204226
6419.317232261578,0.009472903975780638
6419.318232033793,0.00948581433709766
6419.319231806008,0.009496529151671469
6419.320231578224,0.00950504875505238
6419.321231350439,0.009511373601807496
6419.322231122655,0.00951550426476128
6419.32323089487,0.009517441434334055
6419.3242306670845,0.009517185917980144
6419.3252304393,0.009514738639727004
6419.326230211515,0.009510100639816424
6419.327229983731,0.009503273074448593
6419.328229755946,0.009494257215629512
6419.329229528161,0.00948305445112211
6419.330229300376,0.009469666284501157
6419.331229072592,0.009454094335311894
6419.332228844807,0.009436340339332237
6419.333228617023,0.009416406148938291
6419.334228389238,0.009394293733572987
6419.3352281614525,0.009370005180317777
6419.336227933668,0.009343542694567481
6419.337227705883,0.009314908600808663
6419.338227478099,0.009284105343502026
6419.339227250314,0.00925113548806948
6419.340227022529,0.009216001721986467
6419.341226794744,0.009178706855980007
6419.34222656696,0.009139253825332701
6419.343226339175,0.009097645691292627
6419.344226111391,0.009053885642588732
6419.345225883606,0.009007976997050969
6419.3462256558205,0.008959923203334125
6419.347225428036,0.008909727842743924
6419.348225200251,0.008857394631163706
6419.349224972467,0.00880292742107969
6419.350224744682,0.008746330203702635
6419.351224516897,0.008687607111183474
6419.352224289112,0.008626762418920441
6419.353224061328,0.00856380054795519
6419.354223833543,0.008498726067455437
6419.355223605759,0.008431543697281902
6419.356223377973,0.008362258310637461
6419.3572231501885,0.008290874936796701
6419.358222922404,0.00821739876391418
6419.359222694619,0.00814183514190966
6419.360222466835,0.008064189585428531
6419.36122223905,0.007984467776875323
6419.362222011265,0.00790267556951793
6419.36322178348,0.007818818990659811
6419.364221555696,0.007732904244876986
6419.365221327911,0.007644937717316354
6419.366221100127,0.007554925977051405
6419.367220872341,0.00746287578049117
6419.3682206445565,0.007368794074837902
6419.369220416772,0.007272688001588705
6419.370220188987,0.007174564900076118
6419.371219961203,0.007074432311042444
6419.372219733418,0.006972297980242487
6419.373219505633,0.006868169862069314
6419.374219277848,0.006762056123197746
6419.375219050064,0.006653965146240438
6419.376218822279,0.006543905533411668
6419.377218594495,0.006431886110194256
6419.378218366709,0.006317915929005273
6419.379218138924,0.006202004272856468
6419.38021791114,0.006084160659005398
6419.381217683355,0.005964394842593331
6419.382217455571,0.005842716820265848
6419.383217227785,0.005719136833771943
6419.384217000001,0.005593665373537159
6419.385216772216,0.005466313182206125
6419.386216544432,0.005337091258149645
6419.387216316647,0.0052060108589313744
6419.388216088863,0.005073083504729002
6419.389215861077,0.0049383209817048775
6419.390215633292,0.004801735345320998
6419.391215405508,0.0046633389235933445
6419.392215177723,0.004523144320280709
6419.393214949939,0.004381164418003344
6419.394214722153,0.004237412381287066
6419.395214494369,0.0040919016595288285
6419.396214266584,0.003944645989880179
6419.3972140388,0.003795659400045457
6419.398213811015,0.003644956210992012
6419.39921358323,0.003492551039570034
6419.400213355445,0.0033384588010398593
6419.40121312766,0.0031826947115047395
6419.402212899876,0.0030252742902471172
6419.403212672091,0.002866213361966414
6419.404212444307,0.0027055280589162282
6419.405212216521,0.002543234822938788
6419.406211988737,0.00237935040739443
6419.407211760952,0.0022138918789838856
6419.408211533168,0.0020468766194611894
6419.409211305383,0.0018783223272351122
6419.410211077598,0.0017082470188571433
6419.411210849813,0.0015366690303941957
6419.412210622028,0.001363607018684388
6419.413210394244,0.0011890799624744931
6419.414210166459,0.00101310716343793
6419.415209938675,0.0008357082470725338
6419.416209710889,0.000656903163477754
6419.417209483105,0.0004767121880113398
6419.41820925532,0.0002951559218259492
6419.419209027536,0.00011225529228640352
6419.420208799751,-7.196844673153645e-05
6419.4212085719655,-0.000257493714659975
6419.422208344181,-0.0004442986041744784
6419.423208116396,-0.0006323608812458898
6419.424207888612,-0.0008216579853080586
6419.425207660827,-0.0010121670295414609
6419.426207433043,-0.0012038648012729434
6419.427207205257,-0.001396727762492019
6419.428206977473,-0.0015907320504842948
6419.429206749688,-0.0017858534785827104
6419.430206521904,-0.0019820675370373175
6419.431206294119,-0.002179349394004366
6419.4322060663335,-0.0023776738966554316
6419.433205838549,-0.0025770155724072546
6419.434205610764,-0.002777348630272817
6419.43520538298,-0.00297864696233397
6419.436205155195,-0.003180884145335669
6419.437204927411,-0.0033840334424015974
6419.438204699625,-0.003588067804870756
6419.439204471841,-0.0037929598742544772
6419.440204244056,-0.003998681984313311
6419.441204016272,-0.004205206163253308
6419.442203788487,-0.004412504136041401
6419.4432035607015,-0.004620547326839798
6419.444203332917,-0.004829306861559554
6419.445203105132,-0.0050387535705336915
6419.446202877348,-0.005248857991310535
6419.447202649563,-0.005459590371568071
6419.448202421778,-0.005670920672150357
6419.449202193993,-0.005882818570227152
6419.450201966209,-0.006095253462578017
6419.451201738424,-0.006308194469002254
6419.45220151064,-0.006521610435856054
6419.453201282855,-0.006735469939718236
6419.4542010550695,-0.006949741291185901
6419.455200827285,-0.007164392538801155
6419.4562005995,-0.007379391473109893
6419.457200371716,-0.007594705630853387
6419.458200143931,-0.007810302299293221
6419.459199916146,-0.008026148520669933
6419.460199688361,-0.008242211096795632
6419.461199460577,-0.008458456593780833
6419.462199232792,-0.008674851346895834
6419.463199005008,-0.008891361465567054
6419.464198777223,-0.009107952838508983
6419.465198549437,-0.009324591138992604
6419.466198321653,-0.00954124183025135
6419.467198093868,-0.009757870171025843
6419.468197866084,-0.009974441221248811
6419.469197638299,-0.010190919847871597
6419.470197410514,-0.01040727073083378
6419.471197182729,-0.010623458369177377
6419.472196954945,-0.010839447087306973
6419.47319672716,-0.011055201041397006
6419.474196499376,-0.01127068422594712
6419.475196271591,-0.01148586048048614
6419.476196043805,-0.011700693496424759
6419.477195816021,-0.011915146824056476
6419.478195588236,-0.012129183879705897
6419.479195360452,-0.01234276795302308
6419.480195132667,-0.012555862214422248
6419.481194904882,-0.012768429722662995
6419.482194677097,-0.012980433432571952
6419.483194449313,-0.013191836202902799
6419.484194221528,-0.013402600804332525
6419.485193993743,-0.01361268992759175
6419.486193765958,-0.013822066191727012
6419.487193538173,-0.014030692152492794
6419.488193310389,-0.0142385303108711
6419.489193082604,-0.014445543121716238
6419.49019285482,-0.014651693002522255
6419.491192627035,-0.014856942342310366
6419.49219239925,-0.015061253510633334
6419.493192171465,-0.015264588866693556
6419.494191943681,-0.015466910768571117
6419.495191715896,-0.01566818158255777
6419.496191488111,-0.015868363692592192
6419.497191260326,-0.016067419509791486
6419.498191032541,-0.016265311482073323
6419.499190804757,-0.016462002103862745
6419.500190576972,-0.016657453925877305
6419.501190349188,-0.01685162956498401
6419.502190121403,-0.017044491714121413
6419.503189893618,-0.017236003152280077
6419.504189665833,-0.017426126754534702
6419.505189438049,-0.0176148255021211
6419.506189210264,-0.017802062492551268
6419.507188982479,-0.01798780094975972
6419.508188754694,-0.018172004234274158
6419.509188526909,-0.01835463585340355
6419.510188299125,-0.018535659471436625
6419.51118807134,-0.018715038919843743
6419.512187843556,-0.01889273820747505
6419.51318761577,-0.019068721530747786
6419.514187387986,-0.01924295328381527
6419.515187160201,-0.019415398068710017
6419.5161869324165,-0.019586020705453008
6419.517186704632,-0.019754786242120802
6419.518186476847,-0.01992165996486184
6419.519186249062,-0.02008660740785311
6419.520186021277,-0.020249594363188166
6419.521185793493,-0.020410586890687536
6419.522185565708,-0.020569551327622622
6419.523185337924,-0.02072645429834449
6419.524185110138,-0.020881262723809014
6419.525184882354,-0.02103394383099019
6419.526184654569,-0.021184465162173653
6419.5271844267845,-0.02133279458412263
6419.528184199,-0.021478900297108687
6419.529183971215,-0.02162275084379986
6419.53018374343,-0.021764315117998874
6419.531183515645,-0.021903562373224293
6419.532183287861,-0.022040462231127465
6419.533183060076,-0.02217498468973825
6419.534182832292,-0.02230710013153242
6419.535182604506,-0.022436779331313675
6419.536182376722,-0.02256399346390305
6419.537182148937,-0.0226887141116284
6419.5381819211525,-0.0228109132716068
6419.539181693368,-0.022930563362812507
6419.540181465583,-0.023047637232923416
6419.541181237798,-0.023162108164939313
6419.542181010013,-0.023273949883565355
6419.543180782229,-0.023383136561354847
6419.544180554444,-0.023489642824605653
6419.54518032666,-0.02359344375900517
6419.546180098874,-0.0236945149150192
6419.54717987109,-0.023792832313020356
6419.548179643305,-0.02388837244815217
6419.5491794155205,-0.023981112294925257
6419.550179187736,-0.024071029311542348
6419.55117895995,-0.024158101443949212
6419.552178732166,-0.02424230712960867
6419.553178504381,-0.024323625300995275
6419.554178276597,-0.024402035388808238
6419.555178048812,-0.02447751732490034
6419.556177821028,-0.024550051544920744
6419.557177593242,-0.024619618990669608
6419.558177365458,-0.024686201112162538
6419.559177137673,-0.0247497798694031
6419.5601769098885,-0.02481033773386177
6419.561176682104,-0.024867857689660103
6419.562176454318,-0.02492232323445929
6419.563176226534,-0.02497371838005269
6419.564175998749,-0.025022027652662447
6419.565175770965,-0.025067236092940787
6419.56617554318,-0.025109329255677135
6419.567175315396,-0.02514829320921266
6419.56817508761,-0.025184114534564133
6419.569174859826,-0.02521678032425954
6419.570174632041,-0.02524627818088802
6419.571174404256,-0.025272596215367177
6419.572174176472,-0.025295723044931
6419.573173948686,-0.025315647790841896
6419.574173720902,-0.025332360075830444
6419.575173493117,-0.02534585002126653
6419.576173265333,-0.025356108244065735
6419.577173037548,-0.025363125853334764
6419.578172809763,-0.02536689444675987
6419.579172581978,-0.02536740610674244
6419.580172354194,-0.02536465339628619
6419.581172126409,-0.025358629354640772
6419.582171898624,-0.025349327492707165
6419.58317167084,-0.02533674178821065
6419.584171443054,-0.025320866680647897
6419.58517121527,-0.02530169706601515
6419.586170987485,-0.025279228291325073
6419.587170759701,-0.02525345614892035
6419.588170531916,-0.025224376870592594
6419.589170304131,-0.02519198712151561
6419.590170076346,-0.025156283994002448
6419.591169848562,-0.025117265001096366
6419.592169620777,-0.025074928070005945
6419.593169392992,-0.025029271535395213
6419.594169165208,-0.024980294132539764
6419.595168937422,-0.02492799499036009
6419.596168709638,-0.024872373624343514
6419.597168481853,-0.024813429929366037
6419.598168254069,-0.024751164172425698
6419.599168026284,-0.02468557698529897
6419.600167798499,-0.024616669357132054
6419.601167570714,-0.024544442626978958
6419.6021673429295,-0.024468898476298642
6419.603167115145,-0.024390038921423607
6419.60416688736,-0.024307866306012796
6419.605166659576,-0.024222383293501622
6419.60616643179,-0.024133592859562295
6419.607166204006,-0.024041498284587594
6419.608165976221,-0.023946103146211505
6419.609165748437,-0.023847411311880038
6419.610165520652,-0.023745426931485566
6419.611165292867,-0.02364015443007793
6419.612165065082,-0.023531598500665447
6419.6131648372975,-0.02341976409711869
6419.614164609513,-0.02330465642718982
6419.615164381728,-0.023186280945659797
6419.616164153943,-0.023064643347625532
6419.617163926158,-0.022939749561938585
6419.618163698374,-0.022811605744806732
6419.619163470589,-0.022680218273569364
6419.620163242805,-0.022545593740657448
6419.62116301502,-0.02240773894774881
6419.622162787235,-0.022266660900129243
6419.62316255945,-0.02212236680127019
6419.6241623316655,-0.021974864047633616
6419.625162103881,-0.021824160223714754
6419.626161876096,-0.021670263097333463
6419.627161648311,-0.02151318061518484
6419.628161420526,-0.02135292089865954
6419.629161192742,-0.02118949223994418
6419.630160964957,-0.021022903098411958
6419.631160737173,-0.02085316209731329
6419.632160509388,-0.020680278020776013
6419.633160281603,-0.0205042598111243
6419.634160053818,-0.020325116566524935
6419.6351598260335,-0.020142857538968967
6419.636159598249,-0.019957492132596188
6419.637159370464,-0.019769029902369197
6419.638159142679,-0.0195774805531031
6419.639158914894,-0.019382853938856318
6419.64015868711,-0.019185160062687393
6419.641158459325,-0.018984409076782154
6419.642158231541,-0.018780611282955266
6419.643158003755,-0.018573777133529815
6419.644157775971,-0.018363917232598125
6419.645157548186,-0.018151042337666748
6419.6461573204015,-0.017935163361687986
6419.647157092617,-0.017716291375480003
6419.648156864832,-0.017494437610536925
6419.649156637047,-0.01726961346222982
6419.650156409262,-0.017041830493398937
6419.651156181478,-0.016811100438336907
6419.652155953693,-0.016577435207161977
6419.653155725909,-0.016340846890579668
6419.654155498123,-0.016101347765030572
6419.655155270339,-0.015858950298221104
6419.656155042554,-0.015613667155033283
6419.6571548147695,-0.015365511203808744
6419.658154586985,-0.015114495523001415
6419.6591543592,-0.014860633408192546
6419.660154131415,-0.014603938379461102
6419.66115390363,-0.014344424189102036
6419.662153675846,-0.014082104829684448
6419.663153448061,-0.013816994542441148
6419.664153220277,-0.013549107825980752
6419.665152992491,-0.01327845944531293
6419.666152764707,-0.013005064441177012
6419.667152536922,-0.012728938139663672
6419.668152309137,-0.012450096162118918
6419.669152081353,-0.012168554435319192
6419.670151853568,-0.011884329201905847
6419.671151625783,-0.011597437031066835
6419.672151397998,-0.01130789482945296
6419.673151170214,-0.011015719852315642
6419.674150942429,-0.010720929714852584
6419.675150714645,-0.010423542403747191
6419.676150486859,-0.010123576288887019
6419.677150259075,-0.009821050135245922
6419.67815003129,-0.009515983114914008
6419.679149803505,-0.009208394819258989
6419.680149575721,-0.008898305271202155
6419.681149347935,-0.00858573493759196
6419.682149120151,-0.008270704741658093
6419.683148892366,-0.007953236075528865
6419.684148664582,-0.007633350812794861
6419.685148436797,-0.007311071321101822
6419.686148209013,-0.006986420474755859
6419.687147981227,-0.006659421667324175
6419.6881477534425,-0.006330098824214647
6419.689147525658,-0.005998476415217804
6419.690147297873,-0.00566457946699493
6419.691147070089,-0.005328433575496276
6419.692146842303,-0.004990064918293503
6419.693146614519,-0.0046495002668106794
6419.694146386734,-0.0043067669984382185
6419.69514615895,-0.003961893108514167
6419.696145931165,-0.0036149072221571973
6419.697145703381,-0.0032658386059355215
6419.698145475595,-0.002914717179355828
6419.6991452478105,-0.0025615735261562134
6419.700145020026,-0.0022064389053870082
6419.701144792241,-0.0018493452622633957
6419.702144564457,-0.0014903252387738085
6419.703144336671,-0.001129412184028237
6419.704144108887,-0.0007666401643307933
6419.705143881102,-0.0004020439729611073
6419.706143653318,-3.5659139649405137e-05
6419.707143425533,0.0003324780602696387
6419.708143197748,0.0007023305970389286
6419.709142969963,0.0010738606780112743
6419.7101427421785,0.0014470297395462067
6419.711142514394,0.0018217984392852444
6419.712142286609,0.0021981266488193384
6419.713142058825,0.0025759734467620085
6419.714141831039,0.002955297112241514
6419.715141603255,0.003336055118825274
6419.71614137547,0.0037182041288896803
6419.717141147686,0.004101699988448379
6419.718140919901,0.0044864977224520226
6419.719140692116,0.004872551530572342
6419.720140464331,0.005259814783483155
6419.7211402365465,0.0056482400196506116
6419.722140008762,0.006037778942644619
6419.723139780977,0.006428382418982906
6419.724139553193,0.00682000047651879
6419.725139325407,0.007212582303383248
6419.726139097623,0.007606076247491449
6419.727138869838,0.00800042981662354
6419.728138642054,0.008395589679089046
6419.729138414269,0.008791501664983945
6419.730138186484,0.009188110768049032
6419.731137958699,0.009585361148137827
6419.7321377309145,0.009983196134301903
6419.73313750313,0.0103815582285011
6419.734137275345,0.01078038910994583
6419.735137047561,0.011179629640078247
6419.736136819775,0.011579219868198886
6419.737136591991,0.011979099037744924
6419.738136364206,0.012379205593225993
6419.739136136422,0.012779477187823027
6419.740135908637,0.013179850691655217
6419.741135680852,0.013580262200719728
6419.742135453067,0.013980647046508202
6419.7431352252825,0.01438093980630353
6419.744134997498,0.014781074314159788
6419.745134769713,0.01518098367256754
6419.746134541928,0.015580600264806035
6419.747134314143,0.01597985576798318
6419.748134086359,0.016378681166763533
6419.749133858574,0.016777006767783847
6419.75013363079,0.017174762214755248
6419.751133403005,0.017571876504250395
6419.75213317522,0.01796827800217359
6419.753132947435,0.018363894460911242
6419.75413271965,0.01875865303715988
6419.755132491866,0.019152480310428342
6419.756132264081,0.01954530230221076
6419.757132036296,0.01993704449582655
6419.758131808511,0.020327631856923385
6419.759131580727,0.02071698885463887
6419.760131352942,0.021105039483416157
6419.761131125158,0.02149170728546849
6419.762130897373,0.02187691537388713
6419.763130669588,0.022260586456386653
6419.764130441803,0.022642642859681206
6419.765130214018,0.0230230065544847
6419.766129986234,0.023401599181127487
6419.767129758449,0.023778342075781646
6419.768129530664,0.024153156297286493
6419.769129302879,0.02452596265456575
6419.770129075095,0.024896681734627373
6419.77112884731,0.025265233931136936
6419.772128619526,0.025631539473555263
6419.77312839174,0.025995518456830766
6419.774128163956,0.02635709087163682
6419.775127936171,0.026716176635144404
6419.776127708386,0.027072695622319957
6419.777127480602,0.02742656769773839
6419.778127252817,0.027777712747900748
6419.779127025032,0.028126050714045905
6419.780126797247,0.028471501625445067
6419.781126569463,0.028813985633167463
6419.782126341678,0.02915342304430489
6419.783126113894,0.02948973435664198
6419.784125886108,0.02982284029375813
6419.785125658324,0.03015266184054598
6419.786125430539,0.030479120279129978
6419.787125202754,0.030802137225167295
6419.78812497497,0.031121634664511826
6419.789124747185,0.031437534990220416
6419.7901245194,0.03174976103987867
6419.791124291615,0.03205823613322204
6419.792124063831,0.03236288411002576
6419.793123836046,0.032663629368235136
6419.7941236082615,0.03296039690230558
6419.795123380476,0.03325311234171928
6419.796123152692,0.03354170198964315
6419.797122924907,0.033826092861690235
6419.798122697122,0.03410621272474401
6419.799122469338,0.03438199013580278
6419.800122241553,0.03465335448079848
6419.801122013768,0.03492023601334186
6419.802121785983,0.03518256589334329
6419.803121558199,0.03544027622545606
6419.804121330414,0.03569330009728683
6419.8051211026295,0.0359415716173153
6419.806120874844,0.036185025952463805
6419.80712064706,0.036423599365255445
6419.808120419275,0.03665722925049856
6419.80912019149,0.036885854171434085
6419.810119963706,0.03710941389528194
6419.81111973592,0.037327849428122346
6419.812119508136,0.03754110304904838
6419.813119280351,0.03774911834352677
6419.814119052567,0.03795184023590525
6419.815118824782,0.0381492150210069
6419.8161185969975,0.038341190394754004
6419.817118369212,0.03852771548376719
6419.818118141428,0.03870874087388865
6419.819117913643,0.038884218637581736
6419.820117685858,0.0390541023601627
6419.821117458074,0.0392183471648237
6419.822117230288,0.03937690973641
6419.823117002504,0.03952974834391776
6419.824116774719,0.0396768228616826
6419.825116546935,0.03981809478923307
6419.82611631915,0.03995352726978712
6419.8271160913655,0.04008308510737377
6419.82811586358,0.04020673478256621
6419.829115635796,0.040324444466816385
6419.830115408011,0.04043618403538498
6419.831115180226,0.04054192507886423
6419.832114952442,0.040641640913294384
6419.833114724656,0.040735306588878
6419.834114496872,0.04082289889729919
6419.835114269087,0.04090439637765856
6419.836114041303,0.040979779321037434
6419.837113813518,0.04104902977370869
6419.838113585733,0.04111213153901438
6419.839113357948,0.04116907017793372
6419.840113130163,0.04121983300836784
6419.841112902379,0.04126440910317047
6419.842112674594,0.0413027892869558
6419.84311244681,0.04133496613171665
6419.844112219024,0.04136093395128773
6419.84511199124,0.041380688794689924
6419.846111763455,0.04139422843839274
6419.847111535671,0.04140155237753263
6419.848111307886,0.04140266181612559
6419.849111080101,0.04139755965631254
6419.850110852316,0.04138625048667658
6419.851110624531,0.04136874056967077
6419.852110396747,0.04134503782819513
6419.853110168962,0.04131515183136132
6419.854109941178,0.04127909377948293
6419.855109713392,0.04123687648832923
6419.856109485608,0.041188514372679466
6419.857109257823,0.041134023429214496
6419.858109030039,0.04107342121878181
6419.859108802254,0.041006726848069386
6419.8601085744685,0.04093396095072288
6419.861108346684,0.04085514566793987
6419.862108118899,0.04077030462857382
6419.863107891115,0.040679462928779164
6419.86410766333,0.04058264711122818
6419.865107435546,0.040479885143928765
6419.86610720776,0.04037120639867157
6419.867106979976,0.04025664162913346
6419.868106752191,0.0401362229486636
6419.869106524407,0.04000998380777716
6419.870106296622,0.03987795897138101
6419.8711060688365,0.039740184495754484
6419.872105841052,0.03959669770530758
6419.873105613267,0.039447537169138375
6419.874105385483,0.03929274267741013
6419.875105157698,0.03913235521756847
6419.876104929913,0.03896641695041798
6419.877104702128,0.03879497118607691
6419.878104474344,0.038618062359828266
6419.879104246559,0.03843573600788433
6419.880104018775,0.0382480387430814
6419.88110379099,0.03805501823052029
6419.8821035632045,0.03785672316316758
6419.88310333542,0.03765320323743158
6419.884103107635,0.03744450912872648
6419.885102879851,0.0372306924670372
6419.886102652066,0.03701180581249711
6419.887102424281,0.03678790263099028
6419.888102196496,0.036559037269789374
6419.889101968712,0.036325264933240196
6419.890101740927,0.03608664165850317
6419.891101513143,0.03584322429136223
6419.892101285358,0.035595070462111
6419.8931010575725,0.03534223856152617
6419.894100829788,0.03508478771693783
6419.895100602003,0.03482277776840639
6419.896100374219,0.03455626924501568
6419.897100146434,0.03428532334129159
6419.898099918649,0.03401000189375567
6419.899099690864,0.03373036735762238
6419.90009946308,0.03344648278364879
6419.901099235295,0.033158411795144935
6419.902099007511,0.03286621856515247
6419.903098779725,0.03256996779379888
6419.9040985519405,0.03226972468583382
6419.905098324156,0.03196555492835377
6419.906098096371,0.03165752466872057
6419.907097868587,0.03134570049267919
6419.908097640802,0.031030149402679504
6419.909097413017,0.030710938796406722
6419.910097185232,0.030388136445524735
6419.911096957448,0.030061810474636495
6419.912096729663,0.029732029340465302
6419.913096501879,0.029398861811260817
6419.914096274093,0.029062376946433502
6419.9150960463085,0.02872264407642121
6419.916095818524,0.028379732782791597
6419.917095590739,0.028033712878583986
6419.918095362955,0.027684654388894493
6419.91909513517,0.027332627531708002
6419.920094907385,0.026977702698980702
6419.9210946796,0.026619950437976683
6419.922094451816,0.026259441432862008
6419.923094224031,0.025896246486559533
6419.924093996247,0.025530436502867654
6419.925093768461,0.0251620824688459
6419.926093540676,0.0247912554374703
6419.927093312892,0.02441802651056124
6419.928093085107,0.024042466821986398
6419.929092857323,0.02366464752114145
