Time,Filtered_EMG_Bicep,Filtered_EMG_Tricep
6668.895369220202,0.0039639053304379715,0.0029808124139073912
6668.896368992418,0.003955299876508312,0.002940985515165144
6668.897368764632,0.003944835124352159,0.002899232063091601
6668.898368536848,0.003932417169218715,0.0028558515696978856
6668.899368309063,0.0039179700937251125,0.0028111727464455233
6668.900368081278,0.0039014390100622523,0.002765548050392924
6668.901367853494,0.003882792890084046,0.0027193474234677687
6668.902367625709,0.00386202700188135,0.0026729514461459034
6668.903367397924,0.003839164817202744,0.0026267441287871887
6668.904367170139,0.0038142593486901783,0.00258110555235568
6668.905366942355,0.003787393977155023,0.0025364045610347745
6668.90636671457,0.0037586828898849736,0.0024929916978157067
6668.907366486786,0.003728271243735019,0.0024511925571824504
6668.908366259,0.0036963351053945124,0.0024113017093816544
6668.909366031216,0.0036630811552007194,0.0023735773269150514
6668.910365803431,0.003628746105499175,0.002338236614930677
6668.911365575646,0.003593595771709822,0.002305452123969376
6668.912365347862,0.003557923721755248,0.002275349015382827
6668.913365120077,0.0035220494081290342,0.0022480033458527186
6668.914364892292,0.003486315656081039,0.0022234414203486405
6668.915364664507,0.0034510853555754935,0.002201640232996641
6668.916364436723,0.003416737222545929,0.0021825289863603536
6668.917364208938,0.003383660583997593,0.002165991659690059
6668.918363981154,0.0033522492680626683,0.0021518705851915217
6668.919363753368,0.003322894766403342,0.0021399709822105535
6668.920363525584,0.003295978838701579,0.002130066381279427
6668.921363297799,0.003271865681388717,0.0021219048368890095
6668.922363070014,0.003250893757237371,0.0021152157868601614
6668.92336284223,0.0032333674243688083,0.002109717376283927
6668.924362614444,0.0032195486095991433,0.0021051240243673604
6668.92536238666,0.003209648902368347,0.0021011539729111563
6668.926362158875,0.003203822542312116,0.0020975365269596457
6668.927361931091,0.0032021607859604364,0.0020940186974242212
6668.928361703306,0.0032046880579994987,0.0020903709905107856
6668.929361475521,0.0032113601501501257,0.0020863921567042605
6668.930361247736,0.0032220645657562667,0.002081912802266358
6668.931361019952,0.0032366229554259044,0.0020767978621117206
6668.932360792167,0.0032547954720780693,0.002070948012870502
6668.933360564382,0.0032762867923356973,0.0020643001510934613
6668.934360336598,0.003300753488203752,0.0020568270698817608
6668.935360108812,0.003327812387588542,0.0020485364456390128
6668.936359881028,0.0033570495571324586,0.0020394692098147232
6668.937359653243,0.003388029582320856,0.002029697348290683
6668.938359425459,0.003420304873486708,0.0020193211611292824
6668.939359197674,0.0034534247460530332,0.00200846603232931
6668.940358969889,0.003486943993717585,0.0019972787924386923
6668.941358742104,0.003520430627282163,0.001985923787292231
6668.94235851432,0.0035534724521448747,0.0019745787761170225
6668.943358286535,0.0035856822495169646,0.001963430766399586
6668.94435805875,0.003616701503095285,0.0019526718630240437
6668.945357830966,0.0036462028181403435,0.0019424951851226924
6668.94635760318,0.0036738913379186517,0.0019330908969839382
6668.947357375396,0.0036995055196268984,0.001924642404554872
6668.948357147611,0.0037228175896141928,0.0019173227728698015
6668.949356919827,0.0037436339018975086,0.0019112914105556772
6668.950356692042,0.003761795324243502,0.0019066910467360307
6668.951356464257,0.0037771777006526397,0.001903645008531937
6668.952356236472,0.003789692390360532,0.001902254805362473
6668.953356008688,0.0037992868406894835,0.0019025980344244194
6668.954355780903,0.003805945092043577,0.0019047266324726786
6668.955355553118,0.00380968804960881,0.001908665511744314
6668.956355325334,0.003810573330934567,0.0019144116292581052
6668.957355097548,0.003808694530086768,0.0019219335430902499
6668.958354869764,0.0038041797863393187,0.0019311715068278108
6668.959354641979,0.003797189555675854,0.001942038142779632
6668.960354414195,0.0037879134618407453,0.0019544197101749533
6668.96135418641,0.003776566107196707,0.0019681779535455075
6668.962353958625,0.003763381793967243,0.001983152496726199
6668.96335373084,0.0037486082313477487,0.0019991637425354333
6668.964353503056,0.0037324994418916593,0.002016016231187422
6668.965353275271,0.0037153082022533136,0.002033502390620488
6668.966353047486,0.003697278446437705,0.002051406586332335
6668.967352819702,0.0036786381096846348,0.0020695093649925455
6668.968352591916,0.0036595928837467625,0.002087591797517815
6668.969352364132,0.003640321290791803,0.0021054398516968374
6668.970352136347,0.0036209713775802468,0.0021228487281996626
6668.971351908563,0.003601659199795241,0.0021396270555180527
6668.972351680778,0.003582469121492018,0.0021556007747452173
6668.973351452993,0.0035634558061604918,0.0021706164936672666
6668.974351225208,0.0035446476343747187,0.0021845440877296925
6668.975350997423,0.0035260511697784522,0.0021972783855018795
6668.976350769639,0.0035076562415908554,0.002208739875543028
6668.977350541854,0.0034894412362645615,0.00221887446554498
6668.97835031407,0.003471378274058113,0.002227652383353887
6668.979350086284,0.003453438036112559,0.0022350663350222087
6668.9803498585,0.00343559405678709,0.002241129042218301
6668.981349630715,0.0034178263016176333,0.0022458702822851224
6668.982349402931,0.003400123858008292,0.002249333564534774
6668.983349175146,0.0033824866245656194,0.002251572606468045
6668.984348947361,0.0033649260062158064,0.0022526478079554634
6668.985348719576,0.003347464762827784,0.002252622929225669
6668.986348491791,0.003330136252890433,0.0022515621464969608
6668.987348264007,0.0033129833248402665,0.002249527599889802
6668.988348036222,0.003296057056807881,0.002246577486088325
6668.989347808437,0.0032794154806422985,0.0022427647060282254
6668.990347580652,0.0032631223850148835,0.002238136063931808
6668.991347352868,0.0032472462747591673,0.0022327320125928684
6668.992347125083,0.00323185953625226,0.002226586928229898
6668.993346897299,0.0032170377950508215,0.0022197298755077173
6668.994346669513,0.0032028593725918148,0.0022121858070698495
6668.9953464417285,0.003189404705202748,0.0022039771369033808
6668.996346213944,0.003176755605691508,0.0021951256158397477
6668.997345986159,0.003164994300904103,0.0021856544066083585
6668.998345758375,0.0031542022262605034,0.0021755902159586874
6668.99934553059,0.0031444585721421415,0.0021649653218386504
6669.000345302805,0.003135838551570425,0.002153819356910397
6669.00134507502,0.003128411322283226,0.0021422007662011927
6669.002344847236,0.003122237503729335,0.0021301679090006335
6669.003344619451,0.003117366312116132,0.0021177897951418184
6669.004344391667,0.003113832466106763,0.002105146438368525
6669.005344163881,0.0031116531302086813,0.00209232879569839
6669.0063439360965,0.003110825213757193,0.0020794382568094976
6669.007343708312,0.0031113233129805053,0.0020665856590804743
6669.008343480527,0.003113098488416323,0.002053889834720876
6669.009343252743,0.0031160779592421728,0.0020414757398886066
6669.010343024958,0.0031201657213974342,0.0020294722542833956
6669.011342797173,0.003125244066098277,0.0020180097589265274
6669.012342569388,0.0031311759551683003,0.002007217604537112
6669.013342341604,0.003137808173223017,0.001997221585357278
6669.014342113819,0.0031449751324097394,0.0019881415277442334
6669.015341886035,0.003152503171032969,0.001980089073770759
6669.016341658249,0.003160215171223128,0.001973165691942661
6669.0173414304645,0.0031679353266509157,0.001967460904082181
6669.01834120268,0.0031754939114049976,0.0019630506970845646
6669.019340974895,0.0031827319052727884,0.0019599960922969677
6669.020340747111,0.0031895052919499083,0.0019583418662841314
6669.021340519326,0.003195688783697231,0.001958115441303412
6669.022340291541,0.003201178697169661,0.0019593259798339527
6669.023340063756,0.003205894755313868,0.0019619637250781834
6669.024339835972,0.003209780715209338,0.001965999632765675
6669.025339608187,0.0032128038797521142,0.001971385332154213
6669.0263393804025,0.0032149536883340443,0.0019780534264954882
6669.027339152617,0.0032162396565653586,0.0019859181044600267
6669.0283389248325,0.0032166889415023684,0.001994876011665738
6669.029338697048,0.0032163437732007734,0.0020048073451261685
6669.030338469263,0.0032152589423124845,0.002015577170898868
6669.031338241479,0.003213499476416927,0.002027036993533757
6669.032338013694,0.0032111385794719757,0.0020390266073277217
6669.033337785909,0.003208255855067036,0.0020513762450390183
6669.034337558124,0.0032049357881366023,0.0020639090277087555
6669.03533733034,0.0032012664303637784,0.0020764437157351485
6669.036337102555,0.0031973382393613017,0.002088797764961495
6669.0373368747705,0.0031932430620633203,0.0021007906966005324
6669.038336646985,0.0031890732945052424,0.002112247782282348
6669.0393364192005,0.003184921248665392,0.002123004012572779
6669.040336191416,0.0031808786982371654,0.0021329082620819523
6669.041335963631,0.0031770364870152916,0.0021418275024038193
6669.042335735847,0.003173484017055538,0.002149650863797331
6669.043335508062,0.003170308437081583,0.002156293327466207
6669.044335280277,0.003167593443806496,0.002161698854745611
6669.045335052492,0.0031654177594032493,0.002165842812720627
6669.046334824708,0.0031638534861532087,0.0021687336037682593
6669.047334596923,0.003162964599990245,0.002170413432059578
6669.0483343691385,0.003162805817686228,0.0021709581507796945
6669.049334141353,0.003163421997046993,0.0021704761361305545
6669.0503339135685,0.003164848149109911,0.0021691061318307816
6669.051333685784,0.003167110073005419,0.002167014022708337
6669.052333457999,0.0031702255645022813,0.002164388554093957
6669.053333230215,0.003174206089166213,0.002161436107451616
6669.054333002429,0.0031790587449413424,0.0021583747307780616
6669.055332774645,0.003184788276258624,0.0021554276697700737
6669.05633254686,0.0031913988695503994,0.0021528166511323396
6669.057332319076,0.0031988954826200526,0.002150755152441643
6669.058332091291,0.0032072845318311654,0.002149441867986213
6669.059331863506,0.003216573841825052,0.0021490545507862387
6669.060331635721,0.003226771811629439,0.0021497443832606804
6669.061331407936,0.0032378857682871898,0.002151631010705387
6669.062331180152,0.003249919508693785,0.0021547983627846763
6669.063330952367,0.003262870118233591,0.0021592913811872678
6669.064330724583,0.003276724298808953,0.002165113762726977
6669.065330496797,0.0032914545806313257,0.002172226819464713
6669.066330269013,0.0033070158638348612,0.0021805495509355376
6669.067330041228,0.0033233427109167976,0.002189960007775068
6669.068329813444,0.0033403477085856555,0.002200297985477567
6669.069329585659,0.003357921077510371,0.0022113690153864403
6669.070329357874,0.0033759315711023624,0.0022229495300089184
6669.071329130089,0.003394228598009674,0.0022347929955855617
6669.072328902304,0.0034126454278815676,0.002246636744212398
6669.07332867452,0.003431003270513878,0.002258209206980762
6669.074328446735,0.003449115939767254,0.002269237249729844
6669.075328218951,0.0034667947556683795,0.0022794533372605666
6669.076327991165,0.0034838533507516515,0.0022886022848406943
6669.077327763381,0.0035001121358287346,0.0022964473896385728
6669.078327535596,0.003515402289597383,0.0023027757759112397
6669.079327307812,0.0035295691986990388,0.00230740284094156
6669.080327080027,0.003542475268814067,0.002310175743627023
6669.081326852242,0.0035540019872537646,0.002310975919292876
6669.082326624457,0.0035640511015668746,0.002309720632229967
6669.083326396672,0.0035725448272176676,0.0023063636055693434
6669.084326168888,0.003579425107112255,0.0023008948024830778
6669.085325941103,0.003584652077509101,0.0022933394626097215
6669.086325713319,0.0035882020042829065,0.0022837565150877074
6669.087325485533,0.0035900650153622947,0.0022722365026860715
6669.088325257749,0.0035902429669291747,0.0022588991681326493
6669.089325029964,0.0035887477524620924,0.002243890863154219
6669.09032480218,0.003585600303943983,0.0022273819230790863
6669.091324574395,0.0035808304469355633,0.0022095640981817694
6669.0923243466095,0.0035744776577776253,0.0021906480581452455
6669.093324118825,0.003566592636236824,0.0021708609098044073
6669.09432389104,0.0035572394623375127,0.002150443617806535
6669.095323663256,0.0035464979832383133,0.0021296482090369705
6669.096323435471,0.0035344660205983607,0.002108734659551117
6669.097323207687,0.003521261022810635,0.0020879673779878754
6669.098322979901,0.003507020878477086,0.0020676112145154493
6669.099322752117,0.003491903700402046,0.002047926974116022
6669.100322524332,0.003476086455448024,0.002029166505059807
6669.101322296548,0.0034597623738722503,0.0020115675220263567
6669.102322068763,0.003443137152616667,0.0019953483614542
6669.1033218409775,0.0034264240752719588,0.0019807028573050707
6669.104321613193,0.003409838292126084,0.00196779550564151
6669.105321385408,0.003393590619750063,0.001956757078768457
6669.106321157624,0.0033778813040374494,0.0019476808470489586
6669.107320929839,0.0033628942093322355,0.0019406195568325865
6669.108320702055,0.0033487918395684853,0.0019355832954450756
6669.109320474269,0.00333571149063798,0.0019325383501215781
6669.110320246485,0.0033237627115971767,0.0019314071355445426
6669.1113200187,0.0033130261399138897,0.001932069227116743
6669.112319790916,0.003303553682166708,0.001934363499559105
6669.113319563131,0.003295369928805789,0.0019380913315481044
6669.1143193353455,0.003288474603420817,0.0019430207945506362
6669.115319107561,0.003282845756472109,0.0019488917064119163
6669.116318879776,0.0032784433536845762,0.0019554214097432824
6669.117318651992,0.003275212910427167,0.0019623111290824123
6669.118318424207,0.0032730888785150033,0.0019692527499162254
6669.119318196422,0.0032719975652489453,0.001975935829864897
6669.120317968637,0.003271859426342188,0.001982054606252304
6669.121317740853,0.0032725906239027738,0.001987314741605806
6669.122317513068,0.003274103796033185,0.001991439579598783
6669.123317285284,0.0032763080560608867,0.001994175756979353
6669.124317057498,0.0032791083260128155,0.0019952980910046937
6669.1253168297135,0.0032824042105432296,0.0019946137070308884
6669.126316601929,0.0032860887191466176,0.0019919653856777255
6669.127316374144,0.0032900472030000663,0.001987234108740085
6669.12831614636,0.003294156854007575,0.00198034078416399
6669.129315918575,0.0032982870301953523,0.0019712471395953654
6669.13031569079,0.00330230056197043,0.001959955787432526
6669.131315463005,0.003306056080777681,0.0019465094801066694
6669.132315235221,0.0033094112962868075,0.0019309895994194688
6669.133315007436,0.0033122270298044593,0.0019135139586093461
6669.134314779652,0.0033143717030667645,0.0018942340224683337
6669.135314551866,0.0033157259082810964,0.0018733316528744945
6669.1363143240815,0.0033161866750902164,0.0018510154730773838
6669.137314096297,0.0033156711147344325,0.0018275169352464688
6669.138313868512,0.003314119231184058,0.0018030861776403202
6669.139313640728,0.00331149577811183,0.0017779877594223635
6669.140313412943,0.0033077910658020297,0.001752496358092112
6669.141313185158,0.0033030206058839123,0.001726892513450846
6669.142312957373,0.0032972234912409695,0.00170145850450292
6669.143312729589,0.0032904594999028087,0.00167647444412696
6669.144312501804,0.0032828050825303213,0.0016522146671233498
6669.14531227402,0.0032743485714808946,0.0016289444726216911
6669.146312046234,0.0032651850492676645,0.0016069172599192376
6669.147311818449,0.0032554113099860565,0.0015863720635141516
6669.148311590665,0.0032451212812162292,0.0015675314530567248
6669.14931136288,0.003234402197049032,0.0015505997300082446
6669.150311135096,0.0032233317431165564,0.0015357613363981414
6669.151310907311,0.0032119763248388256,0.0015231793988009974
6669.152310679526,0.003200390528746005,0.0015129943654051607
6669.153310451741,0.003188617745990224,0.0015053227494806016
6669.154310223957,0.0031766918123496274,0.0015002560472133848
6669.155309996172,0.0031646394172191216,0.0014978599265481967
6669.156309768388,0.0031524829833261005,0.001498173777649458
6669.157309540602,0.003140243734598233,0.0015012106839265905
6669.158309312817,0.003127944723081743,0.0015069578272914662
6669.159309085033,0.0031156136293137224,0.0015153772923065007
6669.160308857248,0.0031032851631576474,0.0015264071920436622
6669.161308629464,0.0030910028935930882,0.001539963011303087
6669.162308401679,0.0030788203610314113,0.0015559390499773457
6669.163308173894,0.0030668013941130847,0.0015742098477061507
6669.164307946109,0.003055019660329731,0.0015946314812952085
6669.165307718325,0.003043557599404823,0.001617042655035514
6669.16630749054,0.0030325049750416833,0.0016412655580636682
6669.167307262756,0.003021957296877999,0.0016671065363942344
6669.16830703497,0.003012014315538581,0.001694356694779651
6669.169306807185,0.003002778723458834,0.001722792578944275
6669.170306579401,0.002994355143128391,0.0017521770886671016
6669.171306351616,0.002986849458265713,0.0017822607493559316
6669.172306123832,0.0029803685155568816,0.0018127834321081241
6669.173305896047,0.0029750201655323687,0.0018434765633869984
6669.174305668262,0.002970913524287398,0.0018740658156153804
6669.175305440477,0.0029681592661095933,0.0019042742326046975
6669.176305212693,0.0029668697458522897,0.0019338257230038485
6669.177304984908,0.0029671587988866033,0.0019624488426783562
6669.178304757123,0.0029691411264466073,0.0019898807720719262
6669.179304529338,0.002972931194676464,0.0020158713751610526
6669.180304301553,0.002978641551476055,0.0020401872115848297
6669.181304073769,0.00298638043719451,0.002062615373442357
6669.182303845984,0.0029962485855347804,0.002082967036888627
6669.1833036182,0.003008335205066844,0.002101080652452061
6669.184303390414,0.0030227132789267044,0.002116824735188144
6669.18530316263,0.003039434464341899,0.0021301002376155885
6669.186302934845,0.003058523957692185,0.002140842479911133
6669.187302707061,0.003079975694405965,0.0021490225743384514
6669.188302479276,0.003103748199916872,0.002154648237992465
6669.1893022514905,0.00312976133851802,0.002157763879067326
6669.190302023706,0.0031578941458431813,0.0021584498905608514
6669.191301795921,0.003187983878672836,0.0021568211661842345
6669.192301568137,0.003219826362282338,0.002153024910484265
6669.193301340352,0.003253177653351463,0.0021472378235810803
6669.194301112568,0.0032877569685462924,0.002139662730401138
6669.195300884782,0.0033232507669379917,0.0021305247354739295
6669.196300656998,0.0033593178285997657,0.0021200670158574467
6669.197300429213,0.0033955951377430526,0.0021085463804902524
6669.1983002014285,0.0034317043406276557,0.0020962287053635244
6669.199299973644,0.00346725850253392,0.002083384321382999
6669.2002997458585,0.003501868856862513,0.0020702834156545585
6669.201299518074,0.0035351512528734256,0.002057191511211398
6669.202299290289,0.0035667320774881153,0.0020443650967685964
6669.203299062505,0.003596253535353147,0.0020320474754941913
6669.20429883472,0.0036233782881075504,0.002020464896091144
6669.205298606936,0.00364779354663763,0.0020098230263353254
6669.20629837915,0.0036692147590175667,0.002000303825841869
6669.207298151366,0.0036873890370387923,0.0019920628747977943
6669.208297923581,0.0037020984248239183,0.0019852272255855255
6669.2092976957965,0.00371316305269082,0.001979893852110352
6669.210297468012,0.003720444160150191,0.001976128752486645
6669.2112972402265,0.0037238469290829827,0.001973966712348134
6669.212297012442,0.0037233230389903072,0.001973411685956692
6669.213296784657,0.0037188728246911394,0.0019744377290797466
6669.214296556873,0.003710546879520529,0.0019769904278799486
6669.215296329088,0.0036984469258847094,0.001980988796339916
6669.216296101304,0.0036827257963832336,0.0019863276360586103
6669.217295873518,0.0036635864338978347,0.0019928803500681848
6669.218295645734,0.003641279894482885,0.002000502178337667
6669.219295417949,0.0036161023775708435,0.002009033786377304
6669.2202951901645,0.003588391301340206,0.0020183050962872748
6669.22129496238,0.003558520419406719,0.0020281392143004628
6669.2222947345945,0.003526893978615943,0.0020383563027224355
6669.22329450681,0.0034939399633200103,0.002048777273196371
6669.224294279025,0.003460102554027022,0.002059227214676703
6669.225294051241,0.0034258340258868,0.0020695384816777356
6669.226293823456,0.003391586390496026,0.002079553358546155
6669.227293595672,0.0033578031157050613,0.0020891262137238604
6669.228293367886,0.003324911240410153,0.002098125089107756
6669.229293140102,0.0032933141512721323,0.0021064327345863723
6669.230292912317,0.003263385224519665,0.0021139471742206498
6669.2312926845325,0.003235462472659232,0.002120581947501148
6669.232292456748,0.0032098442788605673,0.0021262661897827827
6669.2332922289625,0.0031867862425701316,0.0021309447039379818
6669.234292001178,0.003166499090771679,0.002134578140683706
6669.235291773393,0.003149147546443076,0.0021371433558298775
6669.236291545609,0.003134850012806501,0.002138633956060839
6669.237291317824,0.0031236789266623497,0.0021390609862412934
6669.23829109004,0.0031156616365042643,0.0021384536539972962
6669.239290862254,0.0031107816603889124,0.00213685993830623
6669.24029063447,0.003108980174829267,0.0021343468990751065
6669.241290406685,0.003110157587100409,0.0021310005036447623
6669.2422901789005,0.0031141750683102765,0.0021269248209669096
6669.243289951116,0.0031208559903802995,0.002122240506082762
6669.24428972333,0.003129987309007145,0.0021170825886884462
6669.245289495546,0.0031413210348514202,0.002111597659410718
6669.246289267761,0.0031545760021557787,0.002105940599788233
6669.247289039977,0.0031694401563729206,0.002100271027288696
6669.248288812192,0.003185573536854221,0.0020947496234010416
6669.249288584407,0.0032026120451373683,0.0020895344836927374
6669.250288356622,0.0032201719987756685,0.0020847775938484104
6669.251288128838,0.003237855409088849,0.002080621514456547
6669.252287901053,0.003255255899844,0.002077196349348423
6669.2532876732685,0.003271965183123822,0.0020746170676825765
6669.254287445483,0.003287580000126845,0.0020729812394343497
6669.255287217698,0.0033017094115998465,0.0020723672165178825
6669.256286989914,0.003313982296902794,0.0020728327452424807
6669.257286762129,0.0033240548961075457,0.0020744139517901153
6669.258286534345,0.003331618194905134,0.0020771246306135914
6669.25928630656,0.003336404896315305,0.002080955789547619
6669.260286078775,0.0033381956525183457,0.0020858754390368195
6669.26128585099,0.003336824183068202,0.0020918286352387145
6669.262285623206,0.0033321809388029535,0.002098737801550976
6669.263285395421,0.003324215101227582,0.0021065033681967093
6669.264285167636,0.0033129348789818188,0.00211500477826759
6669.265284939851,0.0032984061952031894,0.0021241019025164103
6669.266284712066,0.003280749920127622,0.002133636888045095
6669.267284484282,0.0032601378193874877,0.0021434364487734263
6669.268284256497,0.0032367874004275857,0.002153314595630071
6669.269284028713,0.00321095586574676,0.00216307579920756
6669.270283800928,0.003182933419487986,0.0021725185666779147
6669.271283573143,0.0031530362097460392,0.0021814393942095897
6669.272283345358,0.0031215992033055743,0.00218963703526122
6669.273283117574,0.0030889692637203355,0.0021969170100723016
6669.274282889789,0.0030554986358692043,0.0022030962629363427
6669.275282662004,0.0030215389566822684,0.002208007841509095
6669.276282434219,0.0029874358514799435,0.0022115054343744747
6669.277282206434,0.002953524153838544,0.0022134675759116745
6669.27828197865,0.0029201237815655403,0.002213801317470351
6669.279281750865,0.0028875362780977783,0.0022124451689775042
6669.280281523081,0.0028560419769336643,0.0022093711369827
6669.281281295296,0.0028258976887443827,0.0022045857295353963
6669.282281067511,0.002797334785044464,0.0021981298685993236
6669.283280839726,0.0027705575866507712,0.002190077739650365
6669.2842806119415,0.002745742052101694,0.002180534691136682
6669.285280384157,0.0027230348539062283,0.002169634344326792
6669.286280156372,0.002702552973700673,0.002157535080990175
6669.287279928587,0.0026843839215844266,0.0021444160658653684
6669.288279700802,0.0026685866170002943,0.0021304729553349227
6669.289279473018,0.00265519289931973,0.002115913441775688
6669.290279245233,0.0026442095894597417,0.002100952773864589
6669.291279017449,0.00263562100439969,0.002085809374694177
6669.292278789664,0.002629391826955524,0.002070700657013374
6669.293278561879,0.0026254702364210086,0.002055839115092482
6669.294278334094,0.0026237911979918754,0.002041428758788296
6669.2952781063095,0.002624279795582861,0.0020276619413645575
6669.296277878525,0.002626854492263276,0.002014716614428632
6669.29727765074,0.002631430221523286,0.002002754031709481
6669.298277422955,0.002637921229299466,0.0019919169294462385
6669.29927719517,0.002646243570134392,0.0019823282274220562
6669.300276967386,0.0026563171098191807,0.0019740903022577683
6669.301276739601,0.0026680668406879517,0.001967284870090999
6669.302276511817,0.0026814233209640995,0.001961973478398774
6669.303276284032,0.0026963221249391234,0.001958198556359567
6669.304276056247,0.0027127023201694894,0.0019559849214487207
6669.305275828462,0.002730504127811004,0.001955341593981704
6669.3062756006775,0.002749666020735857,0.001956263741411328
6669.307275372893,0.002770121546455125,0.001958734578926199
6669.308275145108,0.002791796145634449,0.0019627270983904837
6669.309274917323,0.0028146041981183378,0.001968205556947106
6669.310274689538,0.002838446469956082,0.001975126691333033
6669.311274461754,0.002863208057629778,0.001983440628917366
6669.312274233969,0.0028887568557322764,0.001993091475572296
6669.313274006185,0.002914942544561727,0.0020040176012723096
6669.314273778399,0.002941596110787314,0.0020161517002131894
6669.315273550615,0.0029685299592234955,0.002029420733938208
6669.31627332283,0.0029955387213960907,0.0020437458582685123
6669.3172730950455,0.0030224008871559387,0.002059042404686401
6669.318272867261,0.003048881352153006,0.002075219958709503
6669.319272639476,0.003074734883910143,0.0020921825664263786
6669.320272411691,0.003099710391008484,0.00210982910115167
6669.321272183906,0.00312355577677764,0.0021280538122877913
6669.322271956122,0.0031460231080864677,0.002146747044721733
6669.323271728337,0.0031668738453237547,0.002165796079664781
6669.324271500553,0.0031858839451408406,0.00218508603934764
6669.325271272767,0.00320284872780993,0.00220450082447608
6669.326271044983,0.0032175874602423083,0.0022239240894817883
6669.327270817198,0.003229947619197832,0.0022432402777093764
6669.3282705894135,0.003239808766928621,0.0022623357306151165
6669.329270361629,0.0032470859266207756,0.002281099868830741
6669.330270133843,0.003251732329426377,0.0022994264345658094
6669.331269906059,0.0032537414254208137,0.002317214778630949
6669.332269678274,0.0032531480760868985,0.0023343711569434634
6669.33326945049,0.0032500288488830614,0.002350809975572983
6669.334269222705,0.0032445013211997486,0.0023664549140196764
6669.335268994921,0.0032367223017045125,0.002381239875736262
6669.336268767135,0.0032268849206841498,0.0023951097442288433
6669.337268539351,0.003215214628406832,0.002408020933338917
6669.338268311566,0.003201964233832133,0.002419941706283455
6669.3392680837815,0.0031874081662183968,0.0024308522196047023
6669.340267855997,0.0031718361352672643,0.0024407442429984195
6669.341267628211,0.00315554633431105,0.002449620516509203
6669.342267400427,0.0031388383227447156,0.002457493731644235
6669.343267172642,0.0031220057630907687,0.0024643851630514837
6669.344266944858,0.0031053292655851207,0.002470323023073516
6669.345266717073,0.003089069673686711,0.0024753406431746233
6669.346266489289,0.003073462164406679,0.002479474592955683
6669.347266261503,0.003058711511431968,0.0024827628343445664
6669.348266033719,0.003044988772877865,0.0024852429875426457
6669.349265805934,0.0030324295508949643,0.0024869507678672523
6669.350265578149,0.003021133859604532,0.002487918644058185
6669.351265350365,0.0030111675453170852,0.0024881747656523992
6669.352265122579,0.0030025651282873512,0.0024877422072732743
6669.353264894795,0.0029953338738078943,0.0024866385824766466
6669.35426466701,0.002989458845663521,0.0024848760799971235
6669.355264439226,0.002984908640240632,0.0024824619524447026
6669.356264211441,0.002981641447680423,0.00247939944060454
6669.357263983657,0.002979611053029231,0.0024756890683463664
6669.358263755871,0.002978772389808614,0.002471330213838395
6669.359263528087,0.0029790862866038714,0.002466322854507849
6669.360263300302,0.0029805230874055816,0.002460669390933201
6669.361263072517,0.0029830648764137997,0.002454376472654391
6669.362262844733,0.0029867061216934496,0.0024474567667323254
6669.363262616947,0.0029914526946851435,0.0024399306146151265
6669.364262389163,0.0029973194154639445,0.0024318275049394
6669.365262161378,0.0030043264685770395,0.0024231872540085133
6669.366261933594,0.0030124951733520493,0.002414060755177868
6669.367261705809,0.0030218436395938464,0.002404510160749534
6669.368261478025,0.0030323827916811357,0.002394608406240808
6669.369261250239,0.0030441131289282,0.0023844380657298847
6669.370261022455,0.003057022450121897,0.002374089612200343
6669.37126079467,0.003071084638640284,0.00236365921967699
6669.372260566885,0.003086259492334712,0.0023532462674652676
6669.373260339101,0.003102493484263961,0.002342950693420427
6669.374260111315,0.0031197212552331707,0.0023328703115524565
6669.375259883531,0.0031378675788181548,0.0023230981833256554
6669.376259655746,0.0031568495110919277,0.0023137201243601585
6669.377259427962,0.003176578432255155,0.0023048124302744205
6669.378259200177,0.0031969617030832465,0.002296439898066118
6669.379258972392,0.003217903706672452,0.002288654193255448
6669.380258744607,0.003239306129123279,0.0022814925751092844
6669.381258516823,0.0032610674397766768,0.0022749769590220204
6669.382258289038,0.0032830816456113888,0.002269113280778408
6669.383258061253,0.00330523649667309,0.0022638911336569996
6669.384257833468,0.003327411391188787,0.0022592836657595134
6669.385257605683,0.0033494752629158494,0.0022552477423099355
6669.386257377899,0.0033712847391628993,0.0022517243928684583
6669.387257150114,0.0033926828487871436,0.002248639571066598
6669.38825692233,0.003413498532817235,0.0022459052495361564
6669.389256694545,0.0034335471549245405,0.0022434208624873483
6669.39025646676,0.0034526321282739676,0.002241075104611564
6669.391256238975,0.003470547690852364,0.002238748094089549
6669.392256011191,0.0034870827890190986,0.0022363138938085855
6669.393255783406,0.003502025959156555,0.0022336433524716326
6669.394255555621,0.003515171008794266,0.0022306071881907177
6669.395255327836,0.0035263231944382928,0.002227079209307108
6669.396255100051,0.003535305513392364,0.0022229395593981152
6669.397254872267,0.003541964716527383,0.002218077881178601
6669.398254644482,0.003546176712217193,0.0022123963091418538
6669.399254416698,0.0035478511193956807,0.0022058122241445624
6669.400254188913,0.003546934782862135,0.0021982607360415056
6669.401253961128,0.0035434140798041264,0.0021896968840862245
6669.402253733343,0.0035373158729222268,0.0021800975315457304
6669.403253505559,0.003528707054012112,0.0021694628822921977
6669.404253277774,0.0035176927659481493,0.0021578174983754124
6669.405253049989,0.003504413527423503,0.0021452106795563732
6669.406252822204,0.003489041552968304,0.002131716077757455
6669.407252594419,0.0034717765502408435,0.0021174304472995798
6669.408252366635,0.003452841217961893,0.002102471478706286
6669.40925213885,0.0034324766005354676,0.002086974741526445
6669.410251911066,0.0034109374110245284,0.002071089857631895
6669.411251683281,0.0033884874261207267,0.002054976107140223
6669.412251455496,0.003365395067255445,0.002038797715639049
6669.413251227711,0.0033419292716110366,0.0020227190881825976
6669.414250999927,0.003318355702579557,0.002006900247872275
6669.415250772142,0.00329493327134131,0.0019914927052674244
6669.416250544357,0.0032719108865265248,0.0019766359364348013
6669.417250316572,0.0032495243477656728,0.001962454592405489
6669.418250088787,0.003227993334765459,0.0019490565045885589
6669.419249861003,0.0032075184675890325,0.0019365314884493734
6669.420249633218,0.003188278400308263,0.0019249508848364191
6669.421249405434,0.0031704268902910137,0.0019143677260070311
6669.422249177649,0.003154089810902389,0.0019048173870046335
6669.423248949864,0.0031393621592838566,0.0018963185898133777
6669.424248722079,0.0031263052205476455,0.0018888746566110446
6669.425248494295,0.003114944144109622,0.0018824749367286093
6669.42624826651,0.003105266241137158,0.0018770963445996634
6669.427248038725,0.0030972203150472976,0.0018727049463910486
6669.42824781094,0.0030907172954114373,0.0018692575334227593
6669.429247583155,0.0030856323728154934,0.0018667031257591656
6669.430247355371,0.003081808736299652,0.0018649843540085483
6669.431247127586,0.00307906289624061,0.0018640386684420677
6669.432246899802,0.0030771914352707747,0.0018637993283690786
6669.433246672017,0.0030759788791526322,0.0018641961359799684
6669.434246444232,0.0030752062435765726,0.001865155895636491
6669.435246216447,0.003074659727897424,0.0018666026042346157
6669.436245988662,0.003074139024557336,0.0018684574158645813
6669.437245760878,0.0030734647959246505,0.0018706384662737028
6669.438245533093,0.003072484997300406,0.0018730606715797297
6669.439245305308,0.0030710798313442573,0.001875635623142985
6669.440245077523,0.0030691651710422346,0.0018782716907553988
6669.441244849739,0.0030666943149119464,0.0018808744254183766
6669.442244621954,0.0030636579995620343,0.001883347327388787
6669.44324439417,0.0030600827199017654,0.001885593022988891
6669.444244166384,0.003056027568017394,0.0018875148776979185
6669.4452439386,0.00305157993696413,0.0018890190559616334
6669.446243710815,0.0030468504962240794,0.001890017009165545
6669.44724348303,0.0030419678228351186,0.0018904283291019104
6669.448243255246,0.003037072994654811,0.0018901838537624513
6669.44924302746,0.0030323143614551665,0.0018892288694506811
6669.450242799676,0.0030278426377293457,0.0018875262282370437
6669.451242571891,0.0030238064194769826,0.0018850591985047707
6669.452242344107,0.0030203482037726966,0.0018818338919630029
6669.453242116322,0.0030176009561757,0.0018778811569007735
6669.454241888538,0.0030156852089715013,0.0018732578752051476
6669.455241660752,0.0030147066085412745,0.001868047630045297
6669.456241432968,0.00301475381860183,0.0018623607191959896
6669.457241205183,0.003015896744436458,0.0018563334886236356
6669.458240977398,0.0030181851128944005,0.0018501269625074252
6669.459240749614,0.0030216474481206007,0.001843924748680176
6669.460240521828,0.0030262904135821933,0.0018379302064458656
6669.461240294044,0.0030320984123156833,0.0018323628898454158
6669.462240066259,0.0030390333299687455,0.001827454320606086
6669.463239838475,0.0030470343995990176,0.001823443178153804
6669.46423961069,0.003056018322346536,0.001820570011989741
6669.465239382906,0.0030658799135646914,0.0018190716040990752
6669.46623915512,0.00307649359422135,0.0018191751470131648
6669.467238927336,0.0030877159961349627,0.0018210924379720936
6669.468238699551,0.0030993898258955253,0.001825014296002557
6669.469238471766,0.003111348981530879,0.0018311053861685808
6669.470238243982,0.003123424773997617,0.0018394996067303078
6669.471238016196,0.0031354529875630196,0.0018502961753380104
6669.472237788412,0.003147281415466303,0.00186355652919883
6669.473237560627,0.0031587774240567482,0.001879302116536737
6669.474237332843,0.0031698350401562505,0.0018975131088126136
6669.475237105058,0.00318038104733885,0.0019181280270870974
6669.476236877274,0.00319037963834394,0.0019410442652085347
6669.477236649488,0.0031998353003711553,0.001966119498013246
6669.478236421704,0.003208793766523006,0.0019931739604441725
6669.479236193919,0.0032173409880125545,0.002021993556936305
6669.480235966134,0.003225600141255821,0.0020523337160477956
6669.48123573835,0.0032337267227842436,0.002083923864553409
6669.482235510564,0.0032419018681235767,0.0021164723708164196
6669.48323528278,0.003250324178587344,0.0021496717942257066
6669.484235054995,0.003259200510892227,0.002183204269644851
6669.485234827211,0.003268736310770529,0.0022167468578818328
6669.486234599426,0.0032791261049113798,0.002249976710851687
6669.4872343716415,0.003290544706060034,0.0022825759323670306
6669.488234143856,0.0033031395770833426,0.0023142360591055433
6669.489233916072,0.0033170246875310738,0.002344662135026489
6669.490233688287,0.0033322760966280345,0.002373576393417864
6669.491233460502,0.0033489293991085774,0.0024007215802260727
6669.492233232718,0.0033669790614731915,0.002425863945909228
6669.493233004932,0.0033863795517021424,0.002448795909731155
6669.494232777148,0.0034070480310738446,0.002469338376572531
6669.495232549363,0.0034288682555377375,0.0024873426730257875
6669.496232321579,0.003451695265617805,0.002502692067319817
6669.497232093794,0.003475360458213032,0.0025153028411947762
6669.4982318660095,0.0034996767198177646,0.0025251248838883585
6669.499231638224,0.003524443403776092,0.0025321417736863822
6669.50023141044,0.0035494509951153773,0.0025363703028230427
6669.501231182655,0.003574485314003377,0.0025378593940783476
6669.50223095487,0.0035993311072986347,0.00253668835891031
6669.503230727086,0.003623774917087048,0.002532964459374655
6669.5042304993,0.003647607205096074,0.0025268197596317486
6669.505230271516,0.003670623826842798,0.0025184072924200425
6669.506230043731,0.003692627055292692,0.00250789662337844
6669.507229815947,0.0037134264207618656,0.002495468959203758
6669.508229588162,0.0037328396444941967,0.0024813120000300917
6669.509229360377,0.0037506938996499433,0.002465614779685707
6669.510229132592,0.0037668275492888413,0.00244856276755603
6669.511228904808,0.0037810924067463426,0.0024303335100716154
6669.512228677023,0.003793356466134443,0.002411093056870271
6669.513228449238,0.0038035069781127335,0.002390993350300947
6669.514228221453,0.0038114536979770666,0.0023701706737648746
6669.515227993668,0.003817132104707424,0.002348745169580848
6669.516227765884,0.003820506383298839,0.0023268213563132655
6669.517227538099,0.0038215719731559705,0.002304489503606449
6669.518227310315,0.0038203574929448992,0.0022818276709249013
6669.51922708253,0.0038169258457012513,0.0022589041917104183
6669.520226854745,0.0038113743037393793,0.002235780378943057
6669.52122662696,0.003803833404525116,0.0022125132330773623
6669.522226399175,0.003794464576236988,0.002189157948689705
6669.523226171391,0.0037834565445702393,0.002165770043515401
6669.524225943606,0.0037710207204912425,0.002142406971442611
6669.525225715821,0.003757385896816469,0.0021191291297870734
6669.526225488036,0.003742792650632652,0.0020960002330431184
6669.527225260252,0.003727487834833772,0.0020730870971893585
6669.528225032467,0.0037117194663826296,0.002050458947265754
6669.529224804683,0.003695732234644991,0.0020281864076864067
6669.530224576898,0.00367976379347417,0.002006340348238992
6669.531224349113,0.0036640419486590986,0.0019849907417496928
6669.532224121328,0.0036487827680853828,0.001964205651864931
6669.533223893543,0.0036341895158487547,0.0019440504201140593
6669.534223665759,0.0036204521857243063,0.0019245870692981989
6669.535223437974,0.0036077473476162775,0.001905873897854183
6669.536223210189,0.0035962380528182696,0.0018879652187288663
6669.537222982404,0.0035860736351172235,0.001870911195702319
6669.53822275462,0.0035773893254378245,0.0018547577370250335
6669.539222526835,0.003570305625061251,0.0018395464127686954
6669.540222299051,0.0035649273663716364,0.0018253143728500416
6669.541222071266,0.0035613423733821797,0.0018120942608981952
6669.542221843481,0.003559619661396354,0.0017999141406959346
6669.543221615696,0.003559807207151571,0.0017887974702399956
6669.544221387911,0.0035619294583950686,0.0017787631669433659
6669.545221160127,0.003565984878727698,0.0017698258015301901
6669.546220932342,0.003571943883738771,0.0017619959410169405
6669.547220704557,0.0035797475040819033,0.0017552806398324623
6669.548220476772,0.0035893070339821976,0.001749684052059403
6669.549220248988,0.0036005048132793215,0.0017452081030850167
6669.550220021203,0.0036131961573705003,0.0017418531252061228
6669.551219793419,0.0036272123093428507,0.0017396183520597772
6669.552219565634,0.003642364177682595,0.0017385021926923053
6669.5532193378485,0.003658446571331383,0.0017385022493821669
6669.554219110064,0.003675242648310485,0.0017396150747159553
6669.555218882279,0.0036925283265645923,0.0017418356747919586
6669.556218654495,0.0037100764461355296,0.0017451567703903339
6669.55721842671,0.0037276605228282276,0.0017495678373386366
6669.558218198925,0.003745057999983834,0.0017550539598399555
6669.55921797114,0.003762052966430019,0.0017615945433880423
6669.560217743356,0.00377843832919461,0.0017691619483684838
6669.561217515571,0.003794017405693121,0.001777720120725351
6669.562217287787,0.003808604881679671,0.0017872233053938776
6669.563217060002,0.0038220271225940135,0.0017976149242049384
6669.5642168322165,0.0038341219267268166,0.0018088266819171915
6669.565216604432,0.0038447379200131967,0.0018207779397487428
6669.566216376647,0.0038537338665072525,0.0018333753758257786
6669.567216148863,0.0038609781861301392,0.0018465129409384487
6669.568215921078,0.0038663489371467677,0.0018600721136062602
6669.569215693293,0.0038697344539572283,0.0018739224579868733
6669.570215465508,0.003871034749338232,0.0018879224912949817
6669.571215237724,0.003870163699969777,0.0019019208720810255
6669.572215009939,0.0038670519335752196,0.0019157579191573036
6669.5732147821545,0.003861650231451282,0.0019292674548717545
6669.574214554369,0.003853933171746035,0.0019422789400337641
6669.5752143265845,0.003843902689620214,0.001954619848503867
6669.5762140988,0.0038315912284264285,0.0019661182262252566
6669.577213871015,0.0038170641949897936,0.0019766053799434155
6669.578213643231,0.0038004215006015247,0.0019859186342584775
6669.579213415446,0.003781798042411391,0.001993904094674571
6669.580213187661,0.003761363022175803,0.002000419374328638
6669.581212959876,0.003739318002116618,0.0020053362720081416
6669.582212732092,0.003715893597468465,0.0020085434027685197
6669.583212504307,0.0036913447550860987,0.002009948769950558
6669.5842122765225,0.0036659446940708585,0.0020094822416845764
6669.585212048737,0.0036399777594077836,0.0020070978746107235
6669.5862118209525,0.003613731589053634,0.0020027760204529006
6669.587211593168,0.003587489057550561,0.0019965251521668298
6669.588211365383,0.003561520437841216,0.001988383343723025
6669.589211137599,0.003536076168101788,0.0019784193214848326
6669.590210909813,0.0035113805600082005,0.0019667329805483557
6669.591210682029,0.0034876267319432263,0.0019534552484005785
6669.592210454244,0.0034649729699764123,0.0019387471991317027
6669.59321022646,0.0034435406095608637,0.0019227983686122788
6669.594209998675,0.0034234134200674337,0.0019058242729532078
6669.5952097708905,0.003404638392859163,0.0018880631712808716
6669.596209543105,0.0033872277860695736,0.0018697721322419418
6669.5972093153205,0.0033711622445876136,0.0018512224639888144
6669.598209087536,0.0033563947757424056,0.0018326945613914023
6669.599208859751,0.003342855325407777,0.0018144722319741106
6669.600208631967,0.003330455673173654,0.0017968366020709417
6669.601208404181,0.0033190943475029672,0.0017800597753174262
6669.602208176397,0.003308661264117314,0.0017643984868708083
6669.603207948612,0.003299041842848556,0.001750088029943019
6669.604207720828,0.0032901204735709087,0.0017373367122061896
6669.605207493043,0.003281783349859099,0.0017263210494600782
6669.6062072652585,0.0032739208076945055,0.0017171818546666644
6669.607207037473,0.0032664293507245245,0.0017100213460618107
6669.608206809688,0.003259213523404188,0.0017049013715194734
6669.609206581904,0.003252187755726838,0.0017018428150778755
6669.610206354119,0.0032452782755447137,0.0017008262100602972
6669.611206126335,0.0032384251509408124,0.0017017935374239593
6669.612205898549,0.003231584458573452,0.0017046511476034904
6669.613205670765,0.003224730474041583,0.001709273707920275
6669.61420544298,0.0032178576763373526,0.0017155090348990466
6669.615205215196,0.0032109822886758005,0.0017231836218605347
6669.616204987411,0.003204143071903578,0.0017321086340481037
6669.6172047596265,0.003197401147994743,0.0017420861279787156
6669.618204531841,0.003190838726517716,0.001752915247407454
6669.619204304056,0.0031845566870952213,0.0017643981389515722
6669.620204076272,0.0031786710148037126,0.0017763453253277766
6669.621203848487,0.0031733081195433523,0.00178858030224796
6669.622203620703,0.0031685991409702552,0.0018009431951423276
6669.623203392917,0.0031646734647516415,0.0018132933965383964
6669.624203165133,0.003161651816998892,0.0018255111719483045
6669.625202937348,0.0031596394020756004,0.0018374982683877481
6669.626202709564,0.0031587195739505272,0.0018491776017686091
6669.627202481779,0.0031589484911916962,0.0018604921433254024
6669.6282022539945,0.0031603511209990897,0.0018714031604106132
6669.629202026209,0.0031629188476211844,0.0018818879818186661
6669.630201798424,0.003166608825826378,0.0018919374473952825
6669.63120157064,0.0031713451155911798,0.0019015531682338334
6669.632201342855,0.003177021538007065,0.0019107446806744038
6669.633201115071,0.0031835060922935695,0.0019195265480036285
6669.634200887285,0.003190646667230446,0.0019279154661171818
6669.635200659501,0.0031982776889861804,0.0019359274608369034
6669.636200431716,0.0032062273065273693,0.001943575304522022
6669.637200203932,0.0032143247413004158,0.0019508663047564589
6669.638199976147,0.003222407493229153,0.0019578006145469177
6669.6391997483615,0.003230328148254348,0.0019643701805758646
6669.640199520577,0.003237960536631839,0.001970558389580464
6669.641199292792,0.0032452049509302965,0.0019763404003486835
6669.642199065008,0.0032519920935000393,0.0019816840729761933
6669.643198837223,0.0032582854455376377,0.0019865513496446817
6669.644198609439,0.003264081867469957,0.001990899921191125
6669.645198381653,0.003269410427430132,0.0019946850309864126
6669.646198153869,0.003274329639431131,0.001997861305307247
6669.647197926084,0.0032789234139152306,0.0020003845429221643
6669.6481976983,0.0032832960696206693,0.002002213442137438
6669.649197470515,0.0032875667547412847,0.0020033112853514255
6669.6501972427295,0.003291863607302945,0.002003647623295727
6669.651197014945,0.0032963179608104906,0.002003199991665164
6669.65219678716,0.003301058863364263,0.0020019556591873333
6669.653196559376,0.003306208112701494,0.001999913366772942
6669.654196331591,0.003311875917717318,0.0019970849826641698
6669.655196103806,0.003318157207440128,0.001993496967913125
6669.656195876021,0.003325128558284261,0.0019891915212904765
6669.657195648237,0.0033328457111764203,0.0019842272639125245
6669.658195420452,0.003341341676171208,0.0019786793439571437
6669.659195192668,0.0033506254311024045,0.0019726388880759557
6669.660194964883,0.0033606811834493385,0.0019662117790483795
6669.6611947370975,0.0033714680914086305,0.001959516784534504
6669.662194509313,0.003382920286000768,0.0019526831041027754
6669.663194281528,0.0033949470591299025,0.0019458474470347667
6669.664194053744,0.0034074331912985136,0.0019391507913670916
6669.665193825959,0.003420239540003313,0.0019327349911972883
6669.666193598174,0.003433204129248924,0.001926739394244053
6669.667193370389,0.00344614402161725,0.0019212976114279631
6669.668193142605,0.0034588582033042103,0.0019165345472892897
6669.66919291482,0.0034711315972718766,0.0019125637600712895
6669.670192687036,0.0034827401876622475,0.0019094851844024575
6669.671192459251,0.0034934571215711548,0.0019073832212885846
6669.6721922314655,0.003503059552137086,0.001906325176573564
6669.673192003681,0.003511335888360668,0.0019063600177649585
6669.674191775896,0.0035180930346696625,0.0019075174349848971
6669.675191548112,0.0035231631765972257,0.0019098072323392222
6669.676191320327,0.003526409723111396,0.0019132191165947632
6669.677191092542,0.0035277321271995742,0.0019177229651708668
6669.678190864757,0.0035270694195449937,0.0019232696341015645
6669.679190636973,0.003524402362608357,0.0019297923125280699
6669.680190409188,0.0035197541568965027,0.0019372083594470775
6669.681190181404,0.0035131896389306466,0.0019454214948908006
6669.682189953619,0.003504812950655143,0.0019543241831833516
6669.6831897258335,0.003494763757363215,0.001963800048433836
6669.684189498049,0.0034832122247972904,0.0019737261921982017
6669.685189270264,0.0034703530922044765,0.001983975323746661
6669.68618904248,0.0034563992572845285,0.001994417656668228
6669.687188814695,0.0034415752970178835,0.0020049225661222672
6669.68818858691,0.003426111287241073,0.002015360023441673
6669.689188359125,0.003410237184271497,0.002025601821050507
6669.690188131341,0.0033941779320245283,0.0020355225897152277
6669.691187903556,0.003378149374868594,0.002045000615396459
6669.692187675772,0.003362354981982945,0.0020539184829446344
6669.693187447987,0.0033469833154782525,0.0020621635920940106
6669.6941872202015,0.0033322061130304074,0.002069628599586045
6669.695186992417,0.003318176826534695,0.0020762118412298203
6669.696186764632,0.0033050294754844436,0.002081817779683623
6669.697186536848,0.0032928777351886552,0.002086357506810367
6669.698186309063,0.003281814254271446,0.0020897493095479833
6669.699186081278,0.0032719102304439958,0.0020919192961350603
6669.700185853493,0.0032632152364912843,0.002092802075786871
6669.701185625709,0.0032557572043672655,0.002092341478115559
6669.702185397924,0.003249542411529786,0.002090491285746227
6669.70318517014,0.003244555328134464,0.0020872159482792484
6669.704184942354,0.0032407582817112843,0.0020824912579760946
6669.705184714569,0.00323809103126844,0.0020763049875756607
6669.706184486785,0.003236470455710342,0.002068657499080897
6669.707184259,0.00323579061514823,0.0020595623180549743
6669.708184031216,0.0032359234339632598,0.002049046636155117
6669.709183803431,0.003236720199433039,0.0020371516760525296
6669.710183575646,0.003238013995059695,0.002023932850695611
6669.711183347861,0.0032396231138480595,0.0020094596773516074
6669.712183120077,0.0032413554278937122,0.0019938154482411355
6669.713182892292,0.003243013616434087,0.001977096691765845
6669.714182664508,0.0032444010713118068,0.001959412466468959
6669.715182436722,0.0032453282254277975,0.0019408835127534287
6669.716182208937,0.0032456190113500654,0.001921641266243957
6669.717181981153,0.0032451171577804502,0.0019018267394421196
6669.718181753368,0.0032436920489046614,0.0018815893034314982
6669.719181525584,0.00324124387357684,0.001861085415965508
6669.720181297798,0.0032377077630733565,0.0018404773224971283
6669.721181070014,0.0032330565869165685,0.0018199317144565704
6669.722180842229,0.0032273021079018364,0.0017996182967833648
6669.723180614445,0.0032204943281163574,0.0017797082187444933
6669.72418038666,0.00321271906085935,0.0017603723613929837
6669.725180158875,0.003204093968985506,0.0017417795336543763
6669.72617993109,0.0031947634541712603,0.0017240946764449968
6669.727179703305,0.0031848928351568833,0.001707477187059351
6669.728179475521,0.0031746622285993005,0.0016920794549598768
6669.729179247736,0.0031642604826003966,0.001678045661713738
6669.730179019952,0.0031538794455604462,0.0016655108549100545
6669.731178792166,0.0031437087946408378,0.0016546002651549726
6669.732178564382,0.0031339315901829892,0.0016454288069930492
6669.733178336597,0.0031247206485326365,0.0016381006977802337
6669.734178108813,0.0031162357345604214,0.0016327091373486138
6669.735177881028,0.003108621487723654,0.0016293359997997428
6669.736177653243,0.00310200593587791,0.0016280514863678602
6669.737177425458,0.0030964994337062918,0.0016289136745314577
6669.738177197673,0.0030921938902248513,0.001631967882920529
6669.739176969889,0.0030891621998368987,0.0016372457729222718
6669.740176742104,0.0030874578207373184,0.0016447641404842156
6669.74117651432,0.00308711443338241,0.0016545234071821862
6669.742176286534,0.003088145590890586,0.0016665058703616577
6669.74317605875,0.003090544290634797,0.00168067379649222
6669.744175830965,0.003094282468030353,0.0016969674476044084
6669.7451756031805,0.003099310513748538,0.0017153031460583324
6669.746175375396,0.0031055570012531687,0.0017355715211907932
6669.747175147611,0.00311292884790316,0.0017576361238493534
6669.748174919826,0.0031213121052731585,0.0017813326130828072
6669.749174692041,0.0031305734914445884,0.001806468701962118
6669.750174464257,0.0031405626689589433,0.0018328250008056365
6669.751174236472,0.003151115175436596,0.001860156822594441
6669.752174008688,0.0031620558570028706,0.001888196926039373
6669.753173780902,0.003173202634734258,0.0019166590839298921
6669.754173553118,0.0031843704252264367,0.0019452422995925233
6669.755173325333,0.003195375028222843,0.001973635464625018
6669.7561730975485,0.0032060368132117555,0.002001522252565885
6669.757172869764,0.0032161841020697393,0.0020285860632945035
6669.758172641979,0.003225656221486203,0.002054514860108897
6669.759172414194,0.0032343062262165873,0.002079005772020849
6669.760172186409,0.003242003252802196,0.0021017693769331764
6669.761171958625,0.0032486343979808495,0.0021225336429484933
6669.76217173084,0.0032541059941058803,0.0021410475641178662
6669.763171503056,0.003258344207229479,0.002157084548534828
6669.76417127527,0.00326129498881311,0.002170445588486491
6669.765171047486,0.0032629235210588883,0.0021809621828575774
6669.766170819701,0.003263213369600435,0.002188498922125604
6669.7671705919165,0.003262165574414559,0.0021929556121308
6669.768170364132,0.003259797868517431,0.0021942688126515694
6669.7691701363465,0.0032561441381314424,0.0021924126934130942
6669.770169908562,0.003251254167077435,0.0021873991591447343
6669.771169680777,0.0032451936679698343,0.002179277263946463
6669.772169452993,0.0032380445845613406,0.0021681320011932583
6669.773169225208,0.0032299056224114964,0.0021540825884753473
6669.774168997424,0.0032208929128754115,0.002137280368042632
6669.775168769638,0.003211140654779668,0.002117906438684599
6669.776168541854,0.003200801536057726,0.0020961691349653403
6669.777168314069,0.003190046727891721,0.0020723014558257135
6669.7781680862845,0.0031790652683323572,0.0020465585020386363
6669.7791678585,0.0031680627013068218,0.0020192149216623945
6669.7801676307145,0.0031572588881674853,0.0019905623079057118
6669.78116740293,0.0031468849480184315,0.001960906462739349
6669.782167175145,0.003137179321622251,0.0019305644433382876
6669.783166947361,0.0031283830151444415,0.0018998613515000854
6669.784166719576,0.0031207341722150196,0.001869126897236504
6669.785166491791,0.003114462226034266,0.0018386918378553178
6669.786166264006,0.003109781959631215,0.0018088844330473026
6669.787166036222,0.003106887823801396,0.0017800270532287359
6669.788165808437,0.0031059488345889443,0.0017524330441810842
6669.7891655806525,0.003107104323848208,0.0017264039091282183
6669.790165352868,0.0031104607621334135,0.0017022268383648865
6669.791165125082,0.0031160898031977412,0.0016801725995088496
6669.792164897298,0.00312402760433128,0.001660493786885032
6669.793164669513,0.0031342753648102312,0.0016434234035328397
6669.794164441729,0.0031468009147961763,0.001629173713112833
6669.795164213944,0.003161541103291394,0.0016179352618203077
6669.796163986159,0.0031784047047770754,0.0016098759426430734
6669.797163758374,0.0031972756040673355,0.001605139961853576
6669.79816353059,0.0032180161012290015,0.0016038465763273395
6669.799163302805,0.003240470243677015,0.0016060885080470926
6669.8001630750205,0.003264467096026643,0.0016119300095979393
6669.801162847236,0.003289823811004031,0.0016214046334732885
6669.80216261945,0.0033163483248350627,0.0016345128205808304
6669.803162391666,0.0033438415266383785,0.0016512194561395278
6669.804162163881,0.0033720988611446547,0.0016714515509251855
6669.805161936097,0.003400911481911069,0.0016950961991447787
6669.806161708312,0.003430067207271005,0.0017219989402587866
6669.807161480527,0.0034593515812205424,0.0017519626203344604
6669.808161252742,0.0034885492954779946,0.0017847468328052577
6669.809161024958,0.003517446130610759,0.0018200680321496215
6669.810160797173,0.003545831478844544,0.001857600444013377
6669.811160569388,0.00357350144301787,0.0018969779162085502
6669.812160341604,0.003600262454040898,0.0019377968478763985
6669.813160113818,0.0036259352902932003,0.0019796202928173716
6669.814159886034,0.0036503593054404656,0.0020219832633708674
6669.815159658249,0.003673396596951016,0.0020643991761886884
6669.816159430465,0.0036949358240536277,0.0021063672951222696
6669.81715920268,0.0037148954334752654,0.002147380953014338
6669.818158974895,0.003733226131760705,0.002186936283328375
6669.81915874711,0.00374991249007227,0.0022245411659913288
6669.820158519326,0.0037649735666129822,0.0022597240884998033
6669.821158291541,0.003778462426285853,0.0022920426438781047
6669.822158063756,0.0037904644755707845,0.002321091423158338
6669.823157835972,0.0038010946206748666,0.002346509093304343
6669.824157608186,0.0038104933660034392,0.002367984478654625
6669.825157380402,0.0038188220638219377,0.002385261505682462
6669.826157152617,0.003826257595314661,0.0023981429377759483
6669.827156924833,0.0038329868053270343,0.0024064928948609485
6669.828156697048,0.003839201014916384,0.002410238189773098
6669.829156469263,0.0038450908951486737,0.002409368514126239
6669.830156241478,0.0038508419232053245,0.0024039354917256366
6669.8311560136935,0.0038566305761529897,0.0023940506120857285
6669.832155785909,0.0038626213480994448,0.0023798820754767492
6669.833155558124,0.0038689645984608064,0.002361650626618646
6669.834155330339,0.0038757951560758983,0.0023396245156512914
6669.835155102554,0.0038832315291098336,0.002314113778139205
6669.83615487477,0.0038913755326247606,0.002285464043854515
6669.837154646985,0.0039003121705042726,0.002254050058226066
6669.838154419201,0.003910109675866956,0.002220269049008676
6669.839154191416,0.0039208196563491155,0.0021845340262700813
6669.840153963631,0.003932477259837908,0.0021472670913638735
6669.841153735846,0.003945101199425581,0.0021088928504302525
6669.8421535080615,0.003958693429195052,0.00206983205295234
6669.843153280277,0.0039732382995746884,0.0020304955758457086
6669.844153052492,0.003988701140253007,0.001991278846210081
6669.845152824707,0.004005026377341374,0.0019525567651856933
6669.846152596922,0.004022135435834001,0.0019146791804412486
6669.847152369138,0.004039924763896976,0.0018779669514216472
6669.848152141353,0.004058264324254144,0.001842708643312295
6669.849151913569,0.0040769968443668935,0.0018091578637772746
6669.850151685783,0.004095938030612587,0.0017775312274514543
6669.851151457999,0.004114877852984939,0.0017480069133322016
6669.852151230214,0.004133582902605587,0.0017207237817189129
6669.8531510024295,0.004151799721721155,0.001695781037496946
6669.854150774645,0.004169258924831852,0.0016732384496076713
6669.85515054686,0.004185679894784607,0.001653117146706564
6669.856150319075,0.004200775859391209,0.0016354010061683545
6669.85715009129,0.004214259217024537,0.0016200386513961973
6669.858149863506,0.00422584704480187,0.00160694607603121
6669.859149635721,0.00423526674395837,0.0015960099107083933
6669.860149407937,0.004242261729250475,0.0015870913264849028
6669.861149180151,0.0042465969784008725,0.0015800305337220018
6669.862148952367,0.004248064193074861,0.0015746518017566355
6669.863148724582,0.004246486342916705,0.0015707689029381773
6669.8641484967975,0.004241721464139046,0.0015681908697547321
6669.865148269013,0.004233665707392262,0.0015667279341051296
6669.866148041228,0.004222255721720043,0.001566197487815631
6669.867147813443,0.004207470502740969,0.001566429868825817
6669.868147585658,0.004189332831827008,0.0015672737486051175
6669.869147357874,0.004167910406414413,0.001568600880493009
6669.870147130089,0.004143316723732281,0.0015703099698283886
6669.871146902305,0.0041157117327762826,0.0015723294492428388
6669.872146674519,0.00408530220406702,0.0015746189869524463
6669.873146446735,0.004052341684733604,0.0015771696181537988
6669.87414621895,0.004017129831542489,0.0015800024675493333
6669.8751459911655,0.0039800108796950616,0.0015831661213382454
6669.876145763381,0.0039413710267657805,0.0015867327952384074
6669.877145535596,0.0039016345758823953,0.0015907935122815848
6669.878145307811,0.0038612587566277824,0.0015954525433753922
6669.879145080026,0.00382072719622959,0.0016008213817987583
6669.880144852242,0.003780542046625228,0.0016070125296749086
6669.881144624457,0.0037412148172901146,0.0016141333729295401
6669.882144396673,0.0037032560525602685,0.0016222804046508916
6669.883144168887,0.0036671641219164215,0.001631534019842657
6669.884143941103,0.0036334135239725895,0.0016419540557958022
6669.885143713318,0.0036024431995514044,0.0016535762061159083
6669.8861434855335,0.003574645385503753,0.0016664093965823139
6669.887143257749,0.003550355518046442,0.0016804341725999434
6669.888143029964,0.0035298436261049504,0.0016956021105983452
6669.889142802179,0.0035133075647221,0.0017118362330531382
6669.890142574394,0.003500868349968012,0.0017290323786688276
6669.89114234661,0.0034925677781941487,0.001747061452947889
6669.892142118825,0.003488368427305344,0.001765772458074451
6669.893141891041,0.0034881560217416676,0.0017849961715333414
6669.894141663255,0.0034917439919340256,0.0018045493094611437
6669.895141435471,0.0034988798994015744,0.0018242389851823603
6669.896141207686,0.003509253278809049,0.0018438672741112408
6669.897140979901,0.0035225044139391435,0.0018632357248838305
6669.898140752117,0.003538233620043037,0.0018821496909925146
6669.899140524331,0.0035560106993695203,0.001900422376749178
6669.900140296547,0.0035753843064800254,0.0019178784989551084
6669.901140068762,0.0035958909858335914,0.0019343574735891152
6669.902139840978,0.003617063654338641,0.0019497160488840773
6669.903139613193,0.003638439336909862,0.0019638303273417155
6669.904139385409,0.0036595660515860804,0.0019765971623952835
6669.905139157623,0.00368000887755583,0.0019879349785965283
6669.906138929839,0.00369935537154866,0.0019977841173462693
6669.907138702054,0.0037172205590826845,0.0020061068218694485
6669.908138474269,0.003733251700476268,0.0020128869442417297
6669.909138246485,0.0037471329548832977,0.0020181294117703583
6669.910138018699,0.0037585899761373495,0.0020218594615427805
6669.911137790915,0.0037673943836124294,0.0020241216511512204
6669.91213756313,0.0037733679694860987,0.002024978664421371
6669.913137335346,0.003776386449073029,0.0020245099307220943
6669.914137107561,0.003776382540537623,0.002022810062887962
6669.915136879776,0.003773348166047542,0.0020199871138465537
6669.916136651991,0.0037673355920305692,0.0020161606740263446
6669.917136424207,0.0037584573717166087,0.002011459866714232
6669.918136196422,0.003746885011247935,0.002006021312665858
6669.919135968637,0.003732846325706656,0.0019999871122848402
6669.920135740853,0.0037166214525321457,0.0019935028463660734
6669.921135513067,0.0036985374529239054,0.0019867155489762187
6669.922135285283,0.003678961420813254,0.0019797715806536345
6669.923135057498,0.0036582921018572514,0.0019728143382339966
6669.924134829714,0.0036369501977039607,0.0019659817750560284
6669.925134601929,0.003615367718116344,0.0019594037597039093
6669.926134374144,0.003593976869327421,0.0019531993589863893
6669.927134146359,0.0035731990054703963,0.0019474741741044453
6669.928133918575,0.0035534341392061456,0.001942317873610448
6669.92913369079,0.0035350514384993956,0.0019378020550854312
6669.930133463005,0.003518381050206501,0.0019339785445650123
6669.931133235221,0.003503707496371479,0.0019308782206113766
6669.932133007435,0.0034912647864081023,0.001928510431768291
6669.933132779651,0.003481233273026385,0.0019268630596075962
6669.934132551866,0.003473738155139867,0.0019259032583352593
6669.935132324082,0.0034688494257299183,0.001925578867548108
6669.936132096297,0.0034665830180905925,0.001925820442710004
6669.937131868512,0.003466902933743804,0.0019265437851081401
6669.938131640727,0.003469724203106672,0.0019276527974972626
6669.939131412943,0.003474916571190113,0.0019290424611616318
6669.940131185158,0.0034823087749346823,0.0019306017337233023
6669.941130957373,0.0034916932092149346,0.0019322162050715486
6669.942130729589,0.0035028307378412262,0.0019337704119383931
6669.943130501803,0.003515455456105605,0.0019351497833628435
6669.944130274019,0.0035292793472735573,0.001936242254822196
6669.945130046234,0.0035439969253463657,0.001936939637614776
6669.94612981845,0.0035592900419639537,0.0019371388577186747
6669.947129590665,0.0035748330284717657,0.0019367431899650685
6669.94812936288,0.003590298271719052,0.0019356636114163186
6669.949129135095,0.0036053622323834506,0.001933820372112833
6669.950128907311,0.003619711845846334,0.0019311448251982954
6669.951128679526,0.0036330512072665013,0.0019275814841988198
6669.952128451741,0.0036451084143914545,0.001923090205811963
6669.953128223957,0.003655642399449986,0.0019176483495922567
6669.954127996171,0.003664449521598076,0.001911252746462724
6669.955127768387,0.0036713696303857847,0.001903921312572564
6669.956127540602,0.003676291272528222,0.0018956941696363944
6669.957127312818,0.003679155718412557,0.0018866341712585257
6669.958127085033,0.003679959532763706,0.0018768267747297823
6669.959126857248,0.0036787554829317178,0.0018663792317617307
6669.960126629463,0.0036756516405217735,0.0018554191067320519
6669.961126401679,0.0036708085877042154,0.0018440921767432254
6669.962126173894,0.0036644347173529304,0.0018325598145103885
6669.963125946109,0.0036567797377131048,0.0018209959802928317
6669.964125718324,0.003648126648435391,0.0018095839481887589
6669.965125490539,0.0036387826101617433,0.00179851288343081
6669.966125262755,0.0036290692364179225,0.0017879743810424644
6669.96712503497,0.003619312856657351,0.0017781590602348027
6669.968124807186,0.0036098352326639697,0.001769253272479027
6669.969124579401,0.003600945097737969,0.0017614359358802394
6669.970124351616,0.0035929307777256693,0.0017548754776470247
6669.971124123831,0.0035860540615348024,0.0017497268607410662
6669.972123896047,0.0035805453984004386,0.0017461286827374
6669.973123668262,0.003576600394580875,0.0017442003569691886
6669.974123440477,0.0035743774769805216,0.0017440394210493215
6669.975123212692,0.003573996514185544,0.0017457190650797864
6669.976122984907,0.0035755381574534483,0.0017492860127959347
6669.977122757123,0.003579043691914716,0.0017547588988605046
6669.978122529338,0.00358451525516762,0.0017621272589505494
6669.979122301554,0.0035919163400031386,0.0017713512062740191
6669.980122073768,0.0036011725083022854,0.001782361831710196
6669.981121845984,0.0036121722170671107,0.0017950623366155868
6669.982121618199,0.003624767653815641,0.0018093298726688694
6669.983121390414,0.0036387755454972202,0.0018250180145162446
6669.98412116263,0.003653978041038023,0.0018419597395483687
6669.985120934845,0.003670123916047868,0.001859970753603136
6669.98612070706,0.0036869304305532768,0.0018788529911672577
6669.987120479275,0.003704086147300808,0.001898398131398895
6669.988120251491,0.003721254913420538,0.001918391005400973
6669.989120023706,0.0037380810708803392,0.0019386128262248226
6669.990119795922,0.0037541958271697304,0.001958844237461755
6669.991119568136,0.0037692246125111137,0.0019788682202199694
6669.992119340352,0.0037827951892015687,0.0019984729034219204
6669.993119112567,0.0037945462529686944,0.0020174542986492482
6669.994118884782,0.0038041362494180635,0.0020356189546273944
6669.995118656998,0.0038112521101105485,0.0020527865144736924
6669.996118429213,0.0038156176042712566,0.002068792155336455
6669.997118201428,0.003817001011579157,0.002083488880350056
6669.998117973643,0.003815221839466052,0.0020967496139119215
6669.999117745859,0.0038101563229446683,0.0021084690368977635
6670.000117518074,0.0038017414532884224,0.002118565107598936
6670.00111729029,0.0037899772896450154,0.002126980251322262
6670.002117062504,0.003774927338051194,0.0021336822434096176
6670.00311683472,0.003756716876178438,0.0021386648211937673
6670.004116606935,0.0037355292774213116,0.00214194802857669
6670.00511637915,0.0037116005993237905,0.002143578252263125
6670.006116151366,0.0036852128673304394,0.0021436278960976886
6670.007115923581,0.003656686553647407,0.0021421946738966412
6670.008115695796,0.0036263727264499884,0.0021394005501556485
6670.009115468011,0.003594645264712078,0.0021353903775711064
6670.010115240227,0.0035618934379464773,0.002130330255315183
6670.011115012442,0.0035285150569750617,0.002124405584024764
6670.012114784658,0.003494910312519495,0.002117818757445324
6670.013114556872,0.0034614763317451385,0.0021107864309209147
6670.014114329088,0.0034286023997982264,0.0021035363435574763
6670.015114101303,0.003396665720725254,0.0020963037190937814
6670.016113873518,0.0033660275527223594,0.0020893272997974475
6670.017113645734,0.003337029570327097,0.002082845065541337
6670.018113417949,0.0033099903669259623,0.002077089666533084
6670.019113190164,0.0032852020576990266,0.0020722835808049283
6670.020112962379,0.0032629269317275182,0.002068634033946866
6670.021112734595,0.003243394054810372,0.002066327803171152
6670.02211250681,0.003226795710244257,0.002065526131738044
6670.023112279026,0.0032132836336216113,0.0020663600396518427
6670.02411205124,0.003202965147666568,0.002068926307840431
6670.025111823456,0.003195899484626754,0.0020732843645007936
6670.026111595671,0.0031920947179083,0.0020794542506985614
6670.027111367886,0.0031915057477443845,0.0020874157959037253
6670.028111140102,0.0031940336962693098,0.0020971090820385446
6670.029110912316,0.0031995269154812696,0.0021084362100045
6670.030110684532,0.0032077836476812607,0.00212126430636325
6670.031110456747,0.0032185562313073648,0.002135429623587536
6670.032110228963,0.0032315566358235453,0.002150742506713653
6670.033110001178,0.0032464630513454225,0.0021669929459005
6670.0341097733935,0.003262927246185094,0.0021839564306902876
6670.035109545608,0.003280582414003641,0.0022013998647892933
6670.036109317824,0.003299051241296075,0.0022190873554238477
6670.037109090039,0.0033179539319908653,0.002236785721512861
6670.038108862254,0.003336915930511799,0.0022542695642707037
6670.03910863447,0.0033555750823516836,0.002271325737206216
6670.040108406684,0.0033735879600424326,0.0022877570686710602
6670.0411081789,0.0033906350849372798,0.002303385242119697
6670.042107951115,0.00340642483696038,0.0023180528173660214
6670.043107723331,0.0034206959906644303,0.0023316244508775484
6670.044107495546,0.003433219009020587,0.002343987412865887
6670.045107267761,0.003443796386549916,0.002355051496407668
6670.046107039976,0.003452262402928435,0.0023647483935197613
6670.047106812192,0.003458482625021657,0.002373030603740755
6670.048106584407,0.003462353416976811,0.0023798699469107063
6670.049106356622,0.0034638016286905014,0.002385255758149294
6670.050106128838,0.0034627845581848235,0.002389192835172271
6670.051105901052,0.003459290223901227,0.0023916991853931524
6670.052105673268,0.003453337928741492,0.0023928035979606985
6670.053105445483,0.003444979044832024,0.0023925430646371624
6670.054105217699,0.0034342979024490094,0.002390960097052763
6670.055104989914,0.003421412640870737,0.002388100014031586
6670.056104762129,0.003406475883043046,0.0023840082763261585
6670.057104534344,0.0033896751213189527,0.0023787279297178515
6670.05810430656,0.0033712327210492785,0.0023722972075577164
6670.059104078775,0.0033514054427038085,0.0023647473600048228
6670.06010385099,0.0033304833579697385,0.00235610081348098
6670.061103623206,0.003308788015000789,0.0023463697970376915
6670.06210339542,0.0032866697166468455,0.002335555579474221
6670.063103167636,0.0032645038241858023,0.0023236484321144933
6670.064102939851,0.0032426860824272467,0.0023106283738572398
6670.065102712067,0.00322162706527984,0.0022964666819404594
6670.066102484282,0.0032017459432251588,0.0022811280770694458
6670.067102256497,0.0031834638461519303,0.0022645734316489212
6670.068102028712,0.0031671971120965973,0.002246762825235033
6670.069101800928,0.0031533506784390173,0.002227658788895545
6670.070101573143,0.003142311815890277,0.002207229619614694
6670.071101345358,0.00313444435151946,0.00218545267260958
6670.072101117574,0.0031300834757577323,0.0021623175336494375
6670.073100889788,0.00312953116554314,0.0021378289469830784
6670.074100662004,0.0031330521794237344,0.002112009359589335
6670.075100434219,0.003140870518618014,0.002084900961803232
6670.076100206435,0.003153166237523609,0.0020565671506202546
6670.07709997865,0.003170072529673663,0.0020270933901439985
6670.078099750865,0.0031916730697672925,0.0019965874794821213
6670.07909952308,0.0032179996140795693,0.0019651792647395285
6670.080099295295,0.0032490298385721064,0.0019330198484894567
6670.081099067511,0.003284685357575454,0.0019002803458212235
6670.082098839726,0.003324829870062161,0.0018671502090342018
6670.083098611942,0.0033692674571443966,0.0018338351171671055
6670.084098384156,0.003417741180643546,0.0018005544316343975
6670.085098156372,0.003469932249622446,0.0017675382580848464
6670.086097928587,0.0035254600813903365,0.00173502419905075
6670.087097700803,0.003583883573005832,0.001703253900666904
6670.088097473018,0.0036447038374693764,0.0016724694816235522
6670.089097245233,0.0037073685758986616,0.0016429099017678148
6670.090097017448,0.0037712781705026466,0.0016148073063372824
6670.091096789663,0.0038357934923629413,0.0015883833783656492
6670.092096561879,0.0039002453187594694,0.0015638457393548051
6670.093096334094,0.0039639451447228465,0.0015413844524103536
6670.094096106309,0.004026197052922047,0.0015211687024199573
6670.095095878524,0.00408631019219845,0.0015033437457850141
6670.09609565074,0.004143611340643481,0.0014880282225893853
6670.097095422955,0.004197457014266193,0.001475311901706001
6670.098095195171,0.004247244623002811,0.0014652538975798396
6670.099094967386,0.004292422253971179,0.0014578813778571885
6670.1000947396005,0.004332496752868401,0.001453188783536138
6670.101094511816,0.0043670398629947205,0.0014511375986430422
6670.102094284031,0.004395692283152287,0.0014516567160759919
6670.103094056247,0.004418165653074413,0.0014546434358369761
6670.104093828462,0.004434242670151273,0.001459965100703608
6670.105093600677,0.0044437757319437405,0.0014674613364266272
6670.106093372892,0.004446684610017435,0.001476946835077223
6670.107093145108,0.004442953650452395,0.0014882146046895166
6670.108092917323,0.004432628886101304,0.0015010395953503845
6670.109092689539,0.004415815296391707,0.0015151825912754614
6670.110092461753,0.004392674318042946,0.0015303942364291118
6670.1110922339685,0.004363421617302381,0.0015464190590312383
6670.112092006184,0.0043283250720101175,0.0015629993910279973
6670.113091778399,0.004287702857825195,0.0015798791302524568
6670.114091550615,0.004241921474748031,0.001596807339239551
6670.11509132283,0.00419139349838054,0.0016135416975125796
6670.116091095045,0.004136574824156104,0.0016298518245300882
6670.11709086726,0.004077961214461015,0.0016455224821901877
6670.118090639476,0.004016084044419438,0.0016603566578348105
6670.119090411691,0.003951505218697867,0.0016741785136139289
6670.1200901839065,0.00388481124957786,0.0016868361548038938
6670.121089956121,0.003816606456041084,0.001698204124396368
6670.1220897283365,0.0037475052336405626,0.0017081854962923621
6670.123089500552,0.0036781234214750785,0.0017167134350478022
6670.124089272767,0.0036090689607646367,0.0017237521203517991
6670.125089044983,0.0035409322333883565,0.0017292969826973837
6670.126088817198,0.0034742765946254553,0.001733374236727202
6670.127088589413,0.003409629620624784,0.00173603971803954
6670.128088361628,0.0033474754982890393,0.0017373770397078724
6670.129088133844,0.0032882488485552436,0.0017374951065990006
6670.130087906059,0.0032323301346593365,0.0017365250648365765
6670.1310876782745,0.0031800426814449323,0.0017346168075781899
6670.132087450489,0.003131651227975767,0.001731935187879747
6670.1330872227045,0.003087361862350441,0.0017286560932513022
6670.13408699492,0.0030473231453754307,0.0017249625149345007
6670.135086767135,0.0030116282048093163,0.0017210407096955973
6670.136086539351,0.0029803175627360463,0.0017170765178883868
6670.137086311566,0.0029533824536547497,0.0017132518749199974
6670.138086083781,0.0029307684128042377,0.0017097415335820682
6670.139085855996,0.0029123789500625527,0.0017067100074307717
6670.140085628212,0.0028980791454619485,0.0017043087587237991
6670.141085400427,0.0028876990112104463,0.0017026736820026863
6670.1420851726425,0.0028810365085677157,0.0017019229567709513
6670.143084944857,0.002877860217212369,0.0017021553475159484
6670.1440847170725,0.0028779117965368364,0.0017034490175215416
6670.145084489288,0.0028809084826414886,0.0017058608987593788
6670.146084261503,0.002886545888482599,0.0017094266271761324
6670.147084033719,0.0028945013257408608,0.0017141610178805656
6670.148083805934,0.002904437780460914,0.0017200590287593984
6670.149083578149,0.002916008581307965,0.0017270971497856489
6670.150083350364,0.0029288627180555755,0.0017352351518173516
6670.15108312258,0.00294265070621631,0.0017444181216088063
6670.152082894795,0.002957030842743963,0.0017545786979222446
6670.1530826670105,0.0029716756364084815,0.0017656394132296886
6670.154082439225,0.0029862781175243,0.0017775150394368738
6670.1550822114405,0.0030005576660882957,0.0017901148353044363
6670.156081983656,0.0030142650013451227,0.0018033445985952698
6670.157081755871,0.0030271860766668247,0.001817108435897783
6670.158081528087,0.00303914477484544,0.0018313101825198025
6670.159081300301,0.003050004410546703,0.0018458544494402
6670.160081072517,0.0030596680726678784,0.0018606473448163025
6670.161080844732,0.003068077816824355,0.0018755969785715307
6670.162080616948,0.003075212713666726,0.0018906138671452531
6670.163080389163,0.0030810858006818658,0.0019056113065269637
6670.1640801613785,0.003085740061675076,0.0019205057103720941
6670.165079933593,0.0030892436493361887,0.0019352168576285134
6670.166079705808,0.0030916846493418164,0.0019496679815497004
6670.167079478024,0.003093165726734946,0.0019637856556642326
6670.168079250239,0.003093798978524297,0.001977499473068114
6670.169079022455,0.0030937012623962236,0.001990741553310676
6670.170078794669,0.003092990217796433,0.0020034459403862072
6670.171078566885,0.0030917811505022513,0.002015547981045693
6670.1720783391,0.0030901848904793714,0.00202698378930208
6670.173078111316,0.0030883066328486293,0.00203768989310142
6670.174077883531,0.0030862456390436848,0.002047603117781455
6670.175077655746,0.003084095544238688,0.002056660703392106
6670.176077427961,0.0030819449360784124,0.0020648005982219237
6670.177077200176,0.0030798778719639355,0.0020719618346927353
6670.178076972392,0.0030779740726681495,0.0020780848925461876
6670.179076744607,0.0030763086096414014,0.0020831119958370932
6670.180076516823,0.0030749509498165135,0.00208698735610176
6670.181076289037,0.003073963261512649,0.002089657426218427
6670.182076061253,0.003073397977197352,0.0020910712482978206
6670.183075833468,0.0030732947609292053,0.0020911809806318784
6670.184075605684,0.003073677178247353,0.0020899426919036715
6670.185075377899,0.0030745494487725076,0.002087317505604112
6670.1860751501135,0.0030758936627518422,0.0020832731444509374
6670.187074922329,0.003077667787108547,0.0020777858637955177
6670.188074694544,0.00307980470335391,0.0020708426906140376
6670.18907446676,0.003082212427296932,0.002062443818307923
6670.190074238975,0.003084775565396199,0.0020526049665414692
6670.191074011191,0.0030873579659381795,0.0020413595208599944
6670.192073783405,0.0030898064316657006,0.002028760325115528
6670.193073555621,0.003091955288712136,0.0020148810824664183
6670.194073327836,0.0030936315677913898,0.0019998173768261086
6670.195073100052,0.003094660549640243,0.0019836873267362986
6670.196072872267,0.003094871449014159,0.001966631843708929
6670.1970726444815,0.0030941030465389645,0.0019488144239021832
6670.198072416697,0.003092209109722977,0.0019304203807891313
6670.199072188912,0.0030890634575884575,0.0019116554346496769
6670.200071961128,0.0030845645117085416,0.001892743608121136
6670.201071733343,0.003078639155129252,0.0018739244229651851
6670.202071505559,0.0030712457199275063,0.0018554494378747372
6670.203071277773,0.003062375963541173,0.001837578207141231
6670.204071049989,0.003052055964486512,0.0018205737787351955
6670.205070822204,0.003040345945882201,0.0018046978823186859
6670.20607059442,0.003027339105687683,0.0017902059674917326
6670.207070366635,0.0030131595885755213,0.0017773422336191827
6670.2080701388495,0.0029979597650407704,0.0017663347593882312
6670.209069911065,0.0029819169871434137,0.001757390814985163
6670.21006968328,0.0029652299872819097,0.0017506924332939585
6670.211069455496,0.0029481150941884906,0.0017463923307394114
6670.212069227711,0.002930802446155214,0.0017446103009079365
6670.213068999927,0.0029135323555861633,0.0017454302358006438
6670.214068772141,0.002896551908068056,0.0017488979312857112
6670.215068544357,0.0028801117795822437,0.0017550197981471114
6670.216068316572,0.002864463164658951,0.0017637625469088109
6670.217068088788,0.0028498546655082893,0.0017750538573485647
6670.218067861003,0.0028365290115818765,0.0017887839820625348
6670.2190676332175,0.0028247195367471782,0.0018048081706879648
6670.220067405433,0.002814646398275763,0.00182294974949814
6670.221067177648,0.0028065125570846,0.001843003661647037
6670.222066949864,0.002800499557254943,0.0018647402722080982
6670.223066722079,0.0027967631659396373,0.0018879092655572991
6670.224066494294,0.0027954289845891042,0.001912243497841191
6670.225066266509,0.0027965882198124083,0.0019374627082432811
6670.226066038725,0.0028002938751848314,0.001963277043234304
6670.22706581094,0.0028065576546956713,0.0019893903967041775
6670.228065583156,0.0028153478427821997,0.0020155035882523814
6670.229065355371,0.0028265883603521102,0.0020413173858043585
6670.2300651275855,0.002840159112026178,0.0020665353563572146
6670.231064899801,0.0028558976570487913,0.0020908665318379285
6670.232064672016,0.0028736021674188156,0.002114027909205327
6670.233064444232,0.002893035573166281,0.0021357468431264645
6670.234064216447,0.0029139307181107266,0.0021557634131616123
6670.235063988662,0.0029359962680473918,0.002173832851477702
6670.236063760877,0.002958923067935282,0.0021897281111645005
6670.237063533093,0.0029823906651754327,0.0022032426416952345
6670.238063305308,0.0030060737810965288,0.0022141934090865703
6670.239063077524,0.0030296485652859207,0.0022224241526820404
6670.240062849738,0.0030527984701930523,0.002227808818138931
6670.2410626219535,0.003075219555426971,0.0022302550549252323
6670.242062394169,0.0030966250296765013,0.0022297076201865406
6670.243062166384,0.0031167489062871355,0.0022261514978285457
6670.2440619386,0.0031353487794057804,0.002219614532310185
6670.245061710815,0.003152207874825976,0.0022101693941392804
6670.24606148303,0.003167136640698113,0.0021979347337554365
6670.247061255245,0.003179974182152074,0.0021830754321877674
6670.248061027461,0.003190589800597526,0.0021658019094710724
6670.249060799676,0.0031988847933050635,0.00214636849693899
6670.250060571892,0.003204794545848237,0.0021250709064614508
6670.251060344106,0.00320829085230517,0.0021022428269871687
6670.252060116321,0.0032093843368341973,0.0020782516560431713
6670.253059888537,0.0032081267997792966,0.002053493369822587
6670.254059660752,0.003204613249936288,0.0020283865791454235
6670.255059432968,0.003198983332625741,0.002003365888897283
6670.256059205183,0.0031914218642032483,0.0019788747290727616
6670.257058977398,0.0031821582522887763,0.001955357843116803
6670.258058749613,0.003171464685929764,0.001933253628236128
6670.259058521829,0.003159653068039631,0.0019129865347428847
6670.260058294044,0.0031470706966141705,0.0018949597281500898
6670.26105806626,0.003134094693436649,0.001879548182314724
6670.262057838474,0.003121125190820018,0.0018670923133768886
6670.263057610689,0.003108577376714764,0.0018578922032478165
6670.264057382905,0.0030968726587023016,0.0018522024169740814
6670.26505715512,0.0030864293625645807,0.0018502274035073875
6670.266056927336,0.0030776534512527106,0.0018521174824187715
6670.267056699551,0.0030709297118361348,0.001857965444365663
6670.268056471766,0.003066613748593792,0.0018678038188195622
6670.269056243981,0.0030650249980261925,0.0018816028868328205
6670.270056016197,0.003066440887076834,0.0018992695356458912
6670.271055788412,0.0030710921951903297,0.0019206470572817325
6670.272055560627,0.0030791596326923414,0.0019455159838350404
6670.273055332842,0.0030907715925130156,0.001973596035428941
6670.274055105057,0.0031060029724409174,0.0020045492357737018
6670.275054877273,0.0031248749220394393,0.0020379842177967325
6670.276054649488,0.0031473553646691925,0.002073461690838069
6670.277054421704,0.0031733601847863547,0.0021105009773342434
6670.278054193919,0.0032027550231120937,0.0021485874680684577
6670.279053966134,0.003235357636391299,0.002187180803235271
6670.280053738349,0.003270940729182697,0.002225723560332732
6670.281053510565,0.0033092350832095428,0.0022636502162612336
6670.28205328278,0.003349932761880195,0.002300396156771318
6670.283053054995,0.0033926902050718816,0.0023354065371016153
6670.28405282721,0.0034371311503734524,0.002368144844721642
6670.285052599425,0.0034828494731317344,0.0023981010656255017
6670.286052371641,0.003529412171235524,0.002424799400808586
6670.287052143856,0.0035763627936889458,0.0024478055060515275
6670.288051916072,0.0036232256121920196,0.0024667332248351635
6670.289051688286,0.00366951076953534,0.0024812507609280293
6670.290051460502,0.0037147205277011383,0.002491086211687601
6670.291051232717,0.0037583566102422712,0.002496032357268849
6670.292051004933,0.003799928513041048,0.002495950572021891
6670.293050777148,0.0038389625510785353,0.0024907737054763006
6670.294050549363,0.003875011312175319,0.002480507790336414
6670.295050321578,0.003907663117357354,0.002465232474181185
6670.296050093793,0.003936551072912597,0.0024451001171629265
6670.297049866009,0.003961361346221856,0.0024203335300775675
6670.298049638224,0.003981840369118389,0.0023912223566089894
6670.29904941044,0.003997800726334389,0.0023581181564580667
6670.300049182654,0.0040091255126342654,0.002321428323995691
6670.30104895487,0.004015770958309757,0.002281609053093868
6670.302048727085,0.004017767146236951,0.002239157606151419
6670.3030484993005,0.004015216689174462,0.002194604152463902
6670.304048271516,0.0040082913270486084,0.0021485034102375297
6670.3050480437305,0.003997226550481818,0.0021014262738098333
6670.306047815946,0.003982314522790892,0.002053951557781725
6670.307047588161,0.003963895698321701,0.0020066579615031295
6670.308047360377,0.00394234958723141,0.001960116352754277
6670.309047132592,0.003918085101809011,0.001914882477380262
6670.310046904808,0.003891530859057526,0.0018714902080612045
6670.311046677022,0.0038631257296595956,0.001830445440156711
6670.312046449238,0.003833309835318372,0.0017922207234924356
6670.313046221453,0.0038025161215718565,0.0017572506926013568
6670.3140459936685,0.0037711625740747584,0.001725928331643699
6670.315045765884,0.0037396450993752105,0.0016986020854543777
6670.3160455380985,0.003708331067922385,0.0016755738031672535
6670.317045310314,0.003677553533744127,0.0016570974746743126
6670.318045082529,0.003647606185289447,0.0016433786938537598
6670.319044854745,0.003618739097947636,0.0016345747596837273
6670.32004462696,0.003591155324893207,0.0016307953115106996
6670.321044399176,0.003565008305381936,0.0016321033921523724
6670.32204417139,0.003540400038220838,0.0016385168454995053
6670.323043943606,0.003517379990390642,0.0016500099777404067
6670.324043715821,0.0034959447779190247,0.001666515424416528
6670.3250434880365,0.003476038739880616,0.0016879261571347537
6670.326043260252,0.0034575555941807226,0.0017140975469726667
6670.3270430324665,0.003440341382920381,0.0017448494001776414
6670.328042804682,0.0034241988670392237,0.0017799679021002189
6670.329042576897,0.003408893426261157,0.0018192074329361205
6670.330042349113,0.003394160392039658,0.0018622922390870826
6670.331042121328,0.0033797136105086904,0.0019089179574174806
6670.332041893544,0.0033652549056649153,0.0019587530054397057
6670.333041665758,0.003350483997797057,0.002011439870989454
6670.334041437974,0.003335108353523569,0.002066596356116287
6670.335041210189,0.0033188524375432887,0.002123816851006096
6670.3360409824045,0.003301465920282887,0.0021826737371993484
6670.33704075462,0.0032827305453758527,0.0022427190426519586
6670.338040526834,0.003262465517853196,0.0023034864863424403
6670.33904029905,0.0032405313824438826,0.0023644940488258353
6670.340040071265,0.003216832404355221,0.0024252471812530136
6670.341039843481,0.003191317474586771,0.002485242719069696
6670.342039615696,0.0031639795916409094,0.002543973509771336
6670.343039387912,0.003134854045667148,0.002600933714714924
6670.344039160126,0.003104015524944916,0.0026556247118600927
6670.345038932342,0.003071574438191835,0.0027075615060356216
6670.346038704557,0.0030376727825315052,0.0027562795415795906
6670.3470384767725,0.0030024798881766925,0.0028013418035324608
6670.348038248988,0.002966188338801004,0.002842346072181407
6670.349038021202,0.0029290103071615402,0.002878932147952936
6670.350037793418,0.0028911744754728155,0.0029107888023238637
6670.351037565633,0.002852923639674285,0.0029376601689064447
6670.352037337849,0.002814513017898231,0.002959351286441611
6670.353037110064,0.0027762091888777394,0.0029757325333769117
6670.35403688228,0.0027382894945724564,0.00298674273747303
6670.355036654494,0.0027010416921424735,0.0029923908013931686
6670.35603642671,0.0026647636597226347,0.0029927557557706138
6670.357036198925,0.0026297630312489954,0.0029879852233195624
6670.35803597114,0.002596356700939217,0.002978292341571815
6670.359035743356,0.0025648701438711475,0.002963951255450079
6670.36003551557,0.0025356364386308534,0.0029452913673141835
6670.361035287786,0.0025089947928388394,0.002922690613798717
6670.362035060001,0.0024852883207965313,0.002896568094482928
6670.363034832217,0.002464860850399435,0.002867376380938745
6670.364034604432,0.0024480526543655327,0.0028355937873103224
6670.365034376647,0.002435195167459701,0.002801716805619683
6670.366034148862,0.002426604894118993,0.0027662528233902135
6670.367033921078,0.0024225767844694977,0.0027297131673553903
6670.368033693293,0.002423377374012641,0.002692606467484286
6670.369033465508,0.002429237977065035,0.00265543231680406
6670.370033237723,0.0024403482057590853,0.0026186752156865255
6670.371033009938,0.002456850046137225,0.0025827988208179204
6670.372032782154,0.0024788326619477282,0.002548240543621668
6670.373032554369,0.0025063280301335835,0.0025154065488614064
6670.374032326585,0.002539307455761725,0.0024846672056658917
6670.3750320988,0.0025776789833534307,0.002456353060045894
6670.376031871015,0.002621285727919593,0.0024307514276261286
6670.37703164323,0.0026699051822370165,0.00240810371903511
6670.378031415446,0.002723249577527074,0.0023886035845408888
6670.379031187661,0.002780967345899087,0.002372395912279409
6670.380030959876,0.0028426456595315613,0.002359576670472565
6670.381030732091,0.0029078139466824967,0.0023501935613549334
6670.382030504306,0.002975948251692969,0.0023442474342654346
6670.383030276522,0.0030464763319187874,0.0023416943694319374
6670.384030048737,0.0031187834573528188,0.002342448301325829
6670.385029820953,0.0031922189621952242,0.002346384024190117
6670.386029593168,0.003266103641772676,0.0023533404241549115
6670.387029365383,0.003339738063530148,0.0023631238102522164
6670.388029137598,0.0034124117841802634,0.0023755112637738195
6670.3890289098135,0.0034834133819555677,0.0023902539769581556
6670.390028682029,0.003552041159121803,0.002407080586367979
6670.391028454244,0.003617614345914432,0.0024257005139446033
6670.392028226459,0.00367948460853681,0.0024458073222971247
6670.393027998674,0.0037370475956867107,0.002467082091868882
6670.39402777089,0.003789754154196129,0.002489196847436411
6670.395027543105,0.003837120753075665,0.002511818090458578
6670.396027315321,0.0038787386366087415,0.0025346105076690774
6670.397027087536,0.003914281302405227,0.0025572409087085113
6670.398026859751,0.0039435100213860525,0.002579382402829527
6670.399026631966,0.003966277203476278,0.00260071877119324
6670.4000264041815,0.003982527437244919,0.002620948932820862
6670.401026176397,0.003992296049923172,0.0026397913438964663
6670.402025948612,0.003995705125560007,0.002656988129746815
6670.403025720827,0.003992957106003492,0.0026723087492973316
6670.404025493042,0.003984326327937942,0.002685553036545669
6670.405025265258,0.003970149032971857,0.0026965535259541136
6670.406025037473,0.0039508124715894825,0.002705177014009055
6670.407024809689,0.003926743714501237,0.002711325328444678
6670.408024581904,0.0038983987322320436,0.0027149352886358174
6670.409024354119,0.0038662522315858613,0.002715977861672073
6670.410024126334,0.0038307886344259765,0.0027144565457245147
6670.4110238985495,0.0037924944397638625,0.0027104050379496464
6670.412023670765,0.0037518520498690923,0.0027038842676174336
6670.41302344298,0.0037093350059286137,0.0026949788992608613
6670.414023215195,0.00366540448553091,0.0026837934383359646
6670.41502298741,0.003620506854653919,0.002670448098965089
6670.416022759626,0.0035750720312054704,0.002655074602604364
6670.417022531841,0.0035295124003126266,0.0026378120513154044
6670.418022304057,0.0034842220170886655,0.002618802965959013
6670.419022076272,0.0034395758345940664,0.0025981895289408355
6670.420021848487,0.003395928704007634,0.002576110052317149
6670.421021620702,0.0033536139266989035,0.0025526957040533137
6670.4220213929175,0.0033129412226615145,0.0025280675421221485
6670.423021165133,0.0032741941262009766,0.0025023339096528984
6670.424020937348,0.003237626986453652,0.0024755882377055093
6670.425020709563,0.003203461866921327,0.002447907296976545
6670.426020481778,0.0031718856659235925,0.002419349944961079
6670.427020253994,0.0031430477358314187,0.0023899564323156836
6670.428020026209,0.003117058205794851,0.0023597483484968924
6670.429019798425,0.003093987144378601,0.002328729282526109
6670.430019570639,0.0030738646514897393,0.0022968862430996257
6670.431019342855,0.003056681941329891,0.0022641918345483254
6670.43201911507,0.0030423934480938216,0.002230607141052695
6670.4330188872855,0.00303091992785344,0.0021960852475641775
6670.434018659501,0.003022152444970238,0.0021605753235826616
6670.435018431715,0.0030159570543054825,0.0021240271986725403
6670.436018203931,0.003012179953329868,0.0020863963472159863
6670.437017976146,0.003010652878399602,0.002047649169079239
6670.438017748362,0.0030111985298058703,0.0020077684085468925
6670.439017520577,0.003013635807059029,0.001966758503623232
6670.440017292793,0.003017784620829965,0.0019246506119760258
6670.441017065007,0.0030234700546918434,0.0018815070367031424
6670.442016837223,0.003030525713613639,0.0018374247929856336
6670.443016609438,0.003038796207809472,0.0017925381160599422
6670.4440163816535,0.0030481388345825235,0.0017470197914609595
6670.445016153869,0.0030584246066960386,0.001701081269477677
6670.446015926083,0.003069538829287451,0.0016549716016114914
6670.447015698299,0.0030813814443416093,0.0016089753030597213
6670.448015470514,0.003093867336033397,0.0015634092839332343
6670.44901524273,0.003106926729931537,0.0015186189894486144
6670.450015014945,0.003120505745213174,0.0014749738567410731
6670.451014787161,0.0031345670907830417,0.001432862156690645
6670.452014559375,0.003149090841560819,0.0013926852610730703
6670.453014331591,0.003164075187643061,0.0013548513715924482
6670.454014103806,0.003179537012069643,0.0013197687730674014
6670.455013876021,0.0031955121285745665,0.0012878387129151077
6670.456013648237,0.003212055013087293,0.0012594480397634703
6670.457013420451,0.003229237890998699,0.001234961754483831
6670.458013192667,0.003247149070658517,0.0012147156539037693
6670.459012964882,0.0032658904174104795,0.0011990092799509995
6670.460012737098,0.0032855738507474646,0.0011880994026162344
6670.461012509313,0.003306316765423176,0.0011821942523995036
6670.462012281529,0.003328236369186153,0.0011814486871981145
6670.463012053743,0.0033514430881987985,0.0011859604419429716
6670.464011825959,0.003376033355629351,0.0011957675697070575
6670.465011598174,0.003402082205156784,0.0012108471435460406
6670.466011370389,0.003429636116928347,0.001231115255463716
6670.467011142605,0.0034587065326838356,0.001256428323684183
6670.468010914819,0.003489264412138525,0.001286585695147035
6670.469010687035,0.003521236167961727,0.0013213335002490963
6670.47001045925,0.0035545012780019503,0.0013603696783875117
6670.471010231466,0.0035888918022018703,0.0014033500446879246
6670.472010003681,0.003624193916481186,0.0014498952129911385
6670.473009775897,0.003660151426142177,0.0014995981376823863
6670.474009548111,0.0036964710573919417,0.001552032004491789
6670.475009320327,0.003732829177809682,0.0016067582032154842
6670.476009092542,0.0037688795022455357,0.0016633341499456005
6670.477008864757,0.0038042613247691636,0.001721320768332157
6670.478008636973,0.003838607869389649,0.0017802894658857254
6670.479008409187,0.0038715544241462187,0.0018398284498855613
6670.480008181403,0.003902745965870306,0.0018995482266692882
6670.481007953618,0.003931843994384316,0.001959086122923673
6670.482007725834,0.0039585323172666945,0.002018109666120584
6670.483007498049,0.003982521594479399,0.0020763186858516395
6670.484007270265,0.004003552565553353,0.0021334460681152892
6670.485007042479,0.0040213980213363,0.002189257196901426
6670.486006814695,0.0040358637229213025,0.00224354820878504
6670.48700658691,0.004046788579716485,0.002296143234262315
6670.488006359125,0.004054044446899253,0.0023468908089616944
6670.489006131341,0.004057535882776055,0.0023956596392669433
6670.490005903555,0.00405720013538552,0.0024423339283576326
6670.491005675771,0.004053007525272279,0.002486808513914342
6670.492005447986,0.004044962267584313,0.0025289841132953377
6670.493005220202,0.004033103642124248,0.002568762983672035
6670.494004992417,0.004017507304563878,0.002606045272205234
6670.495004764632,0.00399828647503813,0.0026407262704220935
6670.496004536847,0.00397559275689778,0.002672694720045097
6670.497004309063,0.003949616402514,0.002701832255191209
6670.498004081278,0.003920585903504353,0.002728014005940805
6670.499003853493,0.0038887667948373024,0.0027511103271946847
6670.500003625708,0.0038544595219482695,0.0027709895579361783
6670.501003397923,0.0038179961823939937,0.0027875216674704065
6670.502003170139,0.003779735997678056,0.002800582609173998
6670.503002942354,0.003740059521984329,0.0028100591723488103
6670.50400271457,0.0036993617922332616,0.002815854097893588
6670.505002486785,0.0036580447786758357,0.0028178912164282485
6670.506002259,0.0036165095601743713,0.0028161203858611283
6670.507002031215,0.0035751486311286908,0.0028105220347969502
6670.508001803431,0.003534338681875374,0.0028011111396072136
6670.509001575646,0.003494434117578089,0.0027879404772208584
6670.510001347861,0.003455761517771036,0.002771103018346956
6670.511001120076,0.003418615194885311,0.002750733367075191
6670.512000892291,0.0033832539639812808,0.0027270082094399918
6670.513000664507,0.0033498991554465883,0.002700145790305336
6670.514000436722,0.003318733783305343,0.002670404473288337
6670.515000208938,0.0032899026687612156,0.002638080444366095
6670.515999981153,0.003263513273779902,0.0026035046151866286
6670.516999753368,0.003239637039738118,0.002567038790523859
6670.517999525583,0.0032183110959151328,0.0025290711857827
6670.518999297799,0.0031995402243544012,0.002490011399594328
6670.519999070014,0.0031832989225080177,0.0024502849565486424
6670.520998842229,0.003169533353161308,0.0024103275376611564
6670.521998614444,0.003158162988753306,0.0023705790085213944
6670.522998386659,0.00314908186104192,0.0023314773375846935
6670.523998158875,0.003142159465495059,0.002293452486762485
6670.52499793109,0.0031372414797356794,0.0022569203695135313
6670.525997703306,0.003134150507986216,0.0022222769965243544
6670.526997475521,0.0031326870613601885,0.0021898929396699097
6670.527997247736,0.0031326309467808087,0.002160108235214712
6670.528997019951,0.0031337431956941215,0.0021332278315002104
6670.529996792167,0.0031357686400856964,0.00210951767109471
6670.530996564382,0.0031384392308259523,0.002089201473116359
6670.531996336597,0.0031414781646723574,0.0020724582412537367
6670.532996108812,0.0031446048234976993,0.0020594204755122222
6670.533995881027,0.003147540437248271,0.002050173029725641
6670.534995653243,0.0031500142776449453,0.0020447525480641474
6670.535995425458,0.003151770092610401,0.002043147434692545
6670.536995197674,0.0031525724250901785,0.0020452983472223603
6670.537994969889,0.0031522124428070854,0.00205109922952596
6670.538994742104,0.003150512931777065,0.002060398889788374
6670.539994514319,0.0031473321506295146,0.002073003090042691
6670.540994286534,0.003142566298867338,0.002088677079407643
6670.54199405875,0.003136150448388682,0.002107148511348953
6670.542993830965,0.003128057943233778,0.0021281107371138113
6670.54399360318,0.0031182984564739123,0.0021512265262250666
6670.544993375395,0.0031069150414601426,0.002176132288874757
6670.545993147611,0.003093980581996201,0.002202442850089451
6670.546992919826,0.0030795940315738158,0.0022297567639254566
6670.547992692042,0.003063876765013315,0.0022576620783766954
6670.548992464257,0.0030469692811534482,0.0022857423911216853
6670.549992236472,0.003029028412935571,0.002313582994083949
6670.550992008687,0.003010225117050215,0.0023407768954369504
6670.551991780902,0.0029907428141133347,0.0023669305147711386
6670.552991553118,0.0029707761391528768,0.00239166885758391
6670.553991325333,0.0029505298823649935,0.0024146399987510082
6670.554991097548,0.0029302178955968278,0.002435518756546514
6670.555990869763,0.002910061810888072,0.0024540095124698626
6670.556990641979,0.0028902895127616694,0.0024698482029814573
6670.557990414194,0.0028711333685548703,0.0024828035605870334
6670.55899018641,0.002852828229673394,0.002492677716775856
6670.559989958624,0.0028356091856516254,0.002499306311213624
6670.56098973084,0.0028197090136552684,0.002502558283911911
6670.561989503055,0.002805355253728891,0.0025023355420117368
6670.56298927527,0.002792766878739615,0.002498572664552196
6670.563989047486,0.002782150617754122,0.002491236734203677
6670.5649888197,0.0027736971065056887,0.002480327296963444
6670.565988591916,0.0027675771317020935,0.002465876393857878
6670.566988364131,0.002763938262137547,0.0024479486010273404
6670.567988136347,0.0027629021117569204,0.002426641032449786
6670.568987908562,0.0027645623935392315,0.0024020832638725416
6670.569987680778,0.0027689838374463562,0.002374437116067113
6670.570987452992,0.0027762019700843933,0.0023438962153382254
6670.571987225208,0.0027862236767630904,0.0023106852543748435
6670.572986997423,0.0027990283878385727,0.002275058903307414
6670.573986769638,0.002814569676042388,0.00223730034954946
6670.574986541854,0.002832777051341012,0.002197719465476274
6670.575986314068,0.0028535577947966994,0.00215665061774745
6670.576986086284,0.002876798740531615,0.0021144501437743686
6670.577985858499,0.002902367945434174,0.0020714935286248776
6670.578985630715,0.0029301161663734267,0.002028172319903589
6670.57998540293,0.0029598780264952383,0.001984890817556167
6670.5809851751455,0.002991472748066712,0.0019420625669036014
6670.58198494736,0.0030247043929802577,0.0019001066711159034
6670.582984719576,0.003059361669517974,0.0018594439334020296
6670.583984491791,0.003095217485465656,0.0018204928402510033
6670.584984264006,0.0031320285088801496,0.001783665398021147
6670.585984036222,0.0031695350231612765,0.0017493628318423337
6670.586983808436,0.0032074613395547307,0.0017179711513275406
6670.587983580652,0.0032455169763465326,0.0016898565920917346
6670.588983352867,0.0032833987493859898,0.0016653609662465947
6670.589983125083,0.003320793852339814,0.0016447969977220094
6670.590982897298,0.0033573839352321563,0.0016284437641255055
6670.5919826695135,0.0033928501137392175,0.0016165423993685442
6670.592982441728,0.0034268787617226714,0.0016092922220703762
6670.593982213944,0.0034591678612505877,0.001606847440983275
6670.594981986159,0.003489433620709608,0.001609314551018462
6670.595981758374,0.00351741704385253,0.00161675047904179
6670.59698153059,0.0035428901497422793,0.0016291614827346687
6670.597981302804,0.0035656615827640552,0.0016465027666963286
6670.59898107502,0.0035855813795183464,0.001668678765611097
6670.599980847235,0.0036025446698207003,0.0016955440440526806
6670.600980619451,0.003616494108620106,0.0017269047592954018
6670.601980391666,0.003627420891541563,0.001762520623304958
6670.6029801638815,0.003635364303337795,0.0018021072909184328
6670.603979936096,0.003640409871309156,0.001845339098386593
6670.604979708312,0.0036426863176773194,0.0018918520802381868
6670.605979480527,0.0036423615856008597,0.001941247206952889
6670.606979252742,0.003639638220605801,0.0019930938160337822
6670.607979024958,0.0036347483321085543,0.002046933246925825
6670.608978797172,0.0036279482849005994,0.0021022827192196873
6670.609978569388,0.0036195132197329367,0.0021586395079070102
6670.610978341603,0.003609731484362688,0.0022154854741123133
6670.611978113819,0.0035988990540986995,0.002272292001630707
6670.612977886034,0.003587314012128961,0.0023285253575679662
6670.6139776582495,0.0035752711330544825,0.0023836524405683214
6670.614977430464,0.0035630565735485366,0.0024371468250723536
6670.61597720268,0.003550942648787772,0.002488494982941433
6670.616976974895,0.003539182692544531,0.0025372025697484733
6670.61797674711,0.0035280060554499647,0.00258280067467623
6670.618976519326,0.003517613337458527,0.0026248519223046325
6670.61997629154,0.003508171932525498,0.0026629562899121726
6670.620976063756,0.0034998119042090486,0.0026967564996086143
6670.621975835971,0.0034926221784512016,0.0027259428773682066
6670.622975608187,0.003486647084474469,0.002750257620456291
6670.623975380402,0.0034818833816737866,0.0027694984517490757
6670.624975152617,0.0034782780185472597,0.0027835216601464086
6670.625974924832,0.0034757269256240285,0.0027922445403430265
6670.626974697047,0.0034740751331096835,0.002795647245558312
6670.627974469263,0.003473118441013951,0.0027937740403990753
6670.628974241478,0.003472606777667635,0.002786733900633186
6670.629974013693,0.0034722492800484343,0.002774700382125417
6670.630973785908,0.003471721028877663,0.00275791068110791
6670.631973558124,0.0034706712776355784,0.0027366638144536467
6670.632973330339,0.0034687329233991583,0.0027113178519392375
6670.633973102555,0.0034655328754272063,0.002682286145267702
6670.63497287477,0.003460702895172516,0.0026500325301324645
6670.635972646985,0.0034538904341821115,0.0026150655198471126
6670.6369724192,0.0034447690047974253,0.0025779315527717033
6670.637972191415,0.0034330476762418497,0.002539207396046901
6670.638971963631,0.003418479367183184,0.0024994918361826196
6670.639971735846,0.0034008676832768614,0.0024593967985118057
6670.640971508061,0.0033800721257294004,0.0024195380451707046
6670.641971280276,0.003356011587405182,0.00238052561975829
6670.642971052492,0.0033286661592818417,0.0023429542293226073
6670.643970824707,0.0032980773795577996,0.002307393761196131
6670.644970596923,0.003264347152691713,0.002274380118683116
6670.645970369138,0.0032276356278222555,0.0022444065414963287
6670.6469701413525,0.0031881583370910334,0.0022179155708990294
6670.647969913568,0.003146182847479239,0.0021952918242957565
6670.648969685783,0.0031020250909706503,0.00217685574282872
6670.649969457999,0.0030560454423228384,0.0021628584579684263
6670.650969230214,0.003008644546736947,0.002153477895594753
6670.651969002429,0.0029602588708814207,0.0021488162091049703
6670.652968774644,0.002911355936840797,0.0021488986081321074
6670.65396854686,0.002862429173229409,0.002153673622023863
6670.654968319075,0.002813992284080725,0.0021630148048419483
6670.655968091291,0.0027665730224341006,0.0021767238498360732
6670.656967863506,0.0027207062847976055,0.0021945350315559615
6670.6579676357205,0.0026769265090733035,0.0022161208337705745
6670.658967407936,0.002635759430503727,0.0022410985678125075
6670.659967180151,0.002597713301805631,0.002269037757394353
6670.660966952367,0.0025632697237595024,0.00229946805947453
6670.661966724582,0.0025328742926042564,0.002331887489424852
6670.662966496797,0.002506927360470301,0.0023657707193589796
6670.663966269012,0.0024857752912693385,0.002400577237708535
6670.664966041228,0.002469702631299474,0.0024357592115247058
6670.665965813443,0.0024589255875331253,0.0024707689712323375
6670.6669655856585,0.002453587137363776,0.002505066106244326
6670.667965357874,0.002453754004985213,0.0025381241895166113
6670.6689651300885,0.002459415641937582,0.0025694371404063544
6670.669964902304,0.0024704852492952825,0.0025985252095873123
6670.670964674519,0.002486802785381568,0.0026249405493294835
6670.671964446735,0.0025081398162489898,0.0026482723303034683
6670.67296421895,0.0025342059761182217,0.002668151381703805
6670.673963991165,0.002564656712304805,0.0026842543511754286
6670.67496376338,0.0025991019222559373,0.002696307387119675
6670.675963535596,0.002637115081542623,0.0027040893287003697
6670.676963307811,0.002678242508312542,0.002707434354741488
6670.6779630800265,0.0027220124769771164,0.0027062340105514088
6670.678962852242,0.0027679439521646277,0.002700438513551019
6670.6799626244565,0.0028155547541113797,0.0026900572284641747
6670.680962396672,0.002864368993409063,0.0026751581950991733
6670.681962168887,0.002913923642999051,0.002655866601349124
6670.682961941103,0.0029637741677723977,0.0026323621404131196
6670.683961713318,0.003013499211890852,0.0026048752679092005
6670.684961485533,0.0030627044345883205,0.002573682451306258
6670.685961257748,0.0031110256515092852,0.0025391005566114387
6670.686961029964,0.0031581314446806584,0.002501480544237091
6670.687960802179,0.0032037253489908954,0.002461200658410046
6670.6889605743945,0.003247547649770689,0.0024186592972914485
6670.689960346609,0.0032893767820377563,0.002374267742480235
6670.6909601188245,0.003329030317916949,0.0023284429099965304
6670.69195989104,0.00336636554077007,0.002281600269563181
6670.692959663255,0.0034012796005918142,0.002234147072588498
6670.693959435471,0.0034337092073891792,0.0021864760331754395
6670.694959207685,0.003463629757811787,0.002138959615777385
6670.695958979901,0.0034910537430045676,0.0020919450873846217
6670.696958752116,0.003516028290970082,0.0020457504793295906
6670.697958524332,0.0035386317565482554,0.002000661565705471
6670.698958296547,0.003558969348593712,0.0019569299020154624
6670.6999580687625,0.0035771678421309423,0.0019147718903284666
6670.700957840977,0.0035933694655967846,0.0018743687681581848
6670.7019576131925,0.00360772510501339,0.0018358673794791616
6670.702957385408,0.0036203870462730133,0.001799381581363067
6670.703957157623,0.0036315015820829245,0.0017649941553796078
6670.704956929839,0.0036412019128404948,0.0017327591214175442
6670.705956702053,0.003649601819188974,0.0017027043916374124
6670.706956474269,0.003656790539945148,0.0016748347359867323
6670.707956246484,0.003662829165627197,0.0016491350292599828
6670.7089560187,0.0036677487113139957,0.0016255737078965339
6670.709955790915,0.0036715499161108275,0.0016041063099227597
6670.7109555631305,0.0036742047423758773,0.0015846789378841
6670.711955335345,0.003675659487664881,0.001567231491013596
6670.71295510756,0.0036758393396751038,0.0015517005585543979
6670.713954879776,0.0036746540931179195,0.0015380219330105875
6670.714954651991,0.0036720046439896368,0.0015261327600811512
6670.715954424207,0.00366778983435492,0.0015159733661177439
6670.716954196421,0.00366191325963237,0.0015074887925095681
6670.717953968637,0.003654289729950888,0.0015006300380541412
6670.718953740852,0.003644851131607855,0.0014953549828804005
6670.719953513068,0.003633551439552339,0.0014916289466639814
6670.720953285283,0.0036203706246127655,0.001489424820347429
6670.7219530574985,0.003605317235088941,0.001488722708388209
6670.722952829713,0.003588429532202083,0.0014895090359819479
6670.723952601928,0.003569775201754788,0.00149177511454841
6670.724952374144,0.0035494498110741463,0.0014955152015827752
6670.725952146359,0.0035275742902437074,0.0015007241149823528
6670.726951918575,0.0035042917632553123,0.001507394470012959
6670.727951690789,0.003479764046865243,0.0015155136241068914
6670.728951463005,0.003454168106748288,0.0015250604506419636
6670.72995123522,0.003427692730276665,0.001536002100229605
6670.730951007436,0.0034005356297757477,0.0015482909275872164
6670.731950779651,0.003372901109745767,0.0015618617615287798
6670.732950551866,0.0033449983140433582,0.001576629680910918
6670.733950324081,0.0033170399363517743,0.0015924884347733334
6670.734950096296,0.0032892411747155645,0.0016093096147029855
6670.735949868512,0.003261818681864009,0.0016269426537334952
6670.736949640727,0.003234989303791199,0.001645215684517816
6670.737949412943,0.003208968457264758,0.0016639372383537919
6670.738949185157,0.0031839680274520507,0.0016828987198274162
6670.739948957373,0.0031601936702256453,0.001701877572401139
6670.740948729588,0.0031378414139004605,0.0017206410636449192
6670.741948501804,0.003117093511388018,0.0017389506391364959
6670.742948274019,0.0030981136127515106,0.0017565667894623423
6670.743948046234,0.0030810414819237917,0.0017732543401334008
6670.744947818449,0.0030659876087874805,0.0017887880268811977
6670.745947590664,0.003053028123923338,0.0018029581749505357
6670.74694736288,0.003042200413738628,0.0018155762731752272
6670.747947135095,0.0030334997912656887,0.0018264802350720023
6670.748946907311,0.0030268775185778784,0.001835539168590342
6670.749946679525,0.0030222403963881548,0.001842657508720074
6670.750946451741,0.0030194520379278897,0.0018477783812429307
6670.751946223956,0.0030183358415174343,0.0018508860687847842
6670.752945996172,0.0030186795747054896,0.0018520074627396917
6670.753945768387,0.0030202413788137316,0.0018512124114262135
6670.7549455406015,0.0030227569051431914,0.0018486129030083462
6670.755945312817,0.003025947229624932,0.0018443610419000217
6670.756945085032,0.003029527178400843,0.001838645799069887
6670.757944857248,0.0030332137162183185,0.0018316885590661798
6670.758944629463,0.003036734071552625,0.001823737555455148
6670.759944401678,0.0030398332893870504,0.0018150613667818477
6670.760944173893,0.003042280929963533,0.00180594171836059
6670.761943946109,0.0030438766806146923,0.0017966658902860678
6670.762943718324,0.003044454722467048,0.001787519058336143
6670.76394349054,0.0030438867974369645,0.0017787768818070717
6670.764943262755,0.0030420840333248494,0.001770698607053822
6670.7659430349695,0.003038997657434662,0.001763520900681537
6670.766942807185,0.003034618730649361,0.001757452580011146
6670.7679425794,0.0030289769883963644,0.0017526703680129031
6670.768942351616,0.003022138839018087,0.0017493157514753862
6670.769942123831,0.003014204578497258,0.0017474929613709598
6670.770941896046,0.003005304923284479,0.001747268036323316
6670.771941668261,0.002995597008146963,0.0017486688872380238
6670.772941440477,0.002985260018069739,0.0017516862530119449
6670.773941212692,0.002974490611028309,0.0017562754141435366
6670.774940984908,0.0029634982492537194,0.0017623585095464648
6670.775940757123,0.0029525005216283254,0.0017698272936894856
6670.7769405293375,0.0029417185401850376,0.0017785461931791049
6670.777940301553,0.0029313725193828117,0.0017883555724699837
6670.778940073768,0.002921677651652991,0.00179907517318494
6670.779939845984,0.002912840349602979,0.0018105077267196274
6670.780939618199,0.0029050548602040987,0.0018224427475681709
6670.781939390414,0.0028985002202050747,0.0018346604995893934
6670.782939162629,0.0028933375405368372,0.001846936102159743
6670.783938934845,0.0028897076645736227,0.001859043722101677
6670.78493870706,0.0028877293057470044,0.0018707607829472862
6670.785938479276,0.0028874978049920016,0.001881872108262396
6670.786938251491,0.0028890846417231188,0.0018921739011133862
6670.7879380237055,0.002892537782633511,0.0019014774604374715
6670.788937795921,0.0028978828789856187,0.0019096125542496824
6670.789937568136,0.0029051252548246893,0.0019164303966585643
6670.790937340352,0.0029142525836167712,0.0019218061923888328
6670.791937112567,0.0029252381219989567,0.0019256412181205798
6670.792936884782,0.0029380443379233945,0.0019278644177179083
6670.793936656997,0.0029526267316429657,0.001928433503047274
6670.794936429213,0.0029689376179434634,0.001927335564874961
6670.795936201428,0.0029869296330270337,0.001924587204184948
6670.796935973644,0.003006558743306053,0.0019202341998479238
6670.797935745859,0.003027786545094761,0.0019143507393963612
6670.798935518073,0.0030505816455714202,0.001907038247577932
6670.799935290289,0.0030749199229124424,0.0018984238408287423
6670.800935062504,0.0031007835081223976,0.001888658419724791
6670.80193483472,0.0031281584401450426,0.0018779144024384253
6670.802934606935,0.003157031115748995,0.0018663831045662113
6670.80393437915,0.0031873838329401455,0.0018542717755205018
6670.804934151365,0.0032191898404464515,0.0018418003111495287
6670.805933923581,0.0032524083290090683,0.0018291976926512314
6670.806933695796,0.0032869797600847744,0.0018166982533748702
6670.807933468012,0.003322821862416111,0.0018045379184025198
6670.808933240227,0.0033598265550154986,0.0017929505691603334
6670.809933012441,0.003397857979658665,0.001782164659760515
6670.810932784657,0.003436751746200888,0.0017724001742314692
6670.811932556872,0.003476315403675919,0.0017638659775554976
6670.812932329088,0.0035163300386094752,0.0017567575786141493
6670.813932101303,0.0035565527750750464,0.0017512552849527502
6670.814931873518,0.0035967198516931097,0.0017475226900716921
6670.815931645733,0.003636549937446053,0.0017457054072313354
6670.816931417949,0.0036757474340740545,0.001745929958699511
6670.817931190164,0.003714005636557719,0.001748302739492369
6670.818930962379,0.0037510097009427804,0.0017529089952394413
6670.819930734594,0.0037864393752731528,0.001759811794519276
6670.820930506809,0.0038199714319557374,0.0017690510361621683
6670.821930279025,0.003851281756137164,0.0017806425814945247
6670.82293005124,0.0038800471083606522,0.0017945776099683303
6670.823929823456,0.003905946667971372,0.0018108222669904314
6670.82492959567,0.003928663547536929,0.001829317629023951
6670.825929367886,0.003947886520373057,0.0018499799710724504
6670.826929140101,0.003963312201923808,0.0018727012961716786
6670.827928912317,0.003974647878978752,0.0018973500851826107
6670.828928684532,0.003981615122712364,0.0019237722482449812
6670.829928456747,0.003983954272719032,0.001951792292232706
6670.830928228962,0.003981429826022951,0.0019812147426430038
6670.831928001177,0.003973836682531142,0.0020118258636173916
6670.832927773393,0.003961007077225266,0.0020433957086344757
6670.833927545608,0.003942817886342448,0.0020756805124899813
6670.834927317824,0.003919197873694909,0.0021084254026174677
6670.835927090038,0.003890134395816981,0.0021413673687625894
6670.836926862254,0.003855679125778491,0.0021742384036625437
6670.837926634469,0.0038159524408145178,0.0022067687305172444
6670.838926406685,0.0037711461851838973,0.002238690057653834
6670.8399261789,0.0037215245463340847,0.0022697388245043427
6670.840925951115,0.003667422807752622,0.002299659412793329
6670.84192572333,0.0036092438246795723,0.0023282072928041703
6670.842925495545,0.003547452231134959,0.002355152063748756
6670.843925267761,0.0034825665871702745,0.002380280340157663
6670.844925039976,0.003415149840923823,0.002403398438131426
6670.845924812192,0.003345798562673237,0.002424334816593528
6670.846924584406,0.003275131411745149,0.002442942216477595
6670.847924356622,0.003203777262447203,0.002459099424440982
6670.848924128837,0.0031323633814973936,0.0024727125937311547
6670.8499239010525,0.0030615040284020473,0.0024837160889251814
6670.850923673268,0.0029917898276575023,0.002492072858421599
6670.851923445483,0.002923778215551216,0.002497774355889133
6670.852923217698,0.002857985183641102,0.0025008400284848753
6670.853922989913,0.00279487843876909,0.0025013163768874865
6670.854922762129,0.0027348720090679002,0.002499275582212433
6670.855922534344,0.0026783222757920666,0.002494813694245264
6670.85692230656,0.0026255254033804073,0.002488048384289429
6670.857922078774,0.002576716148069613,0.0024791162849123888
