Time,Filtered_EMG_Bicep,Filtered_EMG_Tricep
6938.156277129401,0.003833415524441869,0.0021649698322014567
6938.157276901324,0.0037993290261398535,0.002255466968946569
6938.158276673246,0.003763544568119519,0.002345105618178783
6938.159276445169,0.003726334117456128,0.0024332789019727696
6938.160276217091,0.003687998349269619,0.0025193996473905963
6938.161275989014,0.0036488618944683915,0.0026029092780209414
6938.1622757609375,0.003609267623560818,0.002683286024872339
6938.16327553286,0.003569570104790449,0.002760052274732328
6938.164275304783,0.003530128453598134,0.0028327808653600423
6938.165275076705,0.0034912988609692294,0.002901100141566754
6938.166274848629,0.0034534271318903418,0.0029646976133120813
6938.167274620551,0.0034168415675547574,0.0030233220965507667
6938.168274392474,0.0033818464858788467,0.0030767842733551605
6938.1692741643965,0.0033487166046075084,0.0031249556971508145
6938.170273936319,0.0033176924241173503,0.0031677663891093587
6938.171273708242,0.0032889766578184623,0.0032052012831565706
6938.172273480165,0.003262731678384933,0.003237295829820048
6938.173273252088,0.003239077886629439,0.0032641310458505412
6938.17427302401,0.0032180928782839513,0.0032858282267627425
6938.175272795933,0.0031998112915897366,0.0033025434735129843
6938.176272567855,0.003184225257285657,0.003314462151377512
6938.177272339779,0.0031712854192603467,0.003321793392394009
6938.1782721117015,0.0031609025289408613,0.0033247647570139177
6938.179271883624,0.003152949630033844,0.0033236171784009776
6938.180271655547,0.0031472648472992215,0.003318600312144825
6938.181271427469,0.0031436547938458715,0.003309968390999932
6938.182271199392,0.003141898625214261,0.003297976642831157
6938.183270971315,0.0031417527699409485,0.003282878287342179
6938.184270743238,0.003142956322855434,0.0032649220934065555
6938.1852705151605,0.0031452369994099056,0.0032443504605409092
6938.186270287083,0.0031483174511429523,0.0032213979993275152
6938.187270059006,0.0031519216762525316,0.0031962906310222194
6938.188269830929,0.0031557812491001393,0.0031692452783003066
6938.189269602852,0.003159641134188111,0.003140470235415908
6938.190269374774,0.003163264922831586,0.0031101662715149313
6938.191269146697,0.0031664394066371992,0.0030785284475800577
6938.192268918619,0.0031689784555124995,0.0030457485311987356
6938.193268690542,0.0031707261967004693,0.0030120177961874516
6938.1942684624655,0.003171559515430426,0.002977529936364901
6938.195268234388,0.0031713899252616964,0.0029424838347172095
6938.196268006311,0.0031701648676399656,0.00290708599082911
6938.197267778233,0.0031678684788393214,0.002871552466510036
6938.198267550157,0.0031645218186180813,0.002836110230166264
6938.199267322079,0.0031601825083789497,0.002800997773939715
6938.200267094002,0.0031549436871550745,0.0027664648717000188
6938.2012668659245,0.003148932175139937,0.002732771371990023
6938.202266637847,0.003142305762405434,0.0027001849954808566
6938.20326640977,0.0031352496203911444,0.002668978206687626
6938.204266181693,0.003127971930768845,0.002639424303821265
6938.205265953616,0.003120698898410583,0.002611792898645237
6938.206265725538,0.003113669349034199,0.002586344962318344
6938.207265497461,0.0031071291155364417,0.002563327614056909
6938.208265269383,0.0031013254006609847,0.00254296882357959
6938.209265041307,0.003096501278496337,0.002525472180476633
6938.2102648132295,0.003092890471387013,0.0025110118672133277
6938.211264585152,0.003090712507239341,0.0024997279765264268
6938.212264357075,0.003090168311496074,0.0024917223371179
6938.213264128997,0.0030914362206793332,0.0024870550324668735
6938.21426390092,0.0030946683517048363,0.002485741800222925
6938.215263672843,0.003099987258768778,0.002487752483047471
6938.216263444766,0.0031074828613302597,0.0024930106690836105
6938.2172632166885,0.0031172097005732363,0.0025013946114273425
6938.218262988611,0.003129184638179281,0.0025127394496039265
6938.219262760534,0.0031433851313122704,0.0025268406761015114
6938.220262532457,0.003159748207489991,0.002543458712109162
6938.22126230438,0.00317817024031524,0.0025623243959564386
6938.222262076302,0.0031985076081587965,0.002583145153739648
6938.223261848225,0.003220578303924808,0.002605611616664775
6938.224261620147,0.0032441645341339366,0.0026294044730113208
6938.225261392071,0.00326901628052308,0.0026542013809131033
6938.2262611639935,0.003294855710942717,0.0026796837977162576
6938.227260935916,0.003321382257236155,0.0027055435895620636
6938.228260707839,0.0033482781550930527,0.0027314892758045595
6938.229260479761,0.0033752142634571043,0.0027572517459731375
6938.230260251685,0.0034018560185892725,0.0027825892688825246
6938.231260023607,0.003427869394027387,0.0028072916045280526
6938.23225979553,0.0034529267250816634,0.0028311830455820665
6938.2332595674525,0.0034767122394669748,0.002854124266541452
6938.234259339375,0.0034989271355939464,0.0028760129342544666
6938.235259111298,0.003519294067327737,0.0028967831101859185
6938.236258883221,0.0035375609195101836,0.002916403541255224
6938.237258655144,0.003553503782471658,0.0029348749934859876
6938.238258427066,0.0035669290506822253,0.002952226819765491
6938.239258198989,0.0035776745876501224,0.002968512950825364
6938.240257970911,0.0035856099301523952,0.002983807460929145
6938.241257742835,0.003590635552312629,0.0029981998178502537
6938.2422575147575,0.0035926812646602173,0.003011789915692896
6938.24325728668,0.0035917038827841742,0.003024683020367361
6938.244257058603,0.003587684365717526,0.003036984805056701
6938.245256830525,0.0035806246766343025,0.0030487966776170158
6938.246256602448,0.0035705446241387005,0.003060211590326823
6938.247256374371,0.0035574788910359995,0.003071310490342834
6938.248256146294,0.003541474380089068,0.003082159537447227
6938.2492559182165,0.003522587947016533,0.003092808192234583
6938.250255690139,0.003500884564378223,0.0031032882518063454
6938.251255462063,0.0034764359472353066,0.0031136138654414293
6938.252255233985,0.003449319656411254,0.0031237825015328438
6938.253255005908,0.0034196186816060565,0.003133776778400158
6938.25425477783,0.0033874214984378507,0.0031435670307546943
6938.255254549753,0.0033528225840661584,0.0031531144575261535
6938.256254321675,0.0033159233607390638,0.0031623746708407834
6938.257254093599,0.0032768335158639044,0.003171301437212613
6938.2582538655215,0.0032356726194227954,0.003179850388679422
6938.259253637444,0.0031925719260531464,0.003187982502519626
6938.260253409367,0.0031476762238339187,0.003195667199310533
6938.261253181289,0.0031011455940463287,0.003202884966231561
6938.262252953213,0.003053156976913544,0.0032096294512664885
6938.263252725135,0.003003905471397316,0.003215908984271346
6938.264252497058,0.0029536053060175553,0.0032217474695309953
6938.2652522689805,0.0029024904026437323,0.003227184578991484
6938.266252040903,0.002850814435133104,0.003232275175487296
6938.267251812826,0.0027988502767183985,0.003237087921605241
6938.268251584749,0.0027468887425220858,0.00324170307436697
6938.269251356672,0.002695236564571057,0.0032462095144695532
6938.270251128594,0.0026442135742102925,0.003250701111902098
6938.271250900517,0.002594149095446465,0.003255272589096987
6938.272250672439,0.00254537756508253,0.003260015087413277
6938.273250444363,0.00249823339959791,0.0032650116492877524
6938.2742502162855,0.002453045146639514,0.003270332806172758
6938.275249988208,0.0024101290145939844,0.0032760324432597816
6938.276249760131,0.0023697819673808487,0.003282144111324533
6938.277249532053,0.002332274669058211,0.0032886779616593553
6938.278249303976,0.0022978446272462114,0.003295618472909647
6938.279249075899,0.002266689907105749,0.00330292310681619
6938.280248847822,0.0022389637728475846,0.0033105219707674936
6938.2812486197445,0.0022147705604301606,0.0033183184922694186
6938.282248391667,0.0021941629979174643,0.003326191050003398
6938.283248163591,0.0021771410861273046,0.00333399547291544
6938.284247935513,0.0021636525537522353,0.0033415683090862003
6938.285247707436,0.0021535948288429717,0.0033487307749483653
6938.286247479358,0.0021468184305992507,0.003355293314382554
6938.287247251281,0.002143131665182327,0.003361060699683931
6938.288247023203,0.002142306476922116,0.0033658375679447377
6938.289246795127,0.0021440852472701458,0.0033694342149860742
6938.2902465670495,0.0021481882615228174,0.0033716723921140656
6938.291246338972,0.0021543215067593375,0.003372390792445289
6938.292246110895,0.002162184448255743,0.003371449896998979
6938.293245882817,0.002171477464709296,0.0033687358946633598
6938.294245654741,0.0021819086949183618,0.00336416348285305
6938.295245426663,0.002193200134200155,0.0033576774583089545
6938.296245198586,0.002205092892103027,0.003349253089682259
6938.2972449705085,0.0022173515751381144,0.003338895325659978
6938.298244742431,0.0022297677933082955,0.003326636954674286
6938.299244514354,0.00224216281197805,0.0033125359078236844
6938.300244286277,0.0022543893854341302,0.003296671973475911
6938.3012440582,0.0022663328183646866,0.003279143237435816
6938.302243830122,0.002277911303580349,0.003260062544867217
6938.303243602045,0.0022890755743915758,0.003239554194251758
6938.304243373968,0.002299807895342618,0.0032177509515233364
6938.305243145891,0.0023101204125769406,0.003194791364671364
6938.3062429178135,0.002320052900639069,0.0031708173057240175
6938.307242689736,0.002329669963146899,0.0031459716835059368
6938.308242461659,0.0023390577591402718,0.0031203963399030967
6938.309242233581,0.0023483203369677845,0.0030942302136911203
6938.310242005505,0.002357575670694489,0.0030676078755589834
6938.311241777427,0.0023669515150197325,0.0030406584945295513
6938.31224154935,0.00237658121922311,0.0030135052247519125
6938.3132413212725,0.002386599655268925,0.0029862649484645822
6938.314241093195,0.002397139411839619,0.0029590483002432696
6938.315240865119,0.002408327388325022,0.0029319599207000557
6938.316240637041,0.0024202818943881627,0.0029050989127583646
6938.317240408964,0.0024331103188341588,0.0028785594748895376
6938.318240180886,0.002446907372213796,0.0028524316679145894
6938.319239952809,0.0024617538340839626,0.002826802262464317
6938.320239724731,0.0024777156657609448,0.0028017556280438955
6938.321239496655,0.002494843313557195,0.0027773746425743405
6938.3222392685775,0.002513171049157983,0.002753741595250458
6938.3232390405,0.002532716262514746,0.0027309390334457517
6938.324238812423,0.0025534786978691675,0.0027090505043813216
6938.325238584345,0.002575439671086606,0.002688161175649137
6938.326238356269,0.002598561325622707,0.002668358348390406
6938.327238128191,0.0026227859955680896,0.0026497318687960826
6938.328237900114,0.002648035755176475,0.0026323744103619153
6938.3292376720365,0.002674212229799701,0.0026163815768071104
6938.330237443959,0.002701196712003152,0.002601851778328321
6938.331237215882,0.002728850585462255,0.00258888585074083
6938.332236987805,0.002757016036702324,0.002577586403805133
6938.333236759728,0.002785517040296809,0.0025680568935097445
6938.33423653165,0.002814160621022996,0.002560400407885618
6938.335236303573,0.002842738405650644,0.0025547181413179674
6938.336236075496,0.0028710284734196644,0.0025511075279474973
6938.337235847419,0.0028987975116787313,0.0025496600265030784
6938.3382356193415,0.0029258032876168273,0.0025504585860570876
6938.339235391264,0.002951797443458854,0.00255357484938689
6938.340235163187,0.002976528602030551,0.002559066159845884
6938.341234935109,0.002999745748834404,0.0025669724428531064
6938.342234707033,0.0030212018523937596,0.00257731304590878
6938.343234478955,0.0030406576894995313,0.0025900836365812603
6938.344234250878,0.003057885838763842,0.002605253266175904
6938.3452340228005,0.0030726747901038505,0.002622761709555263
6938.346233794723,0.003084833102082239,0.0026425172009144886
6938.347233566647,0.0030941935367927178,0.0026643947007973004
6938.348233338569,0.003100617107534146,0.0026882348269468823
6938.349233110492,0.003103996969309833,0.002713843540198791
6938.350232882414,0.0031042620626252015,0.002740992610990162
6938.351232654337,0.0031013804026672866,0.002769420837008009
6938.352232426259,0.0030953618987623987,0.0027988359533534534
6938.353232198183,0.0030862605895623915,0.002828917157800575
6938.3542319701055,0.0030741761857905796,0.0028593181445877923
6938.355231742028,0.003059254827835713,0.0028896705057188856
6938.356231513951,0.003041688990512969,0.0029195873523452523
6938.357231285873,0.003021716499874179,0.002948667058221691
6938.358231057797,0.002999618661771692,0.0029764971210642596
6938.359230829719,0.0029757175262844797,0.0030026582347032044
6938.360230601642,0.0029503723190242386,0.0030267287272349942
6938.3612303735645,0.002923975073288539,0.003048289527416855
6938.362230145487,0.002896945510994173,0.0030669297725278203
6938.36322991741,0.0028697252362615273,0.0030822530894827455
6938.364229689333,0.002842771309575527,0.003093884502143718
6938.365229461256,0.0028165492752678925,0.0031014778578548306
6938.366229233178,0.0027915257446478213,0.003104723615286312
6938.367229005101,0.0027681606919816326,0.003103356781942166
6938.368228777024,0.002746899676318962,0.0030971647387553623
6938.369228548947,0.0027281662311589216,0.0030859946571292034
6938.3702283208695,0.002712354650853366,0.003069760210186766
6938.371228092792,0.002699823352406766,0.003048447297512672
6938.372227864715,0.0026908889269444906,0.0030221185238148754
6938.373227636637,0.002685820943434412,0.0029909161948206285
6938.374227408561,0.002684837544272149,0.002955063642711072
6938.375227180483,0.002688101876927204,0.0029148647863102154
6938.376226952406,0.002695719420877463,0.0028707019446470154
6938.3772267243285,0.0027077362704184464,0.002823032007808812
6938.378226496251,0.002724138408965289,0.002772381096208235
6938.379226268175,0.002744851971404719,0.002719337816660317
6938.380226040097,0.002769744461883052,0.0026645451879478577
6938.38122581202,0.002798626883826381,0.0026086913023672166
6938.382225583942,0.002831256733599342,0.00255249883122738
6938.383225355865,0.0028673417907926365,0.002496713554201859
6938.384225127787,0.0029065446030212103,0.0024420921647844026
6938.385224899711,0.0029484875266976795,0.002389389654141665
6938.3862246716335,0.002992758167290423,0.0023393465870868205
6938.387224443556,0.0030389150706879274,0.002292676553755463
6938.388224215479,0.003086493546571269,0.0022500540290571166
6938.389223987402,0.003135011541511018,0.002212102823913164
6938.390223759325,0.003183975506024712,0.002179385273980266
6938.391223531247,0.0032328862152009017,0.0021523922815644765
6938.39222330317,0.003281244529164868,0.0021315343163861686
6938.3932230750925,0.00332855712334674,0.0021171335072895417
6938.394222847015,0.003374342244826516,0.0021094170137467083
6938.3952226189385,0.003418135531115694,0.0021085119147293842
6938.396222390861,0.003459495878818024,0.0021144418518563306
6938.397222162784,0.003498011300988286,0.0021271256079227665
6938.398221934706,0.003533304661829249,0.002146377717650374
6938.399221706629,0.003565039116613444,0.0021719111187799164
6938.400221478552,0.00359292303543806,0.0022033417659455463
6938.401221250475,0.0036167141807033807,0.0022401950508816014
6938.4022210223975,0.0036362229355477275,0.002281913810361161
6938.40322079432,0.003651314423842526,0.002327867672885207
6938.404220566243,0.003661909424286374,0.002377363508095258
6938.405220338165,0.0036679840734083627,0.002429656793928806
6938.406220110089,0.0036695684598049105,0.0024839637799794496
6938.407219882011,0.0036667442984608697,0.0025394743695017286
6938.408219653934,0.003659641911727954,0.00259536564615033
6938.4092194258565,0.0036484367186750753,0.0026508159334309423
6938.410219197779,0.0036333453481481926,0.0027050192128579274
6938.411218969703,0.0036146213768248436,0.0027571996661940107
6938.412218741625,0.0035925506126428613,0.0028066260649026453
6938.413218513548,0.003567445838751913,0.0028526257112568305
6938.41421828547,0.003539640995523901,0.002894597636770649
6938.415218057393,0.0035094848643544155,0.002932024772326011
6938.416217829315,0.003477334387284816,0.0029644848022333825
6938.417217601239,0.003443547801317107,0.0029916593886922934
6938.4182173731615,0.0034084777953954813,0.0030133414121053356
6938.419217145084,0.0033724649108900057,0.0030294398537777417
6938.420216917007,0.00333583139059154,0.003039981998654596
6938.42121668893,0.0032988756410092736,0.0030451127706292774
6938.422216460853,0.0032618674381395627,0.00304509118668249
6938.423216232775,0.0032250440037531816,0.00304028406354147
6938.424216004698,0.003188607099491607,0.003031157201619164
6938.4252157766205,0.0031527212937584523,0.0030182643132307223
6938.426215548543,0.003117513524488821,0.00300223397292673
6938.4272153204665,0.003083074015056356,0.0029837548695406287
6938.428215092389,0.0030494585220165356,0.0029635596598977056
6938.429214864312,0.0030166918138044303,0.002942407777527421
6938.430214636234,0.002984772204918068,0.0029210676251136864
6938.431214408157,0.00295367691132617,0.0029002986485251797
6938.43221418008,0.002923367959048294,0.002880833821040234
6938.433213952003,0.0028937983690941085,0.0028633630377638652
6938.4342137239255,0.0028649183523314393,0.0028485178363548387
6938.435213495848,0.002836681273626222,0.0028368577509620806
6938.436213267771,0.002809049185529911,0.0028288585125684517
6938.437213039693,0.0027819977786477895,0.002824902259404294
6938.438212811617,0.0027555206265699834,0.002825269911252762
6938.439212583539,0.0027296326086254765,0.0028301358594855033
6938.440212355462,0.002704372395950302,0.002839565104513271
6938.4412121273845,0.002679803915607494,0.002853512930141194
6938.442211899308,0.0026560167671574476,0.0028718271433584874
6938.443211671231,0.0026331256294602687,0.0028942528288215075
6938.444211443153,0.002611268732608524,0.002920439472633857
6938.445211215076,0.002590605476788861,0.002949950206477923
6938.446210986998,0.0025713132783554958,0.0029822728214691993
6938.447210758921,0.0025535837299707556,0.0030168321248981427
6938.448210530844,0.0025376181727058663,0.003053003194584258
6938.449210302767,0.0025236227871634344,0.003090125137686035
6938.4502100746895,0.0025118033166851117,0.003127515056977693
6938.451209846612,0.002502359534216149,0.003164482017581018
6938.452209618535,0.002495479553674235,0.0032003408507817245
6938.453209390458,0.0024913340746843126,0.003234425624303308
6938.454209162381,0.0024900706448871737,0.0032661025813123298
6938.455208934303,0.0024918080329825666,0.0032947823382811227
6938.456208706226,0.002496630837877644,0.0033199311398255174
6938.4572084781485,0.0025045845142281815,0.0033410809797812186
6938.458208250071,0.0025156710443422913,0.003357838407617894
6938.4592080219945,0.0025298454949742623,0.003369891864413648
6938.460207793917,0.002547013659252359,0.0033770174425162944
6938.46120756584,0.0025670309278567355,0.003379083022027521
6938.462207337762,0.002589702487055322,0.0033760507822277503
6938.463207109685,0.0026147848991779593,0.003367978105076868
6938.464206881608,0.002641989061426485,0.003355016877986934
6938.465206653531,0.0026709844625607978,0.003337411171564021
6938.4662064254535,0.00270140459116738,0.003315493237044676
6938.467206197376,0.0027328533092701684,0.0032896777598877555
6938.468205969299,0.0027649119779086825,0.003260454330286797
6938.469205741221,0.0027971470933598904,0.0032283781532739084
6938.470205513145,0.0028291181710768504,0.003194059120633124
6938.471205285067,0.002860385611858982,0.0031581494851493307
6938.47220505699,0.002890518301019523,0.0031213304805641382
6938.4732048289125,0.0029191007165200724,0.0030842982923781253
6938.474204600836,0.0029457393489827396,0.003047749805064101
6938.475204372759,0.002970068269347233,0.0030123685515653412
6938.476204144681,0.0029917537322368057,0.002978811290863944
6938.477203916604,0.0030104977806831817,0.0029476956317823996
6938.478203688526,0.0030260409052916895,0.0029195890782832074
6938.479203460449,0.0030381638810849467,0.002894999782226849
6938.480203232372,0.0030466889403336556,0.002874369179017578
6938.481203004295,0.0030514804391729568,0.002858066588009607
6938.4822027762175,0.0030524451489607036,0.0028463857972954336
6938.48320254814,0.0030495322619754793,0.0028395436019635115
6938.484202320063,0.003042733159103369,0.0028376801972933227
6938.485202091986,0.0030320809586959307,0.0028408612383885863
6938.486201863909,0.003017649860686355,0.0028490812926687055
6938.487201635831,0.002999554319428973,0.0028622683662483787
6938.488201407754,0.002977948106962596,0.0028802891855653264
6938.4892011796765,0.0029530233363677556,0.0029029549331791057
6938.490200951599,0.0029250094849212825,0.0029300271433904
6938.4912007235225,0.0028941723972707866,0.0029612234638433043
6938.492200495445,0.002860813179224172,0.0029962230151412525
6938.493200267368,0.0028252668326894984,0.003034671156711694
6938.49420003929,0.0027879004581720115,0.0030761835795421336
6938.495199811213,0.0027491108833466783,0.0031203497478136063
6938.496199583136,0.0027093216495066618,0.0031667357747806606
6938.497199355059,0.0026689793592317933,0.0032148868670531516
6938.4981991269815,0.0026285494337817844,0.0032643295367859246
6938.499198898904,0.0025885113567614753,0.003314573849830627
6938.500198670827,0.0025493535023467977,0.0033651160066636336
6938.501198442749,0.002511567657035958,0.003415441520460218
6938.502198214673,0.002475643339809126,0.0034650291790867182
6938.503197986595,0.002442062012260175,0.0035133558813166678
6938.504197758518,0.0024112912580509798,0.003559902335925777
6938.5051975304405,0.0023837790135141806,0.003604159511176723
6938.506197302364,0.002359947951948068,0.0036456356301587563
6938.507197074287,0.002340190141337022,0.003683863439053301
6938.508196846209,0.002324862078787372,0.0037184074499005426
6938.509196618132,0.0023142801518803648,0.003748870886122173
6938.510196390054,0.0023087165198099305,0.0037749021132585303
6938.511196161977,0.002308395384190881,0.0037962003696779953
6938.5121959339,0.0023134896385390586,0.003812520599797948
6938.513195705823,0.002324117918797731,0.003823677167423347
6938.5141954777455,0.002340342098079976,0.00382954624063035
6938.515195249668,0.0023621652801488796,0.003830066718914144
6938.516195021591,0.002389530362480186,0.0038252397080154542
6938.517194793514,0.0024223192587666436,0.003815126695888313
6938.518194565437,0.002460352879187829,0.003799846688710115
6938.519194337359,0.0025033919557671774,0.0037795725938012067
6938.520194109282,0.002551138765433175,0.0037545270960992155
6938.521193881204,0.002603239746670106,0.003724978207098085
6938.522193653127,0.0026592889420641534,0.003691234609496183
6938.5231934250505,0.0027188321555060278,0.003653640894001741
6938.524193196973,0.0027813717102216024,0.0036125727777431603
6938.525192968896,0.0028463717275905706,0.0035684323805043735
6938.526192740818,0.002913263889868916,0.0035216435952414153
6938.527192512742,0.002981453677263513,0.0034726475339708148
6938.528192284664,0.0030503270695451455,0.0034218979987756496
6938.529192056587,0.0031192576699047674,0.0033698569484318618
6938.5301918285095,0.003187614151737754,0.003316989981047465
6938.531191600432,0.003254767875458126,0.003263761875536334
6938.532191372355,0.0033201005025673518,0.0032106322067368145
6938.533191144278,0.003383011455978058,0.0031580510079002523
6938.534190916201,0.003442925123066478,0.003106454443744125
6938.535190688123,0.0034992977471368023,0.003056260477859542
6938.536190460046,0.003551623988029199,0.003007864546537832
6938.537190231968,0.003599443146812832,0.0029616352738039333
6938.538190003892,0.0036423450358001354,0.0029179102797017853
6938.539189775815,0.00367997543101092,0.0028769921517095634
6938.540189547737,0.003712040989630502,0.002839144671703921
6938.54118931966,0.0037383134891210957,0.0028045894118843245
6938.542189091582,0.0037586332708969463,0.002773502821164809
6938.543188863505,0.0037729118263251414,0.002746013913270861
6938.544188635428,0.0037811334905404658,0.002722202641628223
6938.545188407351,0.0037833561755349888,0.0027020990119052224
6938.5461881792735,0.0037797110019312822,0.0026856829478010377
6938.547187951196,0.003770400644224376,0.0026728848913855417
6938.548187723119,0.003755696240045641,0.002663587086636102
6938.549187495042,0.0037359328270600636,0.0026576254665413124
6938.550187266965,0.003711503408657045,0.002654792048769019
6938.551187038887,0.00368285185808274,0.002654837759038712
6938.55218681081,0.003650464932462024,0.0026574756552251192
6938.553186582732,0.0036148636927039917,0.002662384601648863
6938.554186354655,0.003576594622956534,0.0026692135015585596
6938.5551861265785,0.0035362207158688022,0.002677586202281378
6938.556185898501,0.003494312737482032,0.002687107136389759
6938.557185670424,0.0034514408158434276,0.0026973676753265373
6938.558185442346,0.0034081664297345698,0.0027079530854770633
6938.55918521427,0.0033650348353797214,0.002718449924502338
6938.560184986192,0.0033225679777948857,0.0027284537078236144
6938.561184758115,0.0032812579777352392,0.002737576690700142
6938.5621845300375,0.0032415613299526936,0.002745455621571153
6938.56318430196,0.0032038939649629236,0.0027517593161800595
6938.564184073883,0.0031686273045373452,0.002756195886366143
6938.565183845806,0.0031360853833323765,0.0027585194418155677
6938.566183617729,0.0031065430303266507,0.002758536069703374
6938.567183389651,0.0030802250302069396,0.0027561088838840933
6938.568183161574,0.0030573061395492347,0.002751161927463543
6938.569182933496,0.003037911816617187,0.0027436827302603915
6938.57018270542,0.003022119517764122,0.002733723391538551
6938.571182477343,0.003009960405549295,0.0027214001830192743
6938.572182249265,0.003001421314896948,0.002706891807287982
6938.573182021188,0.0029964468512756305,0.0026904365374272915
6938.57418179311,0.0029949415475504894,0.0026723284710786933
6938.575181565033,0.002996772063765374,0.0026529130758013966
6938.576181336956,0.003001769461808993,0.0026325821268011603
6938.577181108879,0.0030097316289928347,0.0026117680769667836
6938.5781808808015,0.003020425963962832,0.002590937862929792
6938.579180652724,0.0030335924569860184,0.0025705861339309108
6938.580180424647,0.003048947275717756,0.002551227893422188
6938.58118019657,0.003066186911265621,0.002533390578742845
6938.582179968493,0.0030849928638437747,0.0025176056680619448
6938.583179740415,0.003105036768844655,0.002504399961998552
6938.584179512338,0.0031259858040077705,0.002494286707239503
6938.58517928426,0.0031475081922006294,0.002487756711866575
6938.586179056184,0.0031692786148853095,0.0024852695712090454
6938.5871788281065,0.0031909833587955177,0.0024872450997087763
6938.588178600029,0.0032123250225484738,0.0024940550538957483
6938.589178371952,0.0032330266150145796,0.0025060152285983203
6938.590178143874,0.0032528348939852834,0.0025233780118728913
6938.591177915798,0.0032715228330551702,0.0025463255040648553
6938.59217768772,0.0032888911720694055,0.0025749633463210447
6938.593177459643,0.003304769089950951,0.002609315442557828
6938.5941772315655,0.003319014105111111,0.002649319766928382
6938.595177003488,0.003331511329467554,0.0026948254213652752
6938.596176775411,0.0033421721826482,0.002745591067930688
6938.597176547334,0.0033509326441440498,0.0028012848301355786
6938.598176319257,0.003357751113044954,0.0028614857357907204
6938.599176091179,0.003362605973718423,0.002925686750613699
6938.600175863102,0.0033654930237693127,0.0029932994251622804
6938.601175635024,0.0033664229738829907,0.0030636601526484977
6938.602175406948,0.0033654192432639395,0.0031360380064320405
6938.603175178871,0.003362516242125266,0.0032096440813706877
6938.604174950793,0.003357758266778132,0.0032836422075480354
6938.605174722716,0.0033511990440724796,0.003357160861385994
6938.606174494638,0.0033429018579362235,0.0034293060805938233
6938.607174266561,0.0033329400910018315,0.003499175182385099
6938.608174038484,0.003321397953945989,0.003565871068389787
6938.609173810407,0.0033083711828678724,0.0036285168717430775
6938.6101735823295,0.0032939675518722936,0.0036862706714967815
6938.611173354252,0.003278307127350227,0.0037383399676940723
6938.612173126176,0.003261522237142261,0.003783995574816402
6938.613172898098,0.003243757135932058,0.0038225845688821115
6938.614172670021,0.003225167348596133,0.003853541940955402
6938.615172441943,0.003205918693580923,0.0038764006703682014
6938.616172213866,0.0031861860217936157,0.003890800008343665
6938.617171985788,0.0031661517291768034,0.003896491824679775
6938.618171757712,0.003146004108148329,0.003893344902596586
6938.6191715296345,0.003125935603906435,0.0038813470862128366
6938.620171301557,0.0031061410351095543,0.0038606052260608957
6938.62117107348,0.0030868158178478096,0.003831342948502847
6938.622170845402,0.003068154205389991,0.0037938963773174656
6938.623170617326,0.003050347541396183,0.0037487080243658777
6938.624170389248,0.0030335825196354874,0.003696319112481046
6938.625170161171,0.003018039425263656,0.003637360591086616
6938.6261699330935,0.003003890296035213,0.003572543072173518
6938.627169705016,0.002991296923684394,0.00350264587455423
6938.628169476939,0.0029804086537829908,0.0034285053262353505
6938.629169248862,0.002971360021165575,0.0033510024459320322
6938.630169020785,0.0029642683232653645,0.0032710501242935175
6938.631168792707,0.0029592312509885287,0.003189579958867834
6938.63216856463,0.0029563246771063196,0.0031075289379848413
6938.633168336552,0.0029556006792690365,0.003025826188128098
6938.634168108476,0.0029570858733866676,0.0029453799981679547
6938.635167880399,0.002960780154788976,0.0028670653327227762
6938.636167652321,0.0029666559682046223,0.0027917120519728713
6938.637167424244,0.002974658223939298,0.0027200940497172556
6938.638167196166,0.002984704934730607,0.0026529194896386045
6938.639166968089,0.002996688582455303,0.0025908222708142343
6938.640166740012,0.0030104781649229868,0.0025343548129622582
6938.641166511935,0.003025921839955808,0.002483982229561886
6938.6421662838575,0.003042850081924989,0.0024400779381987675
6938.64316605578,0.0030610792858351346,0.0024029207291425114
6938.644165827704,0.0030804157741701446,0.002372693281513515
6938.645165599626,0.0031006601620831896,0.0023494820952093933
6938.646165371549,0.0031216120168145772,0.002333278801122707
6938.647165143471,0.003143074722516268,0.0023239828130130844
6938.648164915394,0.003164860439721497,0.0023214052716227875
6938.649164687316,0.0031867950194959947,0.002325274194231486
6938.65016445924,0.0032087226847939128,0.002335240700538156
6938.6511642311625,0.0032305102369200862,0.002350886172001024
6938.652164003085,0.003252050514083225,0.0023717302223309478
6938.653163775008,0.0032732648441861794,0.0023972393859831385
6938.65416354693,0.0032941042908728783,0.0024268364477914232
6938.655163318854,0.003314549571036758,0.002459910339723803
6938.656163090776,0.003334609610871078,0.0024958265255424572
6938.657162862699,0.0033543188025340325,0.002533937782126839
6938.6581626346215,0.0033737331130283595,0.0025735952634439816
6938.659162406544,0.003392925256043211,0.0026141596892224166
6938.660162178467,0.003411979150539271,0.002655012429911904
6938.66116195039,0.003430983871004242,0.0026955661831509414
6938.662161722313,0.003450027275038349,0.0027352748994030358
6938.663161494235,0.0034691894937926063,0.002773642651121073
6938.664161266158,0.003488536488395922,0.002810231245051543
6938.665161038081,0.003508113898912529,0.0028446665048250377
6938.666160810004,0.0035279414259119677,0.0028766432459636257
6938.667160581927,0.0035480079755220817,0.0029059289996429096
6938.668160353849,0.003568267770772314,0.0029323665254969255
6938.669160125772,0.003588637604762384,0.0029558751218147507
6938.670159897694,0.0036089953932277982,0.002976450721489446
6938.671159669618,0.003629180158037258,0.0029941647548283714
6938.67215944154,0.0036489935195983345,0.0030091617514720254
6938.673159213463,0.0036682027012470667,0.0030216556410104975
6938.6741589853855,0.0036865449793984273,0.0030319247112935103
6938.675158757308,0.0037037334714570738,0.0030403052072397897
6938.676158529232,0.0037194641343787902,0.0030471835927481923
6938.677158301154,0.003733423822172045,0.0030529875442253905
6938.678158073077,0.0037452992033723286,0.003058175810067451
6938.679157844999,0.003754786285085015,0.0030632271659303744
6938.680157616922,0.0037616002510276873,0.003068628785682419
6938.681157388844,0.0037654852954938263,0.0030748643803373854
6938.682157160768,0.003766224107584653,0.0030824024214145002
6938.6831569326905,0.0037636466303012095,0.0030916846953898407
6938.684156704613,0.003757637706651521,0.0031031153707013993
6938.685156476536,0.0037481432446769413,0.003117050714976948
6938.686156248458,0.003735174584317541,0.003133789579821723
6938.687156020382,0.0037188108287923224,0.003153564777289511
6938.688155792304,0.0036991990097595415,0.00317653550553652
6938.689155564227,0.0036765520743583737,0.0032027810183395044
6938.6901553361495,0.003651144790705668,0.0032322957418496503
6938.691155108072,0.0036233077510072773,0.003264986016593788
6938.692154879995,0.003593419704543089,0.00330066860795159
6938.693154651918,0.0035618984881171834,0.0033390711022155033
6938.694154423841,0.003529190857784743,0.003379834280745304
6938.695154195763,0.003495761561669956,0.0034225165324658414
6938.696153967686,0.003462082011206729,0.0034666003288957156
6938.697153739609,0.0034286189064316906,0.003511500745253362
6938.698153511532,0.003395823163823194,0.0035565759532918176
6938.699153283455,0.0033641194791212896,0.0036011395330666175
6938.700153055377,0.003333896821781347,0.0036444743704417905
6938.7011528273,0.003305500110118746,0.0036858478475512045
6938.702152599222,0.0032792232706152285,0.003724527992775158
6938.703152371146,0.003255303844110203,0.003759800206553806
6938.704152143068,0.0032339192634814264,0.003790984103860154
6938.705151914991,0.0032151848843946433,0.003817449941302617
6938.7061516869135,0.0031991537912232195,0.003838634069353104
6938.707151458836,0.003185818327769155,0.003854052877831494
6938.70815123076,0.0031751132342782346,0.0038633147631628537
6938.709151002682,0.003166920212014575,0.003866129719427471
6938.710150774605,0.0031610736749742812,0.003862316238910683
6938.711150546527,0.0031573673941547743,0.003851805307538043
6938.71215031845,0.003155561721030517,0.0038346414025900856
6938.713150090372,0.0031553911032609406,0.003810980538608674
6938.714149862296,0.003156571652550767,0.003781085540207608
6938.7151496342185,0.003158808562228812,0.003745318830192375
6938.716149406141,0.003161803200506485,0.003704133106172174
6938.717149178064,0.003165259748609434,0.003658060334423388
6938.718148949986,0.0031688913199892383,0.003607699508625502
6938.71914872191,0.0031724255616762667,0.003553703613433007
6938.720148493832,0.003175609765251677,0.003496766217396435
6938.721148265755,0.003178215491597614,0.003437608094603007
6938.7221480376775,0.003180042663496208,0.0033769642241572406
6938.7231478096,0.003180923040235844,0.003315571445831631
6938.724147581523,0.003180722980452985,0.003254156987159468
6938.725147353446,0.0031793454196476674,0.0031934280396864784
6938.726147125369,0.0031767310212766756,0.003134062533335295
6938.727146897291,0.003172858493123961,0.0030767012069680393
6938.728146669214,0.0031677440868466463,0.0030219409937388237
6938.729146441137,0.003161440310449551,0.002970329660495135
6938.73014621306,0.003154033877585211,0.0029223615966453664
6938.731145984983,0.003145642906292977,0.00287847464157116
6938.732145756905,0.0031364133884993614,0.0028390478379422537
6938.733145528828,0.0031265150007526916,0.0028043999771725004
6938.73414530075,0.003116136409731496,0.0027747887769118545
6938.735145072674,0.0031054803034227807,0.002750410531053456
6938.736144844596,0.0030947584079292377,0.002731400113969911
6938.737144616519,0.0030841867251940906,0.0027178312852429672
6938.7381443884415,0.003073981175911111,0.0027097173014734395
6938.739144160364,0.003064353777002541,0.002707011886667495
6938.740143932288,0.0030555094280258596,0.0027096106431580783
6938.74114370421,0.0030476433229122885,0.002717352995651534
6938.742143476133,0.0030409389406129855,0.0027300247445682826
6938.743143248055,0.003035566504918863,0.0027473612677264025
6938.744143019978,0.003031681756770927,0.002769051368366722
6938.7451427919,0.0030294248726355074,0.0027947417321541983
6938.746142563824,0.003028919398229555,0.0028240419219603004
6938.7471423357465,0.0030302711351705438,0.002856529802376704
6938.748142107669,0.0030335669888222503,0.002891757251438505
6938.749141879592,0.003038873828588037,0.0029292559925666365
6938.750141651515,0.0030462374163824973,0.002968543370540388
6938.751141423438,0.0030556814372315784,0.003009127910789646
6938.75214119536,0.0030672066431227615,0.003050514547848483
6938.753140967283,0.0030807901191209144,0.003092209471559434
6938.7541407392055,0.0030963847005086045,0.0031337245857759057
6938.755140511128,0.0031139185935898104,0.003174581581960427
6938.756140283052,0.0031332952664547093,0.003214315611038174
6938.757140054974,0.0031543936767809443,0.003252478523107768
6938.758139826897,0.003177068888903689,0.0032886416495934647
6938.759139598819,0.003201153097736642,0.0033223981126811065
6938.760139370742,0.003226457029641352,0.0033533646559789575
6938.761139142665,0.003252771652781432,0.003381183016174728
6938.762138914588,0.0032798701251422545,0.003405520916870667
6938.763138686511,0.0033075099354059065,0.0034260728560680286
6938.764138458433,0.003335435221552261,0.0034425609394398665
6938.765138230356,0.0033633792604255658,0.003454736031646787
6938.766138002278,0.003391067109757122,0.0034623794351985623
6938.767137774202,0.0034182183677407096,0.0034653051888329477
6938.768137546124,0.0034445500087052178,0.0034633629558228863
6938.769137318047,0.0034697792635356908,0.003456441379057435
6938.7701370899695,0.003493626539504931,0.0034444717189450373
6938.771136861892,0.0035158184097088675,0.003427431555337279
6938.772136633816,0.0035360907314984417,0.003405348316368783
6938.773136405738,0.0035541919551132233,0.0033783023867754295
6938.774136177661,0.003569886648771935,0.0033464295436814893
6938.775135949583,0.0035829592012218314,0.003309922471049932
6938.776135721506,0.003593217581187953,0.003269031119847268
6938.777135493428,0.0036004969573953886,0.00322406172625726
6938.778135265352,0.003604662942749319,0.0031753743937025275
6938.7791350372745,0.0036056142412630807,0.003123379272462565
6938.780134809197,0.0036032845359579204,0.0030685314827971827
6938.78113458112,0.0035976435279075065,0.003011324980319643
6938.782134353043,0.003588697098950332,0.0029522855576632565
6938.783134124966,0.003576486626317406,0.0028919631519002897
6938.784133896888,0.003561087529951027,0.0028309236225475803
6938.785133668811,0.0035426071698552684,0.0027697401974505365
6938.7861334407335,0.0035211822238005288,0.002708984840041261
6938.787133212656,0.003496975674732877,0.002649219839293814
6938.78813298458,0.003470173532068472,0.002590989935727082
6938.789132756502,0.003440981403636304,0.002534815264175789
6938.790132528425,0.0034096210244719074,0.0024811853246162066
6938.791132300347,0.0033763268330444457,0.0024305541053955748
6938.79213207227,0.003341342666816171,0.0023833364047679923
6938.793131844193,0.0033049186341519623,0.0023399053450325895
6938.794131616116,0.0032673082120949636,0.00230059104043208
6938.795131388039,0.0032287656169619258,0.0022656803376996377
6938.796131159961,0.003189543490126936,0.002235417487109403
6938.797130931884,0.0031498909250164465,0.002210005547797009
6938.798130703806,0.003110051830568029,0.002189608313951768
6938.79913047573,0.0030702635947984593,0.0021743525639282167
6938.800130247652,0.003030755999964099,0.002164330450092241
6938.801130019575,0.0029917503503228246,0.00215960184439784
6938.8021297914975,0.0029534587807395853,0.002160196450550086
6938.803129563421,0.0029160836988617574,0.002166115520296768
6938.804129335344,0.002879817288521197,0.0021773330762610917
6938.805129107266,0.0028448409973873216,0.0021937966188626907
6938.806128879189,0.0028113249558945398,0.0022154273489899154
6938.807128651111,0.002779427306944255,0.0022421199661174633
6938.808128423034,0.00274929344280045,0.0022737421196811405
6938.809128194957,0.0027210551400614546,0.0023101336193199697
6938.81012796688,0.002694829568570159,0.0023511055563134767
6938.8111277388025,0.002670718145675045,0.002396439540494226
6938.812127510725,0.002648805223349923,0.002445887281275125
6938.813127282648,0.002629156628446731,0.002499170714627291
6938.814127054571,0.0026118181174112328,0.00255598280924283
6938.815126826494,0.00259681384705428,0.002615989108348743
6938.816126598416,0.0025841449903851437,0.0026788300063387317
6938.817126370339,0.0025737886305903512,0.0027441237224926905
6938.8181261422615,0.0025656970455591697,0.0028114698994914683
6938.819125914184,0.0025597974612843644,0.002880453710703053
6938.820125686108,0.0025559923279857497,0.0029506503157113056
6938.82112545803,0.0025541601752169085,0.0030216294728447925
6938.822125229953,0.0025541571193156425,0.003092960099952741
6938.823125001875,0.002555819094919593,0.003164214555305737
6938.824124773798,0.00255896484295944,0.0032349723845577225
6938.825124545721,0.002563399620379399,0.0033048232734811493
6938.826124317644,0.0025689195243425735,0.0033733690041731334
6938.827124089567,0.0025753162624346216,0.003440224351634613
6938.828123861489,0.0025823821527200786,0.003505017034541624
6938.829123633412,0.0025899151002070357,0.0035673869719133554
6938.830123405334,0.0025977232781654656,0.0036269851496943204
6938.831123177258,0.0026056292580967804,0.00368347238141069
6938.83212294918,0.002613473376500943,0.003736518202827058
6938.833122721103,0.0026211161829187576,0.003785800107737363
6938.8341224930255,0.002628439878496511,0.0038310033106860306
6938.835122264949,0.0026353487335897393,0.0038718211969353184
6938.836122036872,0.0026417685611537056,0.003907956588595583
6938.837121808794,0.002647645400720125,0.0039391239217130515
6938.838121580717,0.0026529436142773847,0.0039650523835367026
6938.839121352639,0.002657643601481379,0.00398548999671778
6938.840121124562,0.0026617393239348227,0.004000208562294152
6938.841120896485,0.0026652358163208,0.004009009281613437
6938.842120668408,0.0026681468632630046,0.004011728769811281
6938.8431204403305,0.002670493010510849,0.004008245092171217
6938.844120212253,0.0026723000325503963,0.003998483454309917
6938.845119984176,0.0026735978975168093,0.0039824212570407766
6938.846119756099,0.0026744201784777836,0.003960092333400107
6938.847119528022,0.002674803789294402,0.003931590271244813
6938.848119299944,0.0026747888964030555,0.0038970707773118116
6938.849119071867,0.0026744188749385,0.003856753075750794
6938.8501188437895,0.002673740216726274,0.003810920384089953
6938.851118615712,0.002672802334129324,0.003759919569442272
6938.852118387636,0.0026716572293950906,0.003704160116534648
6938.853118159558,0.0026703590248085512,0.0036441125112269884
6938.854117931481,0.0026689633830361227,0.0035803060838833214
6938.855117703403,0.00266752687609597,0.003513326309959931
6938.856117475326,0.002666106365181375,0.0034438115424737727
6938.857117247249,0.002664758430341518,0.003372449128825948
6938.858117019172,0.0026635388506503982,0.0032999708256269034
6938.859116791095,0.002662502092681738,0.0032271473903491004
6938.860116563017,0.002661700732443783,0.0031547822357602204
6938.86111633494,0.002661184733963827,0.0030837040945823594
6938.862116106862,0.0026610005412527767,0.0030147587281720125
6938.863115878786,0.002661189986884045,0.0029487997766930673
6938.864115650708,0.00266178905855208,0.002886678869328305
6938.865115422631,0.002662826601338555,0.002829235122780754
6938.8661151945535,0.0026643230818690702,0.0027772842026605508
6938.867114966477,0.0026662895921003376,0.002731607208255316
6938.8681147384,0.0026687273000023967,0.002692939712514039
6938.869114510322,0.002671627541605346,0.0026619612897698644
6938.870114282245,0.0026749726880793095,0.0026392857862202663
6938.871114054167,0.0026787378268203436,0.0026254524690300135
6938.87211382609,0.002682893198511725,0.002620918078571586
6938.873113598013,0.0026874072628245206,0.002626049740833026
6938.874113369936,0.00269225022756936,0.0026411186805912075
6938.8751131418585,0.0026973978465238218,0.0026662946947292473
6938.876112913781,0.0027028352550891224,0.002701641380933077
6938.877112685704,0.002708560590553958,0.002747112158706292
6938.878112457627,0.0027145881632633633,0.002802547159095121
6938.87911222955,0.002720951001440535,0.002867671091236359
6938.880112001472,0.002727702651900887,0.002942092218361368
6938.881111773395,0.0027349181578088717,0.003025302595371859
6938.8821115453175,0.0027426941640252035,0.003116679727704337
6938.88311131724,0.0027511481476666,0.003215489795498421
6938.884111089164,0.0027604168405108986,0.003320892550850222
6938.885110861086,0.002770653975783008,0.003431947955417996
6938.886110633009,0.002782027532922283,0.0035476245877372257
6938.887110404931,0.002794716673574684,0.0036668098061458437
6938.888110176855,0.002808908574019826,0.0037883216017160553
6938.889109948777,0.002824795363544069,0.003910922027512261
6938.8901097207,0.0028425713638975713,0.004033332051262367
6938.891109492623,0.0028624307927112933,0.004154247638703466
6938.892109264545,0.002884566059670915,0.0042723568324511095
6938.893109036468,0.0029091667597107005,0.004386357562065166
6938.894108808391,0.002936419448767801,0.004494975917030487
6938.895108580314,0.002966508264892832,0.004596984629928941
6938.896108352236,0.0029996164257805,0.004691221536140741
6938.897108124159,0.0030359285935993205,0.004776607775743496
6938.8981078960815,0.003075634048976702,0.004852165457280548
6938.899107668005,0.0031189305553908347,0.004917034406125829
6938.900107439928,0.003166028725055351,0.004970487502416489
6938.90110721185,0.003217156629877629,0.005011944033363551
6938.902106983773,0.0032725643549829223,0.005040980507441841
6938.903106755695,0.003332528184790813,0.005057338532989796
6938.904106527618,0.0033973541490157698,0.0050609295992890485
6938.905106299541,0.003467380724862643,0.005051836806066461
6938.906106071464,0.0035429805620126034,0.005030313701600227
6938.9071058433865,0.0036245611380050407,0.004996780437284533
6938.908105615309,0.0037125642483209318,0.004951817484372621
6938.909105387232,0.0038074642015369278,0.0048961571954862166
6938.910105159155,0.003909764561822251,0.004830673501558992
6938.911104931078,0.004019993277686654,0.0047563700087636124
6938.912104703,0.004138696029357005,0.004674366727747642
6938.913104474923,0.004266427581317792,0.004585885648067179
6938.914104246845,0.004403740866843814,0.004492235351395393
6938.915104018768,0.004551173551228014,0.004394794823985273
6938.916103790692,0.00470923199461545,0.00429499659590998
6938.917103562614,0.004878372829568113,0.004194309324824343
6938.918103334537,0.005058982655540605,0.004094219952871269
6938.919103106459,0.005251356518489802,0.0039962155724569595
6938.920102878383,0.005455675867170667,0.0039017651249847675
6938.921102650305,0.0056719866178014,0.003812301031621212
6938.922102422228,0.0059001778997749684,0.0037292008337229516
6938.923102194151,0.006139962064740576,0.0036537689278147716
6938.924101966073,0.006390856643051425,0.0035872185373406434
6938.925101737996,0.006652169079307175,0.0035306541626928525
6938.926101509919,0.006922985183319877,0.003485054849782026
6938.927101281842,0.00720216223703367,0.003451258667493764
6938.928101053764,0.007488327608062354,0.0034299487671996
6938.929100825687,0.007779883567620319,0.0034216413372345775
6938.930100597609,0.008075018812325595,0.0034266757055011433
6938.931100369533,0.008371726953473246,0.0034452068068667493
6938.932100141456,0.00866783198972598,0.0034772002099305375
6938.933099913378,0.008961020573827002,0.0035224298732823415
6938.934099685301,0.009248880758723058,0.0035804787681759462
6938.935099457223,0.009528946828638403,0.003650742464076461
6938.936099229146,0.009798749698822,0.0037324357289185237
6938.937099001069,0.010055872142665298,0.0038246021501919247
6938.938098772992,0.01029800778667875,0.0039261267359923056
6938.9390985449145,0.010523022465573838,0.004035751397518406
6938.940098316837,0.010729016210583614,0.004152093134209625
6938.94109808876,0.010914383859320979,0.0042736646487198235
6938.942097860683,0.011077871993870598,0.0043988970438905576
6938.943097632606,0.011218629643543039,0.004526164220779993
6938.944097404528,0.011336250024558849,0.004653808598368307
6938.945097176451,0.0114308006825343,0.004780167788932293
6938.946096948373,0.011502839859572542,0.004903601862906605
6938.947096720297,0.011553417659905975,0.005022520802077622
6938.94809649222,0.0115840614006087,0.005135411667082403
6938.949096264142,0.011596745197105608,0.005240864908457989
6938.950096036065,0.011593844354877366,0.005337599147084523
6938.951095807987,0.011578075687439333,0.005424483669636696
6938.952095579911,0.011552425560043923,0.005500557884679142
6938.953095351833,0.011520068199943242,0.0055650471151556585
6938.954095123756,0.011484277459133465,0.005617374345091531
6938.955094895679,0.011448335626187169,0.005657167801552898
6938.956094667601,0.011415442990527165,0.005684264438664426
6938.957094439524,0.011388631681779351,0.005698709460677556
6938.958094211447,0.01137068692577033,0.005700752020289644
6938.95909398337,0.011364078378026617,0.005690837244922828
6938.960093755292,0.011370903679685105,0.00566959482353383
6938.961093527215,0.011392845849250391,0.005637824483874955
6938.962093299137,0.011431145570868178,0.005596478729114465
6938.963093071061,0.011486588869048938,0.005546643175465943
6938.964092842984,0.011559510108491435,0.005489514801257315
6938.965092614906,0.011649809767520048,0.005426378442407081
6938.966092386829,0.01175698599507164,0.0053585819618892075
6938.967092158751,0.011880178518263016,0.005287510642848073
6938.968091930674,0.01201822297871407,0.005214561440263069
6938.969091702597,0.012169713254567071,0.0051411177349233025
6938.97009147452,0.012333068838769926,0.005068525180458966
6938.9710912464425,0.012506603987529888,0.004998069148688317
6938.972091018365,0.012688595229399009,0.0049309541705822146
6938.973090790289,0.012877344052298748,0.004868285645335101
6938.974090562211,0.01307123223625697,0.0048110539661898365
6938.975090334134,0.013268768245921965,0.004760121109653508
6938.976090106056,0.013468623988405046,0.004716209667368177
6938.977089877979,0.013669661781127482,0.004679894273716956
6938.978089649901,0.013870951566640005,0.004651595399555872
6938.979089421825,0.01407177845355555,0.004631575531038413
6938.980089193748,0.014271640679996145,0.0046199377981962905
6938.98108896567,0.014470238089505772,0.004616627124672235
6938.982088737593,0.014667451197690348,0.004621433930830384
6938.983088509515,0.014863311045100443,0.004634000357567624
6938.984088281439,0.01505796044778521,0.004653828905360402
6938.985088053361,0.015251607993801056,0.004680293310532625
6938.986087825284,0.015444476995724524,0.004712651420571834
6938.987087597207,0.01563675230873703,0.004750059792994842
6938.988087369129,0.015828528256317264,0.004791589721534105
6938.989087141052,0.016019760816748572,0.0048362443790505244
6938.990086912975,0.01621022678047489,0.00488297676401022
6938.991086684898,0.016399491917155635,0.004930708152377541
6938.99208645682,0.0165868894208723,0.00497834677342412
6938.993086228743,0.016771509127249676,0.005024806426594017
6938.994086000665,0.016952197256941814,0.005069024738493731
6938.995085772589,0.01712756572181238,0.005109980738121984
6938.996085544512,0.017296009324718812,0.005146711420954009
6938.997085316434,0.017455728584087882,0.005178327000230722
6938.998085088357,0.01760475564130868,0.005204024622549906
6938.999084860279,0.017740980970945994,0.005223100440474694
6939.000084632202,0.017862179358359064,0.005234960032781735
6939.001084404125,0.01796603446119305,0.0052391271759668415
6939.002084176048,0.0180501618559894,0.0052352508814398615
6939.0030839479705,0.018112130779351962,0.005223110484556075
6939.004083719893,0.018149485079892707,0.005202618499250815
6939.005083491817,0.018159764366231373,0.005173820987246179
6939.006083263739,0.01814052681892916,0.005136895313200388
6939.007083035662,0.01808937533536525,0.005092145306826529
6939.008082807584,0.018003988450744433,0.005039993981034827
6939.009082579507,0.017882156953644448,0.004980974039317488
6939.010082351429,0.017721826542412947,0.004915716438317821
6939.011082123353,0.01752114639944768,0.004844937261260409
6939.012081895276,0.01727852319533299,0.004769423135472323
6939.013081667198,0.0169926797342876,0.0046900154328227035
6939.014081439121,0.016662717196582362,0.004607593556565712
6939.015081211043,0.01628817968780583,0.0045230577483388245
6939.016080982967,0.015869119512375594,0.004437312006998822
6939.017080754889,0.015406161227344842,0.004351247816020044
6939.018080526812,0.014900562146794161,0.00426572936044963
6939.019080298735,0.01435426666035225,0.004181580780868246
6939.020080070657,0.013769951646591174,0.004099575821717457
6939.02107984258,0.01315106052039087,0.00402043004622194
6939.022079614503,0.012501824040006236,0.003944795637430665
6939.023079386426,0.011827266750507718,0.003873258677863347
6939.024079158348,0.011133198623286322,0.0038063386754107163
6939.025078930271,0.01042619188403181,0.0037444899709374916
6939.026078702194,0.009713543172533371,0.0036881045487934384
6939.027078474117,0.009003221181291916,0.003637515720468837
6939.02807824604,0.00830379996120337,0.0035930021925421715
6939.029078017962,0.007624378256596272,0.003554792152754454
6939.030077789885,0.006974485514877995,0.003523067171672246
6939.031077561807,0.006363975523352111,0.0034979658731744785
6939.032077333731,0.005802908879031421,0.003479587434902007
6939.033077105653,0.005301425681033995,0.0034679950198738185
6939.034076877576,0.004869609997569704,0.003463219223863081
6939.0350766494985,0.0045173478316797785,0.0034652615870374094
6939.036076421421,0.004254180450927537,0.003474098195023068
6939.037076193345,0.004089155003117056,0.003489683381678941
6939.038075965267,0.004030674326930244,0.0035119535170542527
6939.03907573719,0.004086347847204766,0.0035408308118432207
6939.040075509112,0.004262845474330523,0.0035762270215342483
6939.041075281035,0.004565756531115321,0.00361804691311502
6939.042075052957,0.0049994558959032655,0.0036661913516082556
6939.043074824881,0.005566979733465257,0.003720559847970126
6939.044074596804,0.006269913354747477,0.003781052389370448
6939.045074368726,0.007108293900818419,0.003847570377170348
6939.046074140649,0.008080530662140173,0.003920016533826158
6939.047073912571,0.009183345861444129,0.003998293670765667
6939.048073684495,0.010411738609632324,0.004082302200891356
6939.049073456417,0.011758974513181107,0.004171936262219387
6939.05007322834,0.013216603107984885,0.0042670783731705835
6939.051073000263,0.014774504920982937,0.004367592705610341
6939.052072772185,0.016420969497455293,0.004473317285845675
6939.053072544108,0.018142805167583046,0.004584055614173201
6939.054072316031,0.01992548065589913,0.004699568267551912
6939.055072087954,0.02175329787088345,0.004819565036697859
6939.056071859876,0.023609594402838382,0.00494369811006124
6939.057071631799,0.025476973485040598,0.0050715567850585725
6939.058071403722,0.02733755846782912,0.005202664142180226
6939.059071175645,0.029173268186522383,0.005336476033189224
6939.060070947568,0.03096610896163494,0.005472382616217749
6939.06107071949,0.03269847842187902,0.005609712542754847
6939.062070491413,0.03435347595179447,0.005747739776318596
6939.063070263335,0.0359152143009815,0.005885692899042459
6939.064070035259,0.03736912666055396,0.006022766649703246
6939.065069807181,0.03870226324091396,0.006158135356810601
6939.066069579104,0.0399035709622354,0.006290967885045797
6939.0670693510265,0.040964149147308594,0.006420443669021954
6939.068069122949,0.04187747313419815,0.006545769341621776
6939.0690688948725,0.04263957692050522,0.0066661954060824825
6939.070068666795,0.04324918583396735,0.006781032403981832
6939.071068438718,0.04370779099011191,0.006889666103664537
6939.07206821064,0.044019658822515094,0.006991571332932737
6939.073067982563,0.04419177116237908,0.007086324164586748
6939.074067754485,0.0442336941079352,0.007173612228584987
6939.075067526409,0.044157376821171025,0.007253242975687759
6939.076067298332,0.04397688384618724,0.007325149731337188
6939.077067070254,0.04370806646921805,0.007389395322793403
6939.078066842177,0.04336818041539404,0.007446172955093958
6939.079066614099,0.042975459116888555,0.007495803938835026
6939.080066386023,0.04254865392890589,0.007538731926599826
6939.081066157945,0.0421065548149439,0.007575513491870067
6939.082065929868,0.041667506687975454,0.007606805070769616
6939.083065701791,0.041248937211975194,0.00763334638211482
6939.084065473713,0.04086691128366814,0.007655940480287222
6939.085065245636,0.040535726014830194,0.007675430703617631
6939.086065017559,0.04026755830683409,0.0076926750117464774
6939.087064789482,0.040072175254710525,0.007708518476115825
6939.088064561404,0.03995671563140467,0.007723764887186837
6939.089064333327,0.03992554858621095,0.007739148545664019
6939.09006410525,0.039980213496505226,0.007755307343622506
6939.091063877173,0.040119442679558706,0.00777275821284491
6939.092063649096,0.040339266439927045,0.007791875897805951
6939.093063421018,0.04063319777575409,0.007812875813074828
6939.094063192941,0.04099249205119196,0.007835801511774501
6939.095062964863,0.04140647499306893,0.007860517055911297
6939.096062736787,0.04186293033485115,0.007886704367622758
6939.097062508709,0.04234853623502243,0.007913865490225476
6939.098062280632,0.042849337302100006,0.007941329630788542
6939.0990620525545,0.04335123678413304,0.007968264875618419
6939.100061824477,0.04384049141181533,0.007993694496873977
6939.1010615964005,0.0443041899491826,0.008016517739790533
6939.102061368323,0.04473069643238989,0.008035534892012645
6939.103061140246,0.04511004097742372,0.008049476317887192
6939.104060912168,0.0454342446635765,0.00805703499615573
6939.105060684091,0.045697569052544726,0.00805690190422573
6939.106060456013,0.045896684069123915,0.008047803330132889
6939.107060227937,0.046030750198635895,0.008028538891499177
6939.10805999986,0.046101413309096374,0.007998018773742597
6939.109059771782,0.04611271371020565,0.00795529857017541
6939.110059543705,0.046070915123612215,0.007899610208197823
6939.111059315628,0.045984263171665,0.007830387808010101
6939.112059087551,0.04586268584975154,0.007747287855477317
6939.113058859473,0.0457174496683641,0.007650203584639782
6939.114058631396,0.04556078479394322,0.007539273763728778
6939.115058403319,0.04540549120092037,0.007414886097133085
6939.116058175241,0.04526453633848341,0.007277675297423519
6939.1170579471645,0.045150653576219925,0.007128515731701042
6939.118057719087,0.0450759498002237,0.006968508544781982
6939.11905749101,0.04505152996882218,0.006798963336394508
6939.120057262932,0.045087146270553845,0.006621374760193856
6939.121057034855,0.04519087968201584,0.0064373947177694
6939.122056806778,0.04536886178379301,0.006248801041277039
6939.123056578701,0.04562504420736293,0.006057463645831145
6939.124056350624,0.04596102204609956,0.005865309116409646
6939.125056122546,0.046375916361190886,0.0056742846434315744
6939.126055894469,0.046866319836038416,0.005486322184942069
6939.127055666391,0.04742630857193786,0.005303303711211622
6939.128055438315,0.04804752165721461,0.005127028348925246
6939.129055210237,0.04871930827991202,0.004959182168472704
6939.13005498216,0.049428939824801864,0.00480131126476624
6939.1310547540825,0.05016188179050345,0.004654798687745811
6939.132054526005,0.05090211769830803,0.0045208456666626365
6939.1330542979285,0.05163251462038403,0.004400457416116542
6939.134054069851,0.05233521778192796,0.004294433623346258
6939.135053841774,0.052992060365331085,0.004203363534826571
6939.136053613696,0.05358497467917661,0.0041276254066156095
6939.137053385619,0.05409639227588591,0.004067389947441256
6939.138053157541,0.05450962271123699,0.004022627253931844
6939.139052929465,0.05480920246488997,0.003993116626023761
6939.140052701388,0.05498120660819733,0.00397845860005208
6939.14105247331,0.055013516564874465,0.003978088597923065
6939.142052245233,0.05489603872514603,0.003991291771344706
6939.143052017156,0.0546208712164751,0.0040172188528267904
6939.144051789079,0.054182419233324494,0.004054903004545122
6939.145051561001,0.053577461843402494,0.00410327771747205
6939.146051332924,0.05280517435497228,0.004161195767541526
6939.147051104847,0.05186711036392254,0.0042274491350603694
6939.148050876769,0.05076714745039949,0.004300789677047593
6939.1490506486925,0.04951140086403452,0.004379950222128108
6939.150050420615,0.04810811017780065,0.004463665644168726
6939.151050192538,0.04656750411279733,0.004550693380740948
6939.15204996446,0.044901648379839454,0.004639832800671539
6939.153049736383,0.04312428088915078,0.004729942784883791
6939.154049508306,0.04125063837048015,0.004819956880074553
6939.155049280229,0.0392972781585422,0.004908895456249332
6939.156049052152,0.03728189829196619,0.004995874470863725
6939.157048824074,0.03522315806957801,0.0050801106910797885
6939.158048595997,0.033140500068142856,0.00516092350153957
6939.159048367919,0.031053973674237113,0.005237733674853734
6939.160048139843,0.02898405954475311,0.005310059658068007
6939.161047911765,0.026951494057436538,0.005377512011976518
6939.162047683688,0.02497709275277046,0.0054397866527567795
6939.1630474556105,0.023081572056869195,0.005496657517064431
6939.164047227534,0.021285369138377107,0.005547969208477184
6939.1650469994565,0.01960846031945293,0.005593630071457257
6939.166046771379,0.018070178776741535,0.005633605967704612
6939.167046543302,0.01668903233619223,0.0056679148071096044
6939.168046315224,0.015482522163659466,0.005696621657371098
6939.169046087147,0.014466963167072166,0.005719834117455534
6939.17004585907,0.013657306911604536,0.005737697680356518
6939.171045630993,0.013066967802317317,0.00575039100214106
6939.172045402916,0.012707653295487028,0.0057581211757624946
6939.173045174838,0.012589199024602956,0.0057611191440767855
6939.174044946761,0.012719409937350257,0.0057596353021954145
6939.175044718684,0.013103908787166389,0.005753935248203285
6939.176044490607,0.013745993666735342,0.005744295594702436
6939.177044262529,0.014646506833357222,0.005730999730051858
6939.178044034452,0.01580371786791918,0.00571433341601857
6939.179043806375,0.017213225085547422,0.0056945801594705985
6939.180043578297,0.0188678798846577,0.005672016393940367
6939.1810433502205,0.02075773921344064,0.005646906605773306
6939.182043122143,0.02287005142310578,0.005619498626083945
6939.183042894066,0.025189280426167183,0.005590019416015217
6939.184042665988,0.027697172355634965,0.005558671798179776
6939.185042437911,0.030372867951586842,0.005525632661878076
6939.186042209834,0.03319306278113896,0.005491053123028168
6939.187041981757,0.03613221616241985,0.0054550609520213345
6939.18804175368,0.03916280831313936,0.005417765349461603
6939.189041525602,0.04225564376173741,0.00537926390587051
6939.190041297525,0.045380197414140865,0.00533965136419734
6939.191041069447,0.04850499789063803,0.005299029644358334
6939.192040841371,0.05159804103368113,0.005257518514807869
6939.193040613293,0.05462722516356113,0.005215266327344748
6939.194040385216,0.05756079889931717,0.005172460356711307
6939.1950401571385,0.06036781197592024,0.005129336429392278
6939.196039929062,0.06301855910520943,0.005086187579135707
6939.1970397009845,0.06548500647337693,0.005043371399028206
6939.198039472907,0.0677411904033782,0.005001315661255998
6939.19903924483,0.06976357856433069,0.004960521771509517
6939.200039016752,0.0715313857174802,0.004921565753409952
6939.201038788675,0.07302683766295587,0.004885096639024769
6939.202038560598,0.07423537865261247,0.004851832272316908
6939.203038332521,0.07514581972326723,0.004822552597450964
6939.204038104444,0.07575042860499133,0.0047980905588621255
6939.205037876366,0.07604496547122491,0.004779320817496324
6939.206037648289,0.07602867159015624,0.004767146569433835
6939.207037420212,0.07570421893952026,0.0047624848214904035
6939.208037192135,0.075077627849029,0.004766250540521648
6939.209036964057,0.07415815717706696,0.004779340151639874
6939.21003673598,0.07295816823081816,0.004802614899681368
6939.211036507903,0.07149296073779585,0.004836884595801056
6939.212036279825,0.06978057791901181,0.004882892246472312
6939.2130360517485,0.06784157872082659,0.004941300004492995
6939.214035823671,0.06569877785436448,0.0050126767931528765
6939.215035595594,0.06337695685670008,0.005097487848039222
6939.216035367516,0.06090255070586244,0.005196086301872768
6939.217035139439,0.05830331469558368,0.005308706797395
6939.218034911362,0.055607976230209556,0.005435460951258547
6939.219034683285,0.052845876470802175,0.005576334330377521
6939.220034455208,0.050046607154700884,0.0057311844822532385
6939.22103422713,0.04723964814870043,0.005899739544648125
6939.222033999053,0.044454011421709204,0.006081597103025463
6939.223033770975,0.04171789715903362,0.0062762232399541885
6939.224033542899,0.03905836746313343,0.006482952002078341
6939.225033314821,0.036501042386119696,0.006700985661555919
6939.226033086744,0.03406982223353466,0.0069293961218843516
6939.2270328586665,0.03178663961468948,0.007167127662591642
6939.22803263059,0.02967124469795953,0.007413001043702482
6939.2290324025125,0.027741027258730146,0.007665718927456791
6939.230032174435,0.0260108789922454,0.007923872702801586
6939.231031946358,0.024493099044762337,0.00818595107618303
6939.23203171828,0.02319734490705102,0.00845035105385343
6939.233031490203,0.022130629878402933,0.00871539201275635
6939.234031262126,0.021297367289661546,0.008979333389502126
6939.235031034049,0.020699460555565166,0.009240396185729628
6939.236030805972,0.020336436962149394,0.009496788093566617
6939.237030577894,0.020205621991145225,0.00974673165834826
6939.238030349817,0.02030235000370233,0.009988494584000591
6939.23903012174,0.02062020622191132,0.010220421107501146
6939.240029893663,0.0211512941015153,0.010440963312712609
6939.241029665585,0.0218865214280954,0.010648711242755996
6939.242029437508,0.022815897984447008,0.010842420658102358
6939.243029209431,0.023928837597289393,0.011021037316227715
6939.244028981353,0.02521445766304979,0.011183716774582374
6939.2450287532765,0.026661869489193503,0.011329838955997743
6939.246028525199,0.028260452640438763,0.01145901705985014
6939.247028297122,0.030000105910513115,0.011571100802699033
6939.248028069044,0.031871466732105634,0.011666174293674588
6939.249027840968,0.03386609007799886,0.011744548997317089
6939.25002761289,0.035976577614431474,0.011806752292010655
6939.251027384813,0.03819664851896827,0.011853512241913581
6939.252027156736,0.04052114508979426,0.011885739367954177
6939.253026928658,0.04294596857663579,0.011904506302769622
6939.254026700581,0.04546794307510178,0.011911026156683092
6939.255026472504,0.048084608066445045,0.011906630220431827
6939.256026244427,0.05079394374902113,0.011892745337712474
6939.257026016349,0.0535940374705777,0.011870870949394173
6939.258025788272,0.056482703445962124,0.011842555532160464
6939.2590255601945,0.05945707101530989,0.011809372056163595
6939.260025332118,0.06251315915334561,0.011772892219074476
6939.2610251040405,0.06564545689528345,0.01173465946102792
6939.262024875963,0.06884653037989868,0.011696160971451637
6939.263024647886,0.07210667696159163,0.011658799071160365
6939.264024419808,0.07541364546193449,0.01162386261082891
6939.265024191731,0.0787524394124367,0.01159249936875263
6939.266023963654,0.08210521721335332,0.011565690683186178
6939.267023735577,0.08545129968183068,0.011544229557681114
6939.2680235075,0.08876729180282113,0.011528703224441971
6939.269023279422,0.09202732179605591,0.01151948075297749
6939.270023051345,0.0952033967890375,0.011516705889921697
6939.271022823268,0.09826587031258208,0.01152029500336819
6939.272022595191,0.1011840124648544,0.011529939783218895
6939.273022367113,0.10392666888906114,0.01154511418058237
6939.274022139036,0.10646298965920811,0.011565084972367112
6939.275021910959,0.10876320388013959,0.01158892536384825
6939.276021682881,0.11079941065124367,0.011615531166414247
6939.2770214548045,0.11254635284788551,0.011643639205032386
6939.278021226727,0.11398213841648377,0.011671847674581522
6939.27902099865,0.11508887613487968,0.011698638265035085
6939.280020770572,0.11585319916209347,0.011722400112471843
6939.281020542496,0.11626665781628966,0.011741455948134229
6939.282020314418,0.11632596968613436,0.01175409101915838
6939.283020086341,0.1160331195047567,0.011758585293654544
6939.284019858264,0.11539530524707409,0.0117532491376426
6939.285019630186,0.11442473296346796,0.01173646216677171
6939.286019402109,0.11313827100908974,0.011706714467217973
6939.287019174032,0.11155698257713727,0.011662648964857709
6939.288018945955,0.10970556145725543,0.011603103453122989
6939.289018717877,0.10761169838229073,0.01152715063109931
6939.2900184898,0.10530540430934687,0.01143413438988957
6939.2910182617225,0.10281831375588266,0.01132370053357205
6939.292018033646,0.10018298744948669,0.011195820228929121
6939.2930178055685,0.09743223014172679,0.011050804802809032
6939.294017577491,0.09459843691105994,0.010889310999620415
6939.295017349414,0.09171297970468756,0.010712336386893413
6939.296017121336,0.08880564508061653,0.010521205179986193
6939.297016893259,0.08590413360680238,0.010317545247430455
6939.298016665182,0.08303363049004624,0.010103257333954332
6939.299016437105,0.08021645541580563,0.009880477573669584
6939.300016209028,0.07747179748761977,0.009651534291228963
6939.30101598095,0.0748155389138927,0.009418900066833154
6939.302015752873,0.07226016878150036,0.009185140128004888
6939.303015524796,0.06981478578999559,0.008952858282032364
6939.304015296719,0.06748518624012713,0.00872464174596785
6939.305015068641,0.06527403102524632,0.008503006312279635
6939.306014840564,0.0631810829717738,0.008290343299437276
6939.307014612487,0.06120350383080934,0.008088869703113311
6939.30801438441,0.05933619899771715,0.007900582885506059
6939.3090141563325,0.05757219794961461,0.007727220986431949
6939.310013928255,0.0559030590643538,0.007570230010648107
6939.311013700178,0.054319288009881665,0.007430738289760469
6939.3120134721,0.05281075876853091,0.00730953878017874
6939.313013244024,0.05136712608986047,0.007207079453305214
6939.314013015946,0.049978218626809304,0.007123461851143996
6939.315012787869,0.04863440334956897,0.007058447706621466
6939.316012559792,0.047326913451668784,0.007011473349025579
6939.317012331714,0.046048133536059015,0.006981671415402215
6939.318012103637,0.04479183767486883,0.006967899166262569
6939.31901187556,0.043553378121134766,0.006968772489566822
6939.320011647483,0.04232982456595101,0.006982704528617355
6939.321011419405,0.04112005528440812,0.0070079478344148025
6939.322011191328,0.03992480223116893,0.007042639019670822
6939.32301096325,0.03874665270072112,0.007084845031348577
6939.324010735174,0.03759001111394375,0.007132610298050835
6939.3250105070965,0.03646102571541944,0.007184004085327339
6939.326010279019,0.03536748585993202,0.007237167350398072
6939.327010050942,0.03431869570200857,0.007290358218193616
6939.328009822864,0.033325329497240444,0.007341994973435734
6939.329009594787,0.032399272679314695,0.007390695289833607
6939.33000936671,0.03155345175387553,0.007435310370818054
6939.331009138633,0.030801655114790737,0.007474952779170964
6939.332008910556,0.03015834624082566,0.007509017006372103
6939.333008682478,0.02963847030819953,0.007537192274687622
6939.334008454402,0.02925725485770276,0.007559467558216259
6939.335008226324,0.029030004609692073,0.007576129158491484
6939.336007998247,0.028971889933843132,0.00758775129808452
6939.337007770169,0.02909772821624806,0.007595180206951666
6939.338007542092,0.02942175761915265,0.007599512195243552
6939.339007314014,0.029957403213661898,0.007602066256724704
6939.340007085938,0.03071703567410084,0.007604351818576612
6939.3410068578605,0.031711722466926315,0.007608032356019107
6939.342006629783,0.032950971136449396,0.007614885699271636
6939.343006401706,0.034442464615386484,0.007626761900307642
6939.344006173628,0.03619178995253741,0.007645539440936713
6939.345005945552,0.03820216413969486,0.007673080368611274
6939.346005717474,0.04047416290909953,0.007711184723558769
6939.347005489397,0.04300545985972132,0.0077615444727858005
6939.34800526132,0.045790584304301815,0.00782569717940711
6939.349005033242,0.04882070727952945,0.007904979854962812
6939.350004805165,0.052083466104032625,0.008000483820056364
6939.351004577088,0.05556283812035591,0.00811301177079419
6939.352004349011,0.05923907347067275,0.008243038447028868
6939.353004120933,0.06308869508342126,0.008390676286881098
6939.354003892856,0.06708457192126234,0.008555647307385322
6939.355003664778,0.07119606943944515,0.008737262266861811
6939.356003436702,0.07538927946325269,0.008934408005432519
6939.3570032086245,0.07962733030338466,0.009145543737347848
6939.358002980547,0.08387077658513838,0.009368706937714645
6939.35900275247,0.08807806670953096,0.009601529288338347
6939.360002524392,0.09220608402072535,0.0098412629322155
6939.361002296315,0.09621075558855122,0.010084817041655017
6939.362002068238,0.10004772006968757,0.010328804399749814
6939.363001840161,0.10367304369767025,0.010569597312143913
6939.364001612084,0.10704397134643337,0.010803391760234312
6939.365001384006,0.11011969756271132,0.011026278377612185
6939.36600115593,0.11286213999061505,0.011234318652646878
6939.367000927852,0.11523669479082871,0.011423624732776074
6939.368000699775,0.11721295120950781,0.011590441255446044
6939.369000471697,0.11876534125710854,0.01173122764333981
6939.37000024362,0.11987370126805909,0.0118427391856641
6939.371000015542,0.12052372523309846,0.011922104969117523
6939.371999787466,0.1207072944581377,0.011966900415488653
6939.3729995593885,0.12042267265137424,0.011975211996400736
6939.373999331311,0.11967455902964355,0.011945691770196332
6939.374999103234,0.11847399541753745,0.011877599743105672
6939.375998875156,0.11683812834141506,0.011770832608250723
6939.37699864708,0.11478983420436902,0.011625938029069617
6939.377998419002,0.112357223243147,0.011444114185621938
6939.378998190925,0.10957304387740166,0.011227194737037505
6939.379997962848,0.10647401175202875,0.010977619714240919
6939.38099773477,0.10310008720300662,0.010698393224829527
6939.381997506693,0.09949372236850504,0.010393029254613745
6939.382997278616,0.09569909641964142,0.010065487250982181
6939.383997050539,0.09176135533296004,0.009720099508155323
6939.384996822461,0.08772587115822413,0.009361492579472563
6939.385996594384,0.08363753426508419,0.008994504981324177
6939.386996366307,0.07954009017313982,0.008624103345214434
6939.38799613823,0.07547553035570972,0.008255298973376813
6939.3889959101525,0.07148354432022458,0.007893066512816493
6939.389995682075,0.06760103874847725,0.007542266219519943
6939.390995453998,0.06386172855025514,0.007207571053275127
6939.39199522592,0.06029580392749804,0.006893399613906342
6939.392994997844,0.056929676503336885,0.006603855685277394
6939.393994769766,0.05378580617392703,0.006342674887724794
6939.394994541689,0.05088260886807542,0.0061131786574448906
6939.395994313612,0.04823444399862553,0.005918235503964895
6939.396994085534,0.04585167889010436,0.005760229311073491
6939.397993857458,0.043740825703477974,0.005641034395855512
6939.39899362938,0.04190474446610401,0.0055619971057099555
6939.399993401303,0.04034290404073474,0.005523923843534576
6939.400993173225,0.03905169142431877,0.005527075503271887
6939.401992945148,0.03802475863544069,0.005571168330861288
6939.40299271707,0.03725339558882221,0.005655381177509344
6939.403992488994,0.036726917011239285,0.005778368996900526
6939.4049922609165,0.036433052037302766,0.005938282310380792
6939.405992032839,0.03635832663194847,0.00613279229332845
6939.406991804762,0.036488430736268375,0.006359121162452901
6939.407991576684,0.03680856320163325,0.006614077648587845
6939.408991348608,0.03730374790467163,0.006894097453080157
6939.40999112053,0.03795911427643948,0.007195288633779143
6939.410990892453,0.038760135364460144,0.0075134818139957395
6939.411990664376,0.03969281694247715,0.007844284970659587
6939.412990436298,0.040743832468640266,0.00818314237952601
6939.413990208221,0.04190060097322959,0.008525397109229818
6939.414989980144,0.0431513078439739,0.008866356264400603
6939.415989752067,0.0444848712388067,0.00920135796857117
6939.416989523989,0.04589085892397169,0.009525838876121528
6939.417989295912,0.04735936177540044,0.009835400891218789
6939.418989067835,0.0488808316080473,0.010125875808731075
6939.419988839758,0.050445892851040314,0.010393386717271545
6939.4209886116805,0.05204513956795061,0.010634405076951124
6939.421988383603,0.05366893071445967,0.010845802333121728
6939.422988155526,0.05530719689225176,0.011024894839510553
6939.423987927448,0.056949271221414105,0.011169480901955204
6939.424987699372,0.058583755556475825,0.011277868992060732
6939.425987471294,0.06019843144322972,0.011348896541092744
6939.426987243217,0.06178022329628599,0.01138193907447238
6939.42798701514,0.06331521943893144,0.011376909724786785
6939.428986787062,0.06478875478670677,0.011334249376417712
6939.429986558986,0.06618555680545891,0.011254907841349991
6939.430986330908,0.06748995369578516,0.011140316526460496
6939.431986102831,0.06868614051637449,0.010992353087428656
6939.432985874753,0.06975849531812169,0.010813298694653006
6939.433985646676,0.07069193351774992,0.01060578882369078
6939.434985418598,0.07147228496610386,0.010372758865902214
6939.435985190522,0.07208667511902575,0.010117386196717506
6939.4369849624445,0.07252389054472659,0.009843030508103482
6939.437984734367,0.07277471062990085,0.009553174150707385
6939.43898450629,0.07283219134121409,0.009251363975664357
6939.439984278212,0.072691891399879,0.008941155803835274
6939.440984050136,0.07235203454404007,0.008626062266196043
6939.441983822058,0.07181360357528485,0.008309504428047053
6939.442983593981,0.07108036365118897,0.007994767400357617
6939.443983365904,0.07015881465578062,0.007684960074751027
6939.444983137826,0.0690580754738429,0.007382979141704212
6939.445982909749,0.06778970591313736,0.007091477594704696
6939.446982681672,0.06636747402008948,0.006812837955905825
6939.447982453595,0.06480707742843832,0.006549150475794695
6939.448982225517,0.06312582779238973,0.006302196561699982
6939.44998199744,0.0613423078845218,0.006073437685216912
6939.450981769363,0.05947601145809717,0.005864009990455147
6939.451981541286,0.05754697602675989,0.005674724727326536
6939.4529813132085,0.05557541814566749,0.005506074452035087
6939.453981085131,0.05358137967870037,0.005358244711927865
6939.454980857054,0.05158439204515492,0.005231130713909635
6939.455980628976,0.04960316386454368,0.00512435829370374
6939.4569804009,0.04765529618362213,0.005037308370042974
6939.457980172822,0.04575702875766269,0.004969143981052543
6939.458979944745,0.043923020464321644,0.0049188389562095656
6939.459979716668,0.042166166459466484,0.004885207283248586
6939.46097948859,0.040497453876139226,0.004866932288614143
6939.4619792605135,0.03892585686389284,0.004862594875094903
6939.462979032436,0.03745827104463262,0.00487070028643061
6939.463978804359,0.036099487319934294,0.004889703183000846
6939.464978576281,0.034852205148551335,0.004918031100224096
6939.465978348204,0.033717085377189523,0.004954106499664645
6939.466978120126,0.03269284213131464,0.004996367601464501
6939.46797789205,0.03177637222510282,0.0050432880916351655
6939.4689776639725,0.030962919291573982,0.00509339571626724
6939.469977435895,0.03024626858021173,0.0051452897369544965
6939.470977207818,0.029618967203910013,0.005197657206046135
6939.471976979741,0.02907256354526641,0.005249287989640244
6939.472976751664,0.028597858615398427,0.005299088400381661
6939.473976523586,0.028185161656381894,0.005346093217932104
6939.474976295509,0.027824542607797053,0.0053894758239494975
6939.475976067432,0.02750607541762915,0.005428556201391494
6939.476975839354,0.0272200681465457,0.005462806623833498
6939.4779756112775,0.02695727754376493,0.005491854924617437
6939.4789753832,0.026709106698649544,0.0055154852511548145
6939.479975155123,0.02646778454555943,0.005533636198699451
6939.480974927045,0.026226525730411385,0.005546396228681965
6939.481974698968,0.02597966883927584,0.00555399633824837
6939.482974470891,0.02572279040605627,0.00555680004695098
6939.483974242814,0.025452791800665973,0.0055552908632313346
6939.4849740147365,0.025167956502789766,0.005550057467969204
6939.485973786659,0.024867976573881335,0.0055417769303106905
6939.486973558582,0.024553949023364986,0.005531196376595114
6939.487973330504,0.02422834457090235,0.0055191136364145165
6939.488973102428,0.023894952475972644,0.005506357424615009
6939.48997287435,0.023558805448109423,0.005493767545387374
6939.490972646273,0.023226088320215423,0.00548217545003162
6939.491972418196,0.022904033455181425,0.005472385322746123
6939.492972190118,0.02260080501052216,0.005465155792980195
6939.4939719620415,0.02232537336150662,0.005461182415602662
6939.494971733964,0.022087380272523206,0.005461081198697251
6939.495971505887,0.02189699487182211,0.0054653736318643386
6939.496971277809,0.02176476017463728,0.005474473802184232
6939.497971049732,0.021701429866883427,0.005488678226540072
6939.498970821654,0.0217177953924823,0.005508158966850028
6939.499970593578,0.021824504166804395,0.0055329604489613785
6939.5009703655005,0.022031870885129902,0.005563000203503422
6939.501970137423,0.022349685050500626,0.00559807352029065
6939.502969909346,0.02278701860620523,0.005637861790909494
6939.503969681269,0.023352037838389416,0.005681944120653814
6939.504969453192,0.024051823704570298,0.00572981161092252
6939.505969225114,0.0248922045552985,0.005780883542101779
6939.506968997037,0.025877604798106062,0.005834524558130597
6939.50796876896,0.02701091241080439,0.0058900619371031835
6939.508968540882,0.02829336748202246,0.005946802184230277
6939.5099683128055,0.02972447328454684,0.006004046481827038
6939.510968084728,0.031301930857517014,0.006061104856879485
6939.511967856651,0.03302159773242885,0.006117309137277327
6939.512967628573,0.034877471248482894,0.00617202480259636
6939.513967400496,0.036861696684587775,0.006224661743961751
6939.514967172419,0.038964599957352686,0.006274683824945633
6939.515966944342,0.04117474386027678,0.006321617065380074
6939.5169667162645,0.04347900602237395,0.006365056310082681
6939.517966488187,0.04586267629169333,0.006404670399587189
6939.51896626011,0.04830957120296006,0.0064402060547053795
6939.519966032032,0.05080216350026979,0.006471490803558404
6939.520965803956,0.053321725430188344,0.006498435243374607
6939.521965575878,0.055848485822701674,0.006521034753405571
6939.522965347801,0.05836180254672297,0.006539370545246078
6939.523965119724,0.060840353012228926,0.006553609761621798
6939.524964891647,0.06326234537488745,0.006564004288443885
6939.5259646635695,0.06560575201221727,0.006570888033658264
6939.526964435492,0.06784856522731289,0.006574672603564997
6939.527964207415,0.06996907353149194,0.006575841496622838
6939.528963979337,0.07194615552910243,0.006574943052124155
6939.52996375126,0.07375958754064255,0.006572582396386893
6939.530963523183,0.0753903607474594,0.006569412549506285
6939.531963295106,0.07682100353757576,0.006566124738950579
6939.5329630670285,0.07803590423244244,0.006563437856692228
6939.533962838951,0.07902162810185764,0.006562086957724697
6939.534962610874,0.07976722089886826,0.00656281077933538
6939.535962382797,0.08026448989991025,0.0065663384289768225
6939.53696215472,0.08050825312859446,0.006573375549021098
6939.537961926642,0.08049654770821423,0.0065845903529209385
6939.538961698565,0.08023078824688631,0.006600599937959615
6939.539961470488,0.07971586561420116,0.006621957251987575
6939.54096124241,0.07896017658834929,0.006649139074983385
6939.5419610143335,0.07797557699477489,0.006682535400097988
6939.542960786256,0.07677725478623355,0.006722440630985557
6939.543960558179,0.07538352330600306,0.006769046985969282
6939.544960330101,0.07381553796103509,0.006822440396969578
6939.545960102024,0.07209694263367115,0.0068825990546933025
6939.546959873947,0.07025345609061118,0.006949394615111706
6939.54795964587,0.06831241251577996,0.00702259594174452
6939.5489594177925,0.06630227257200634,0.007101875101589444
6939.549959189715,0.06425212145776972,0.007186815162676587
6939.550958961638,0.06219116874088363,0.007276919193481915
6939.55195873356,0.06014826212371833,0.007371619815585051
6939.552958505484,0.058151424366618944,0.00747028877516787
6939.553958277406,0.05622741985811056,0.007572246233769431
6939.554958049329,0.05440135521469787,0.007676769680012806
6939.555957821252,0.052696317215599,0.007783102393885713
6939.556957593175,0.051133051441955894,0.007890461257191872
6939.5579573650975,0.04972968571830587,0.007998043534235156
6939.55895713702,0.048501502960483216,0.00810503220627062
6939.559956908943,0.04746076768346746,0.008210599614027262
6939.560956680865,0.046616609239575,0.008313909506586729
6939.561956452788,0.04597496330622926,0.00841411798578815
6939.562956224711,0.045538571612744425,0.008510374132717132
6939.563955996634,0.04530703841123174,0.008601821211214444
6939.5649557685565,0.045276940560791866,0.008687599246814616
6939.565955540479,0.04544198625660022,0.008766849551944211
6939.566955312402,0.045793215714645064,0.008838721523657075
6939.567955084325,0.046319236028957496,0.008902381844175977
6939.568954856248,0.047006482157649764,0.008957026042886625
6939.56995462817,0.04783949623510358,0.009001892168336129
6939.570954400093,0.048801217756567795,0.009036276070492922
6939.571954172016,0.049873277735343155,0.00905954761499159
6939.572953943938,0.051036291014662345,0.00907116715870661
6939.5739537158615,0.05227014239478578,0.009070701784089814
6939.574953487784,0.05355426346413039,0.009057840951751028
6939.575953259707,0.05486789746478932,0.00903241123837958
6939.576953031629,0.056190349303754245,0.008994389664283007
6939.577952803552,0.05750121768520739,0.008943914881698989
6939.578952575475,0.058780607048157525,0.008881295346364003
6939.579952347398,0.060009318614924236,0.008807013663424408
6939.5809521193205,0.06116902157316967,0.008721726597844983
6939.581951891243,0.0622424062101462,0.008626260639943758
6939.582951663166,0.06321332046542151,0.008521603355977262
6939.583951435088,0.06406689063345171,0.008408890950304865
6939.584951207012,0.06478962676703216,0.008289392525687245
6939.585950978934,0.06536951393160607,0.00816449150203731
6939.586950750857,0.06579609127190568,0.008035664613212692
6939.58795052278,0.06606052107914756,0.007904458908274448
6939.588950294703,0.06615564923824936,0.007772467250239038
6939.5899500666255,0.06607605683321058,0.007641302902107582
6939.590949838548,0.06581810126392354,0.007512573883947336
6939.591949610471,0.06537994505337694,0.007387857843953194
6939.592949382393,0.06476157170998074,0.007268678169509301
6939.593949154316,0.06396478943775731,0.007156481946226177
6939.594948926239,0.06299322397278019,0.007052620175848743
6939.595948698162,0.061852301325253746,0.00695833044435868
6939.5969484700845,0.06054922055872752,0.006874722037019494
6939.597948242007,0.05909291649383411,0.006802763348236706
6939.59894801393,0.05749401223041998,0.006743271353307095
6939.599947785853,0.05576476133213108,0.0066969029296585145
6939.600947557776,0.053918979350324206,0.0066641479336182075
6939.601947329698,0.051971964060005024,0.006645324094834366
6939.602947101621,0.049940403275954004,0.006640573914553735
6939.603946873544,0.047842268608280066,0.0066498638013330474
6939.604946645466,0.045696693424496095,0.006672985626514351
6939.6059464173895,0.043523833705309774,0.006709560741176919
6939.606946189312,0.04134471097691951,0.006759046312899135
6939.607945961235,0.03918103665156766,0.006820743677106341
6939.608945733157,0.03705501710354669,0.006893808306452864
6939.609945505081,0.03498913930287321,0.006977261003044728
6939.610945277003,0.0330059381187243,0.007069999988192664
6939.611945048926,0.031127747958892813,0.00717081366589783
6939.6129448208485,0.02937644244674906,0.007278393966037428
6939.613944592771,0.027773166177699846,0.007391350331609716
6939.614944364694,0.02633806266202147,0.007508224547456324
6939.615944136617,0.025090002681055955,0.007627506653140959
6939.61694390854,0.02404631740177292,0.0077476521553334
6939.617943680462,0.02322254056082701,0.00786710071390173
6939.618943452385,0.02263216387072992,0.007984296425614261
6939.619943224308,0.02228640965343197,0.00809770972155168
6939.620942996231,0.02219402463217346,0.008205860703204865
6939.6219427681535,0.0223610987303401,0.008307343491466026
6939.622942540076,0.022790912492036283,0.008400850901313067
6939.623942311999,0.023483816276947,0.00848519853312887
6939.624942083921,0.02443714373122948,0.00855934721585406
6939.625941855844,0.02564516131952887,0.00862242265421111
6939.626941627767,0.027099055100590644,0.00867373117029675
6939.62794139969,0.02878695561522835,0.008712770684389142
6939.6289411716125,0.03069400180246782,0.008739236556324009
6939.629940943535,0.03280244520057976,0.008753022428044878
6939.630940715458,0.03509179610992458,0.008754216547865127
6939.631940487381,0.03753901353785093,0.008743094168840613
6939.632940259304,0.040118740281892065,0.00872010662978436
6939.633940031226,0.04280358339971792,0.008685867777858644
6939.634939803149,0.045564438868917936,0.008641138472961262
6939.635939575072,0.04837085783100928,0.008586809934331283
6939.636939346994,0.051191450559382075,0.008523886589057705
6939.6379391189175,0.05399432298587543,0.008453468886985418
6939.63893889084,0.056747538963759524,0.008376736334427478
6939.639938662763,0.05941959932516374,0.008294930833240633
6939.640938434685,0.061979926470070036,0.008209340301686196
6939.641938206609,0.06439934139199638,0.00812128247959131
6939.642937978531,0.0666505195665157,0.00803208880103588
6939.643937750454,0.06870841333509933,0.007943088310267046
6939.6449375223765,0.07055063059046507,0.007855591795157725
6939.645937294299,0.07215776142235525,0.00777087650235142
6939.646937066222,0.0735136451410546,0.007690171865696803
6939.647936838145,0.07460557013315308,0.007614646618287617
6939.648936610068,0.0754243996041813,0.007545397526797579
6939.64993638199,0.07596461867297358,0.007483439820429087
6939.650936153913,0.07622430265331545,0.007429699191115048
6939.651935925836,0.0762050115363409,0.007385005035823229
6939.652935697759,0.0759116200327892,0.007350084443324046
6939.6539354696815,0.07535209492047804,0.007325556345363939
6939.654935241604,0.07453723183705044,0.00731192528949609
6939.655935013527,0.07348036307038877,0.007309574464373457
6939.656934785449,0.07219704746642708,0.007318757882479444
6939.657934557372,0.07070475346984147,0.007339591894013905
6939.658934329295,0.0690225458146159,0.007372046377202391
6939.659934101218,0.06717078494673666,0.007415936042891262
6939.6609338731405,0.06517084606294399,0.007470912384978019
6939.661933645063,0.06304486215442522,0.007536456918965454
6939.662933416986,0.06081549304539965,0.007611876415932855
6939.663933188909,0.058505720470561004,0.0076963008149923086
6939.664932960832,0.05613866792967008,0.007788684412141793
6939.665932732754,0.05373744315394265,0.007887810826119621
6939.666932504677,0.05132500011463031,0.007992302135034646
6939.6679322766,0.048924016568191224,0.008100632422415146
6939.668932048523,0.046556782461197085,0.008211145755651668
6939.6699318204455,0.044245094239690294,0.008322078405831232
6939.670931592368,0.042010150107779344,0.008431584998402132
6939.671931364291,0.03987244157450982,0.008537768278831995
6939.672931136213,0.03785163736603977,0.008638712192082244
6939.673930908137,0.03596645681475223,0.008732517881778664
6939.674930680059,0.034234530783527256,0.008817341972524402
6939.675930451982,0.03267224906967766,0.008891436185057998
6939.6769302239045,0.031294594577604314,0.008953187073831243
6939.677929995827,0.03011496658033258,0.00900115454429972
6939.67892976775,0.02914499758444168,0.009034107789904707
6939.679929539673,0.028394369867147776,0.00905105732272474
6939.680929311596,0.02787063829351447,0.009051281816499984
6939.681929083518,0.027579065775219014,0.009034348570461837
6939.682928855441,0.027522477137864182,0.009000126622301423
6939.683928627364,0.027701136455877174,0.008948791941744165
6939.684928399287,0.028112652163340832,0.008880824664658483
6939.6859281712095,0.028751913603526368,0.008796998807688718
6939.686927943132,0.02961106228468078,0.008698365165332988
6939.687927715055,0.030679500833952874,0.008586228121164741
6939.688927486977,0.03194394215006899,0.008462117048137048
6939.6899272589,0.03338850040569653,0.008327752997691914
6939.690927030823,0.03499482455071564,0.008185011549714207
6939.691926802746,0.03674227409560751,0.008035882938874746
6939.6929265746685,0.03860813623589875,0.007882430735181344
6939.693926346591,0.040567882597011704,0.007726750356501816
6939.694926118515,0.04259546282807941,0.007570928585142476
6939.695925890437,0.044663630965651485,0.007417005145125759
6939.69692566236,0.04674429917573444,0.007266937297098124
6939.697925434282,0.04880891251545339,0.007122568285794
6939.698925206205,0.05082883794452605,0.006985600290721175
6939.699924978128,0.05277576087097724,0.006857572279292497
6939.700924750051,0.0546220827685023,0.006739842877029447
6939.7019245219735,0.0563413136966457,0.006633578104641904
6939.702924293896,0.057908453857309646,0.006539743631915994
6939.703924065819,0.05930035850313272,0.006459101081737671
6939.704923837741,0.060496080378957956,0.006392207864967084
6939.705923609665,0.06147718342900442,0.006339420000829115
6939.706923381587,0.062228020986243776,0.006300897373687644
6939.70792315351,0.06273597135430367,0.0062766109290136405
6939.7089229254325,0.06299162372158155,0.006266351418183691
6939.709922697355,0.06298890778933579,0.0062697393928799975
6939.710922469278,0.06272516166828838,0.006286236158368306
6939.711922241201,0.06220113494184477,0.0063151553465136834
6939.712922013124,0.06142092724480131,0.006355674778517081
6939.713921785046,0.06039186638099613,0.0064068484526156174
6939.714921556969,0.05912433267294659,0.006467618780057772
6939.715921328891,0.05763153719898284,0.006536829448014535
6939.716921100815,0.05592926120196479,0.006613239375396068
6939.7179208727375,0.05403556333098641,0.006695538130741369
6939.71892064466,0.051970461301740836,0.006782362969998009
6939.719920416583,0.04975559503679746,0.0068723174121694715
6939.720920188505,0.047413878959089585,0.006963991063150551
6939.721919960428,0.044969151540095786,0.007055980237338951
6939.722919732351,0.04244583032258189,0.007146908806932873
6939.723919504274,0.03986858039673175,0.007235448643235189
6939.7249192761965,0.03726200366397883,0.007320339022591132
6939.725919048119,0.03465035514077087,0.007400404457776938
6939.726918820043,0.03205729107465308,0.007474570575477876
6939.727918591965,0.029505651936600964,0.0075418778349734435
6939.728918363888,0.02701728165443278,0.007601492963484621
6939.72991813581,0.024612882948271943,0.00765271792603665
6939.730917907733,0.022311907410527496,0.00769499616421372
6939.731917679655,0.020132478045385684,0.007727915899830127
6939.732917451579,0.01809134127131726,0.007751210559939645
6939.7339172235015,0.016203844782493423,0.007764756720396833
6939.734916995424,0.014483937085742863,0.007768570206115526
6939.735916767347,0.012944183959606895,0.007762801039320724
6939.736916539269,0.01159579654711619,0.007747727838991426
6939.737916311193,0.010448665382035793,0.007723752135312156
6939.738916083115,0.00951139454043936,0.00769139291699134
6939.739915855038,0.008791330567670879,0.0076512815789354606
6939.7409156269605,0.008294582037241503,0.007604157275993793
6939.741915398883,0.008026027388852055,0.007550862500977084
6939.742915170806,0.007989310527537565,0.007492338483287139
6939.743914942729,0.008186824998806564,0.00742961979731644
6939.744914714652,0.008619688225131839,0.007363827493132226
6939.745914486574,0.009287707529226955,0.00729616019969704
6939.746914258497,0.010189339812347044,0.007227882935719744
6939.74791403042,0.011321646984914547,0.007160313598701015
6939.748913802343,0.012680249551404019,0.007094807139194445
6939.7499135742655,0.014259281046566975,0.007032737305328514
6939.750913346188,0.01605134627822917,0.006975475756707527
6939.751913118111,0.018047486572887163,0.006924368479130306
6939.752912890033,0.020237155396740644,0.006880709798419627
6939.753912661957,0.02260820768985487,0.006845714727127765
6939.754912433879,0.025146905878387853,0.006820490677195472
6939.755912205802,0.027837944879838726,0.006806009652627581
6939.7569119777245,0.030664497773135083,0.006803081959846917
6939.757911749647,0.033608283445223736,0.0068123323409323994
6939.758911521571,0.03664965740342834,0.006834179302803777
6939.759911293493,0.039767726758693944,0.006868818294417656
6939.760911065416,0.04294049000634474,0.006916209269139544
6939.761910837338,0.04614500181901279,0.006976069052946618
6939.762910609261,0.049357562737887856,0.007047868826446343
6939.763910381183,0.05255393327389139,0.0071308369455113365
6939.764910153107,0.05570957132012561,0.007223967278144194
6939.7659099250295,0.05879989084790611,0.007326033175358367
6939.766909696952,0.061800538599696135,0.007435607060169794
6939.767909468875,0.06468768400024948,0.00755108541036765
6939.768909240797,0.06743831614049221,0.007670718681100423
6939.769909012721,0.07003054098445786,0.00779264549063426
6939.770908784643,0.07244387217442545,0.007914930146778357
6939.771908556566,0.07465950958340342,0.008035602312203783
6939.7729083284885,0.07666060029171391,0.008152697392324897
6939.773908100411,0.07843247650302813,0.00826429623094899
6939.774907872334,0.07996286451448523,0.008368562949618687
6939.775907644257,0.0812420591592118,0.008463780118341046
6939.77690741618,0.0822630596100603,0.008548380711227321
6939.777907188102,0.08302166459048767,0.008620976406873275
6939.778906960025,0.08351652684348428,0.008680381777925161
6939.779906731948,0.08374916724088273,0.008725633855742512
6939.780906503871,0.08372394793695079,0.008756006538462407
6939.7819062757935,0.08344800215238019,0.008771019397844177
6939.782906047716,0.08293111672491013,0.008770440639821239
6939.783905819639,0.08218556357841866,0.00875428423072836
6939.784905591561,0.08122587825669682,0.008722801436768856
6939.785905363485,0.08006858717319319,0.008676467198568363
6939.786905135407,0.07873188879021491,0.00861596190372873
6939.78790490733,0.07723529620197497,0.008542149269057117
6939.7889046792525,0.0755992495745295,0.008456051186364241
6939.789904451175,0.07384470770643124,0.0083588204714328
6939.790904223099,0.07199272934887449,0.008251712456843883
6939.791903995021,0.07006405654011573,0.008136056297659658
6939.792903766944,0.0680787132914732,0.008013226760954319
6939.793903538866,0.06605563298918514,0.007884617194188419
6939.794903310789,0.06401232674340256,0.007751614301231526
6939.795903082711,0.061964602848731135,0.007615575225126245
6939.796902854635,0.05992634496545786,0.007477807204954522
6939.7979026265575,0.057909354047538386,0.0073395498093749584
6939.79890239848,0.055923256654578084,0.007201959579181681
6939.799902170403,0.053975480044376904,0.007066096907383323
6939.800901942325,0.052071292301889484,0.006932915104524523
6939.801901714249,0.05021390383168384,0.006803251725944461
6939.802901486171,0.04840462487084972,0.006677822288006971
6939.803901258094,0.046643072020156114,0.006557216464638073
6939.8049010300165,0.0449274148463799,0.0064418967799483836
6939.805900801939,0.04325465153632291,0.0063321997305420446
6939.806900573862,0.041620901115631784,0.006228339186048815
6939.807900345785,0.040021699609566336,0.006130411838814193
6939.808900117708,0.03845228866935849,0.006038404427641057
6939.80989988963,0.036907886874462816,0.005952202453071579
6939.810899661553,0.035383935683529516,0.005871600118490539
6939.811899433476,0.03387631411818907,0.005796311259039949
6939.812899205399,0.032381519040589925,0.005725981050251989
6939.8138989773215,0.030896810977950877,0.005660198301645727
6939.814898749244,0.0294203280279496,0.005598508114320496
6939.815898521167,0.02795117179649266,0.005540424622068828
6939.816898293089,0.02648946948442073,0.005485443487865446
6939.817898065013,0.025036415554221772,0.005433053834219569
6939.818897836935,0.023594295455882368,0.005382749350938363
6939.819897608858,0.022166493147717542,0.005334038418157078
6939.8208973807805,0.020757483819989063,0.005286453157065424
6939.821897152703,0.019372813223384026,0.005239557334021913
6939.822896924627,0.018019065034626816,0.005192953011031884
6939.823896696549,0.01670381749733296,0.005146285826410286
6939.824896468472,0.015435590093596067,0.005099248846217637
6939.825896240394,0.014223780338678677,0.005051585017275631
6939.826896012317,0.013078590108765496,0.005003088319127339
6939.827895784239,0.012010940391717056,0.004953603736728351
6939.828895556163,0.011032373199270782,0.00490302618674065
6939.8298953280855,0.010154939700893196,0.004851298571686556
6939.830895100008,0.009391074261181367,0.004798409212417609
6939.831894871931,0.008753454599538725,0.004744388965036807
6939.832894643854,0.008254848485011757,0.00468930831125004
6939.833894415777,0.00790794732514406,0.004633274635953435
6939.834894187699,0.007725186999809886,0.004576429827584819
6939.835893959622,0.007718556505011253,0.004518948294340357
6939.8368937315445,0.007899395329884033,0.004461035494605397
6939.837893503467,0.00827818080906212,0.004402927119708674
6939.838893275391,0.008864306919405665,0.00434488910282898
6939.839893047313,0.009665856245102092,0.004287218617772454
6939.840892819236,0.01068936724418484,0.004230246158864601
6939.841892591158,0.01193959955790108,0.004174338673896446
6939.842892363081,0.013419300965103563,0.004119903589661753
6939.843892135004,0.015128980758194922,0.004067393450926731
6939.844891906927,0.017066695690521015,0.0040173107904863765
6939.8458916788495,0.01922785584697827,0.003970212746187455
6939.846891450772,0.021605058422335188,0.003926714839126565
6939.847891222695,0.024187957339717323,0.0038874932563323647
6939.848890994617,0.02696317610146911,0.0038532849919888984
6939.849890766541,0.02991427050248228,0.0038248853276013385
6939.850890538463,0.0330217469982385,0.003803142361259329
6939.851890310386,0.03626314164366794,0.003788948573883845
6939.8528900823085,0.03961316357768546,0.0037832296713310805
6939.853889854231,0.04304390591543678,0.003786931102123114
6939.8548896261545,0.046525125497330365,0.003801002699758294
6939.855889398077,0.05002459121956334,0.003826381862234271
6939.85688917,0.05350849875651922,0.0038639756100022574
6939.857888941922,0.05694194747963795,0.0039146418131991425
6939.858888713845,0.060289473229381836,0.003979169900685895
6939.859888485767,0.06351562815386624,0.0040582614684908066
6939.860888257691,0.06658559598864693,0.004152511338521024
6939.8618880296135,0.06946582797857523,0.004262389697365206
6939.862887801536,0.0721246813891184,0.004388225929327384
6939.863887573459,0.07453303970814089,0.004530194667253077
6939.864887345382,0.07666489196627664,0.004688304464554038
6939.865887117305,0.07849784897584529,0.004862389378403017
6939.866886889227,0.08001357704838392,0.005052103656739325
6939.86788666115,0.08119813406914646,0.0052569196197377955
6939.8688864330725,0.08204219717986706,0.005476128692587196
6939.869886204995,0.08254117517139446,0.0057088453851782215
6939.870885976919,0.08269520293653806,0.005954013864928089
6939.871885748841,0.08250902091192704,0.0062104166638425815
6939.872885520764,0.08199174878853602,0.006476684999808245
6939.873885292686,0.08115656819427387,0.00675131017166197
6939.874885064609,0.08002033207174451,0.007032655529529671
6939.875884836532,0.0786031187220723,0.007318968648783234
6939.876884608455,0.07692774673552387,0.0076083935374849565
6939.8778843803775,0.07501926460289365,0.007898982939220018
6939.8788841523,0.0729044267781202,0.00818871098733806
6939.879883924223,0.07061116677610679,0.0084754865544963
6939.880883696145,0.0681680774686025,0.008757167611912852
6939.881883468069,0.06560390878564767,0.00903157683330131
6939.882883239991,0.06294709309273504,0.00929651862459382
6939.883883011914,0.06022530804782024,0.009549797742870516
6939.8848827838365,0.05746508539200037,0.009789239645229191
6939.88588255576,0.05469147204338235,0.010012712643551323
6939.8868823276825,0.05192774757519448,0.010218151838681463
6939.887882099605,0.04919520009391271,0.010403584710209024
6939.888881871528,0.04651296079127667,0.010567158172038592
6939.88988164345,0.04389789602169739,0.010707166836567335
6939.890881415373,0.04136455469850094,0.010822082111831192
6939.891881187296,0.038925168004591476,0.010910581578755804
6939.892880959219,0.03658969756021246,0.01097157788503409
6939.8938807311415,0.034365927130049254,0.011004246175286302
6939.894880503064,0.03225959195139016,0.011008048883883131
6939.895880274987,0.030274539203289923,0.010982756579406061
6939.89688004691,0.02841291307601287,0.010928463500772433
6939.897879818833,0.026675358099887473,0.010845596530744607
6939.898879590755,0.025061234605561956,0.010734916700598347
6939.899879362678,0.023568840327305378,0.010597512892736543
6939.9008791346005,0.022195632329782763,0.010434788008896972
6939.901878906523,0.020938443875989875,0.010248438265541308
6939.902878678447,0.01979369170688728,0.010040426405060645
6939.903878450369,0.018757570301121497,0.009812949611901592
6939.904878222292,0.017826230633584395,0.009568402964676358
6939.905877994214,0.016995941445021652,0.009309339382982796
6939.906877766137,0.016263231047173744,0.009038427175956161
6939.90787753806,0.015625007478737532,0.008758406400070692
6939.908877309983,0.015078654767663667,0.008472045267401324
6939.9098770819055,0.01462210340602556,0.008182097814523594
6939.910876853828,0.014253873952002772,0.007891263946597641
6939.911876625751,0.01397309378286776,0.007602152827133309
6939.912876397673,0.013779488132582535,0.007317250414731166
6939.913876169597,0.013673347355421868,0.0070388917472503825
6939.914875941519,0.013655472724746733,0.0067692383265157115
6939.915875713442,0.013727103060680673,0.006510260691128043
6939.9168754853645,0.013889824247836718,0.006263726029564518
6939.917875257288,0.014145463442746541,0.006031190486545601
6939.9188750292105,0.014495969620107057,0.005813995626725614
6939.919874801133,0.014943282134937426,0.005613268351112802
6939.920874573056,0.015489189233957852,0.0054299234759891
6939.921874344978,0.016135178951587465,0.005264668234526518
6939.922874116901,0.016882285453496407,0.005118008129508863
6939.923873888824,0.017730934440868883,0.004990253774747753
6939.924873660747,0.018680791593339463,0.004881528542348403
6939.9258734326695,0.019730618178031862,0.004791776963735181
6939.926873204592,0.020878137822418406,0.004720773938486426
6939.927872976515,0.022119918000543623,0.004668134903559035
6939.928872748438,0.023451269099633194,0.004633327174594765
6939.929872520361,0.0248661632015576,0.004615682638175365
6939.930872292283,0.026357174162634608,0.004614411839127964
6939.931872064206,0.027915440422000285,0.004628619310035012
6939.9328718361285,0.02953065227260167,0.004657319779786427
6939.933871608051,0.031191065877003273,0.004699454718782725
6939.934871379975,0.032883546711201306,0.0047539085841996915
6939.935871151897,0.03459364509271149,0.004819524160615784
6939.93687092382,0.03630570602829222,0.004895116525294674
6939.937870695742,0.03800301500007198,0.004979485326674513
6939.938870467665,0.03966798055451895,0.005071425205708725
6939.939870239588,0.04128235357366518,0.0051697343335576325
6939.940870011511,0.04282748186122777,0.0052732212005419925
6939.9418697834335,0.044284597230500135,0.00538070992778665
6939.942869555356,0.04563513067955355,0.005491044424871855
6939.943869327279,0.04686104950036549,0.005603091668223341
6939.944869099201,0.04794520833852509,0.005715744262985528
6939.945868871125,0.04887170440950759,0.005827922332651201
6939.946868643047,0.04962622552831979,0.005938574705935701
6939.94786841497,0.050196378700784736,0.0060466793697987195
6939.9488681868925,0.05057198709565688,0.006151243226182418
6939.949867958816,0.050745344321792264,0.0062513013012083524
6939.9508677307385,0.05071141671312813,0.006345915700751306
6939.951867502661,0.050467986172099986,0.006434174776852072
6939.952867274584,0.05001572776417046,0.006515193104018764
6939.953867046506,0.049358218164187624,0.006588112885435855
6939.954866818429,0.048501873948890224,0.006652107310437597
6939.955866590352,0.047455822582388306,0.006706386230973944
6939.956866362275,0.046231712774755185,0.006750204368398697
6939.9578661341975,0.04484347366090932,0.006782872091957884
6939.95886590612,0.04330703367710522,0.006803768586382109
6939.959865678043,0.04164001043561341,0.006812356943882434
6939.960865449966,0.039861382541748785,0.006808200425515774
6939.961865221889,0.0379911531388723,0.006790978913258349
6939.962864993811,0.036050013136782015,0.006760504501110266
6939.963864765734,0.03405901005711365,0.006716735309196868
6939.9648645376565,0.0320392268312778,0.006659786891560954
6939.965864309579,0.03001147409761718,0.00658994086618148
6939.966864081503,0.02799599945532537,0.006507650480938944
6939.967863853425,0.02601221724832934,0.006413542762254131
6939.968863625348,0.024078462344447018,0.0063084168086796726
6939.96986339727,0.0222117709650163,0.00619323782627239
6939.970863169194,0.020427691046079634,0.006069126719143428
6939.971862941116,0.018740124003351784,0.005937345396414476
6939.972862713039,0.01716119917022483,0.00579927830384013
6939.9738624849615,0.01570118153823858,0.005656410916967546
6939.974862256884,0.014368412694244189,0.005510305998121669
6939.975862028807,0.013169284049687273,0.005362578346384401
6939.97686180073,0.012108240736222948,0.005214868636302595
6939.977861572653,0.011187814057258782,0.0050688168447639475
6939.978861344575,0.010408680200983433,0.004926035757877139
6939.979861116498,0.009769742937625534,0.004788085102698276
6939.9808608884205,0.009268238026325714,0.004656446895098181
6939.981860660344,0.008899856885090882,0.00453250258971266
6939.9828604322665,0.008658886762400963,0.004417512555970136
6939.983860204189,0.00853836438072603,0.004312598301786494
6939.984859976112,0.008530240010487642,0.00421872774029392
6939.985859748034,0.008625549265254103,0.004136703663165223
6939.986859519957,0.008814590464452444,0.004067155474256054
6939.98785929188,0.009087105925553668,0.004010534168822014
6939.988859063803,0.009432465813865264,0.003967110500749195
6939.9898588357255,0.009839853162691987,0.003936976225906425
6939.990858607648,0.0102984484652766,0.0039200482311871915
6939.991858379571,0.01079761191643534,0.003916075284106349
6939.992858151494,0.011327060992994274,0.003924647102367252
6939.993857923417,0.011877040636935584,0.00394520544655743
6939.994857695339,0.012438482853033239,0.003977056942319511
6939.995857467262,0.013003152070674918,0.004019387303543893
6939.9968572391845,0.01356377227781961,0.004071276560519501
6939.997857011107,0.014114131983530148,0.004131714838435547
6939.998856783031,0.014649163671658052,0.0041996182250403375
6939.999856554953,0.015164995354988432,0.0042738443267100095
6940.000856326876,0.015658972689609897,0.0043532072185401985
6940.001856098798,0.01612965071576743,0.004436491608337908
6940.002855870722,0.01657675492684468,0.004522466133077205
6940.003855642644,0.017001112286550896,0.004609895783381888
6940.004855414567,0.017404553922858702,0.004697553504585912
6940.0058551864895,0.017789792303190305,0.004784231063072467
6940.006854958412,0.01816027669429184,0.004868749318026261
6940.007854730335,0.018520031657607298,0.004949968102333863
6940.008854502258,0.0188734840790368,0.005026795960780936
6940.009854274181,0.019225284565260858,0.005098199995080982
6940.010854046103,0.0195801289260712,0.0051632160299227
6940.011853818026,0.01994258502925298,0.005220959255666187
6940.0128535899485,0.02031692966609822,0.005270635419947768
6940.013853361872,0.020706999263939475,0.005311552528605847
6940.0148531337945,0.021116057426427307,0.005343132887230856
6940.015852905717,0.021546681500524068,0.005364925182846828
6940.01685267764,0.022000669743559124,0.005376616179862307
6940.017852449562,0.022478970218194227,0.005378041501674863
6940.018852221485,0.022981632274419607,0.005369194912841442
6940.019851993408,0.0235077813192286,0.005350235518366073
6940.020851765331,0.02405561736687051,0.005321492344937672
6940.0218515372535,0.024622437480322657,0.005283465841733098
6940.022851309176,0.025204681722270705,0.005236825929363026
6940.023851081099,0.02579800180446988,0.005182406344424322
6940.024850853022,0.02639735130101036,0.005121195162697151
6940.025850624945,0.0269970959356828,0.005054321498888299
6940.026850396867,0.02759114192537521,0.004983038474462901
6940.02785016879,0.02817307962453532,0.004908702679150429
6940.0288499407125,0.028736338796375552,0.00483275055659269
6940.029849712636,0.029274350838692193,0.004756672348465072
6940.030849484559,0.029780712489164786,0.004681984348193338
6940.031849256481,0.030249345286592656,0.004610200245259266
6940.032849028404,0.030674645487246403,0.0045428023211696545
6940.033848800326,0.031051619889799258,0.004481213187367368
6940.03484857225,0.03137600362505166,0.0044267686289883226
6940.035848344172,0.03164435635518305,0.004380691976680907
6940.036848116095,0.031854133914643055,0.0043440703244445895
6940.0378478880175,0.03200373356199397,0.0043178328596922165
6940.03884765994,0.03209251259088379,0.004302731553257564
6940.039847431863,0.03212078162884586,0.004299324456813257
6940.040847203786,0.03208977507489968,0.004307961878298174
6940.041846975709,0.03200160153123478,0.004328775751642131
6940.042846747631,0.03185917687627857,0.004361672558465376
6940.043846519554,0.0316661422694569,0.004406330166045675
6940.0448462914765,0.031426769339167666,0.0044621989081691125
6940.0458460634,0.031145855153767367,0.004528507156522187
6940.0468458353225,0.030828610009652386,0.004604271513916074
6940.047845607245,0.030480541304626033,0.0046883116180134
6940.048845379168,0.03010733675889103,0.004779269396282034
6940.04984515109,0.02971475008248723,0.004875632481695862
6940.050844923013,0.02930849189370364,0.004975761397020449
6940.051844694936,0.028894128268853108,0.005077920033551139
6940.052844466859,0.028476988794774602,0.005180308859836293
6940.0538442387815,0.028062085415421587,0.005281100190038629
6940.054844010704,0.02765404265206398,0.005378474753679623
6940.055843782628,0.027257038937362164,0.005470658766521669
6940.05684355455,0.02687475804905684,0.005555960682241482
6940.057843326473,0.026510349302527464,0.005632806757534033
6940.058843098395,0.026166395459332928,0.0056997744730560036
6940.059842870318,0.025844888053064907,0.005755622753391425
6940.0608426422405,0.025547210550080964,0.005799317892418542
6940.061842414164,0.025274130041284967,0.005830054195556236
6940.062842186087,0.025025797990603067,0.00584726862549598
6940.063841958009,0.024801760292270745,0.005850649112472034
6940.064841729932,0.024600976806785742,0.005840136535244179
6940.065841501854,0.02442185060353348,0.005815920611897004
6940.066841273778,0.024262267122288978,0.005778430075652525
6940.0678410457,0.02411964332521855,0.005728317617119418
6940.068840817623,0.02399098673561165,0.005666440196447605
6940.0698405895455,0.02387296403287039,0.005593835469034766
6940.070840361468,0.023761978466462254,0.0055116951996807585
6940.071840133391,0.02365425475422905,0.0054213366195500325
6940.072839905314,0.023545929510130768,0.005324172674465186
6940.073839677237,0.02343314476869107,0.005221682030607548
6940.074839449159,0.023312141894438792,0.0051153795901144345
6940.075839221082,0.02317935309231298,0.005006788161870055
6940.0768389930045,0.02303148786280752,0.0048974118377851416
6940.077838764928,0.02286561200358267,0.004788711532980088
6940.0788385368505,0.02267921706435987,0.0046820830527201755
6940.079838308773,0.02247027857391509,0.004578837949585079
6940.080838080696,0.022237302005534653,0.004480187340113941
6940.081837852618,0.02197935620733529,0.0043872287692398775
6940.082837624541,0.021696094497806316,0.004300936140564865
6940.083837396464,0.021387763573395526,0.0042221526673173375
6940.084837168387,0.021055200025670108,0.0041515867430950175
6940.0858369403095,0.020699814139899065,0.00408981057364993
6940.086836712232,0.020323561100426955,0.004037261328602332
6940.087836484156,0.01992890063595917,0.003994244452686831
6940.088836256078,0.0195187469803127,0.003960938643477802
6940.089836028001,0.01909641134666169,0.003937401911163799
6940.090835799923,0.018665538907229932,0.00392357813270079
6940.091835571846,0.01823004187675987,0.00391930360809489
6940.0928353437685,0.017794030032436292,0.003924313301557107
6940.093835115692,0.017361739959953233,0.003938246670007606
6940.094834887615,0.016937464424300715,0.0039606531996465195
6940.095834659537,0.016525483371073388,0.003990997937370004
6940.09683443146,0.016129998003955766,0.004028667379965712
6940.097834203382,0.01575506910618977,0.0040729760653312646
6940.098833975306,0.015404560391700331,0.004123174122820823
6940.099833747228,0.015082087333078508,0.004178455915724077
6940.100833519151,0.014790971688774964,0.004237969768914365
6940.1018332910735,0.0145342018540786,0.00430082864182209
6940.102833062996,0.01431439915577649,0.004366121512156619
6940.103832834919,0.01413379018430345,0.004432925192172494
6940.104832606842,0.013994185079033201,0.004500316283496272
6940.105832378765,0.013896961341595102,0.004567382966868731
6940.106832150687,0.013843052399541386,0.004633236339417561
6940.10783192261,0.013832939985794088,0.004697021079534399
6940.108831694533,0.01386664954883425,0.004757925315644595
6940.109831466456,0.013943748298409888,0.004815189656365035
6940.1108312383785,0.014063345916992999,0.0048681153908117294
6940.111831010301,0.014224098224238988,0.004916071889773544
6940.112830782224,0.014424214145297959,0.004958503220759476
6940.113830554146,0.014661466402150089,0.00499493392706448
6940.11483032607,0.014933206622642487,0.005024973827153291
6940.115830097992,0.01523638598691955,0.0050483215924026
6940.116829869915,0.015567582818256412,0.00506476680415026
6940.1178296418375,0.015923038443106375,0.0050741902422300755
6940.11882941376,0.016298702206763264,0.005076562351225612
6940.119829185684,0.016690285921594335,0.005071940105956213
6940.120828957606,0.017093327429537647,0.005060462725844604
6940.121828729529,0.017503262484917917,0.005042346774085298
6940.122828501451,0.017915503831524952,0.0050178811162693805
6940.123828273374,0.018325526116446656,0.0049874220622535504
6940.124828045296,0.01872895508290235,0.0049513888464128965
6940.12582781722,0.01912165925100343,0.004910259471061708
6940.126827589143,0.019499841975809395,0.0048645668742009545
6940.127827361065,0.01986013137129354,0.004814895375144614
6940.128827132988,0.020199665229638123,0.004761877351397462
6940.12982690491,0.020516167939764657,0.004706190064691754
6940.130826676834,0.020808016619160027,0.004648552496188217
6940.131826448756,0.021074294103561687,0.0045897220188737785
6940.132826220679,0.021314826840129177,0.0045304907443996165
6940.1338259926015,0.02153020599956962,0.004471681397164408
6940.134825764524,0.02172179044629686,0.004414142562046155
6940.135825536447,0.021891690806137037,0.004358743142021128
6940.13682530837,0.022042734699916848,0.0043063658775996765
6940.137825080293,0.022178413985904283,0.0042578998188517085
6940.138824852215,0.022302815307803925,0.004214231687182974
6940.139824624138,0.02242053528664062,0.004176236124659902
6940.140824396061,0.022536581455858656,0.004144764914622217
6940.141824167984,0.022656259833213545,0.004120635346192682
6940.1428239399065,0.02278505017302177,0.004104617939017588
6940.143823711829,0.022928470566997886,0.004097423717785001
6940.144823483752,0.02309193400429681,0.00409969116101885
6940.145823255674,0.023280600438291017,0.00411197291298965
6940.146823027598,0.0234992285702791,0.00413472237962587
6940.14782279952,0.023752031922310457,0.004168280409953547
6940.148822571443,0.024042543995965695,0.004212862361379347
6940.1498223433655,0.02437349748594821,0.004268545947266618
6940.150822115288,0.024746722509760788,0.004335260345406634
6940.151821887212,0.025163068450655485,0.004412777064267817
6940.152821659134,0.025622353256771643,0.004500703017130139
6940.153821431057,0.026123343002977858,0.004598476198072224
