Time,Filtered_ECG
6906.098325698229,-0.01902777387473749
6906.0993254704445,-0.0190315396526752
6906.10032524266,-0.019033983700253
6906.101325014874,-0.019035088514251817
6906.10232478709,-0.01903483676281666
6906.103324559305,-0.019033211291338486
6906.104324331521,-0.019030195128280036
6906.105324103736,-0.019025771490942037
6906.106323875951,-0.019019923791166446
6906.107323648166,-0.019012635640973708
6906.108323420382,-0.019003890858131277
6906.109323192597,-0.018993673471650804
6906.110322964812,-0.01898196772721157
6906.111322737028,-0.018968758092507858
6906.112322509242,-0.018954029262518
6906.113322281458,-0.01893776616469294
6906.114322053673,-0.018919953964062007
6906.115321825889,-0.018900578068253456
6906.116321598103,-0.018879624132426973
6906.117321370319,-0.01885707806411494
6906.118321142534,-0.018832926027968742
6906.11932091475,-0.018807154450406104
6906.120320686965,-0.018779750024155058
6906.12132045918,-0.018750699712690135
6906.122320231395,-0.018719990754556423
6906.12332000361,-0.01868761066757748
6906.124319775826,-0.018653547252943447
6906.125319548041,-0.018617788599176396
6906.126319320257,-0.018580323085970386
6906.127319092471,-0.018541139387904453
6906.128318864687,-0.018500226478027244
6906.129318636902,-0.01845757363131271
6906.1303184091175,-0.01841317042798672
6906.131318181333,-0.018367006756724955
6906.132317953548,-0.01831907281772279
6906.133317725763,-0.018269359125638172
6906.134317497978,-0.018217856512408724
6906.135317270194,-0.018164556129944172
6906.136317042409,-0.018109449452695152
6906.137316814625,-0.018052528280099074
6906.138316586839,-0.017993784738903396
6906.139316359055,-0.01793321128536641
6906.14031613127,-0.017870800707335363
6906.1413159034855,-0.017806546126201778
6906.142315675701,-0.017740440998733932
6906.143315447916,-0.01767247911878686
6906.144315220131,-0.017602654618890476
6906.145314992346,-0.017530961971717027
6906.146314764562,-0.01745739599142939
6906.147314536777,-0.017381951834912167
6906.148314308993,-0.017304625002887812
6906.149314081207,-0.017225411340920267
6906.150313853423,-0.017144307040308754
6906.151313625638,-0.017061308638874513
6906.1523133978535,-0.016976413021643304
6906.153313170069,-0.01688961742142654
6906.154312942284,-0.016800919419303666
6906.155312714499,-0.016710316945008234
6906.156312486714,-0.016617808277219585
6906.15731225893,-0.016523392043761683
6906.158312031145,-0.016427067221710112
6906.159311803361,-0.016328833137407874
6906.160311575575,-0.016228689466390438
6906.161311347791,-0.01612663623322045
6906.162311120006,-0.0160226738112327
6906.1633108922215,-0.015916802922190294
6906.164310664437,-0.015809024635853455
6906.165310436652,-0.015699340369462918
6906.166310208867,-0.015587751887140367
6906.167309981082,-0.015474261299208626
6906.168309753298,-0.01535887106143457
6906.169309525513,-0.015241583974197675
6906.170309297729,-0.01512240318158704
6906.171309069943,-0.015001332170429444
6906.172308842159,-0.014878374769250698
6906.173308614374,-0.01475353514717218
6906.1743083865895,-0.014626817812744039
6906.175308158805,-0.01449822761271611
6906.17630793102,-0.014367769730747175
6906.177307703235,-0.014235449686052741
6906.17830747545,-0.014101273331991127
6906.179307247666,-0.013965246854587417
6906.180307019881,-0.01382737677099464
6906.181306792096,-0.013687669927891609
6906.182306564311,-0.013546133499817009
6906.183306336527,-0.013402774987439728
6906.184306108742,-0.013257602215765817
6906.1853058809575,-0.013110623332283034
6906.186305653173,-0.012961846805044417
6906.187305425387,-0.012811281420692718
6906.188305197603,-0.012658936282427802
6906.189304969818,-0.012504820807919348
6906.190304742034,-0.012348944727167192
6906.191304514249,-0.012191318080311713
6906.192304286464,-0.01203195121539651
6906.193304058679,-0.011870854786085457
6906.194303830895,-0.011708039749336029
6906.19530360311,-0.01154351736303032
6906.196303375325,-0.011377299183564804
6906.197303147541,-0.011209397063399306
6906.198302919755,-0.011039823148565131
6906.199302691971,-0.010868589876131981
6906.200302464186,-0.010695709971633025
6906.201302236402,-0.010521196446447433
6906.202302008617,-0.010345062595139825
6906.203301780832,-0.01016732199275652
6906.204301553047,-0.009987988492078817
6906.205301325263,-0.009807076220834094
6906.206301097478,-0.00962459957886592
6906.207300869693,-0.009440573235264807
6906.208300641909,-0.009255012125461481
6906.209300414123,-0.00906793144828477
6906.210300186339,-0.008879346662986303
6906.211299958554,-0.008689273486234293
6906.21229973077,-0.008497727889078639
6906.213299502985,-0.008304726093889487
6906.2142992752,-0.008110284571271243
6906.215299047415,-0.007914420036953716
6906.216298819631,-0.0077171494486616525
6906.217298591846,-0.007518490002963413
6906.218298364061,-0.0073184591320990654
6906.219298136277,-0.007117074500787761
6906.220297908491,-0.006914354003013959
6906.221297680707,-0.006710315758792034
6906.222297452922,-0.006504978110908904
6906.223297225138,-0.006298359621644644
6906.224296997353,-0.006090479069471421
6906.225296769568,-0.00588135544573161
6906.226296541783,-0.005671007951296252
6906.227296313999,-0.005459455993205437
6906.228296086214,-0.005246719181292403
6906.229295858429,-0.005032817324793361
6906.230295630645,-0.004817770428945206
6906.231295402859,-0.004601598691573368
6906.232295175075,-0.004384322499672145
6906.23329494729,-0.004165962425979904
6906.234294719506,-0.003946539225551515
6906.235294491721,-0.00372607383233023
6906.236294263936,-0.0035045873557209314
6906.237294036151,-0.0032821010771662954
6906.238293808367,-0.003058636446726981
6906.239293580582,-0.0028342150796665964
6906.240293352797,-0.0026088587530419256
6906.241293125013,-0.002382589402298786
6906.242292897227,-0.002155429117873939
6906.243292669443,-0.0019274001418036792
6906.244292441658,-0.0016985248643400126
6906.245292213874,-0.0014688258205756706
6906.246291986088,-0.0012383256870795451
6906.247291758304,-0.0010070472785444129
6906.248291530519,-0.0007750135444490005
6906.249291302735,-0.0005422475657365346
6906.25029107495,-0.0003087725515119033
6906.251290847165,-7.46118357594763e-05
6906.25229061938,0.00016021112591649677
6906.253290391595,0.00039567275952716904
6906.254290163811,0.0006317493759085746
6906.255289936026,0.0008684171739041778
6906.256289708242,0.001105652243519846
6906.257289480456,0.0013434305690511706
6906.258289252672,0.0015817280321836847
6906.259289024887,0.0018205204150671082
6906.260288797103,0.0020597834033652352
6906.261288569318,0.0022994925892833623
6906.262288341533,0.0025396234745752124
6906.263288113748,0.0027801514735311364
6906.264287885963,0.003021051915949002
6906.265287658179,0.0032623000500886707
6906.266287430394,0.003503871045610426
6906.26728720261,0.0037457399964971926
6906.268286974824,0.003987881923959965
6906.26928674704,0.004230271779325522
6906.270286519255,0.004472884446905245
6906.271286291471,0.004715694746843745
6906.272286063686,0.004958677437945901
6906.273285835901,0.0052018072204809565
6906.274285608116,0.005445058738962467
6906.275285380331,0.005688406584903148
6906.276285152547,0.005931825299544103
6906.277284924762,0.006175289376558374
6906.278284696978,0.006418773264729268
6906.279284469192,0.006662251370604395
6906.280284241408,0.0069056980611267435
6906.281284013623,0.0071490876662443584
6906.282283785838,0.007392394481500343
6906.283283558054,0.007635592770604844
6906.284283330269,0.007878656767990603
6906.285283102484,0.00812156068135344
6906.286282874699,0.00836427869417888
6906.287282646915,0.008606784968255983
6906.28828241913,0.00884905364617936
6906.289282191346,0.009091058853840381
6906.29028196356,0.009332774702908586
6906.291281735776,0.009574175293304456
6906.292281507991,0.009815234715664808
6906.293281280206,0.010055927053802273
6906.294281052422,0.01029622638716053
6906.295280824637,0.010536106793267329
6906.296280596852,0.010775542350187642
6906.297280369067,0.011014507138979676
6906.298280141283,0.01125297524615669
6906.299279913498,0.011490920766157767
6906.300279685714,0.01172831780383061
6906.301279457928,0.01196514047692928
6906.302279230144,0.01220136291862936
6906.303279002359,0.012436959280062608
6906.304278774574,0.01267190373287256
6906.30527854679,0.012906170471792043
6906.306278319005,0.013139733717242967
6906.30727809122,0.01337256771795844
6906.308277863435,0.013604646753626866
6906.309277635651,0.013835945137557416
6906.310277407866,0.014066437219366092
6906.311277180081,0.014296097387681513
6906.312276952296,0.014524900072869464
6906.313276724512,0.014752819749775395
6906.314276496727,0.014979830940484098
6906.315276268942,0.015205908217096234
6906.316276041158,0.015431026204521843
6906.317275813372,0.01565515958329153
6906.318275585588,0.015878283092386706
6906.319275357803,0.016100371532090773
6906.320275130019,0.016321399766863653
6906.321274902234,0.016541342728242227
6906.322274674449,0.016760175417769366
6906.323274446664,0.016977872909954166
6906.32427421888,0.017194410355265727
6906.325273991095,0.017409762983162592
6906.32627376331,0.017623906105159626
6906.327273535526,0.0178368151179339
6906.32827330774,0.018048465506470827
6906.329273079956,0.018258832847251688
6906.330272852171,0.01846789281148341
6906.331272624387,0.01867562116837136
6906.332272396602,0.0188819937884358
6906.333272168817,0.01908698664687271
6906.334271941032,0.019290575826959686
6906.335271713248,0.019492737523507962
6906.336271485463,0.019693448046361948
6906.337271257678,0.01989268382394821
6906.338271029894,0.020090421406876297
6906.339270802108,0.020286637471594236
6906.340270574324,0.020481308824101763
6906.341270346539,0.020674412403724453
6906.342270118755,0.020865925286951855
6906.34326989097,0.02105582469134239
6906.344269663185,0.021244087979497474
6906.3452694354,0.021430692663106727
6906.346269207616,0.021615616407065594
6906.347268979831,0.02179883703366614
6906.348268752046,0.021980332526861174
6906.349268524262,0.022160081036601276
6906.350268296476,0.02233806088324379
6906.351268068692,0.022514250562032212
6906.352267840907,0.02268862874764401
6906.353267613123,0.022861174298804455
6906.354267385338,0.023031866262963552
6906.355267157553,0.02320068388103318
6906.356266929768,0.023367606592181348
6906.357266701984,0.023532614038680545
6906.358266474199,0.023695686070807447
6906.359266246414,0.023856802751791088
6906.36026601863,0.024015944362806744
6906.361265790844,0.024173091408012437
6906.36226556306,0.02432822461962459
6906.363265335275,0.024481324963028756
6906.364265107491,0.024632373641920835
6906.365264879706,0.02478135210347344
6906.366264651921,0.02492824204352169
6906.367264424136,0.02507302541176206
6906.368264196351,0.02521568441695782
6906.369263968567,0.02535620153214429
6906.370263740782,0.025494559499827037
6906.371263512998,0.025630741337166307
6906.372263285212,0.025764730341140865
6906.373263057428,0.025896510093684575
6906.374262829643,0.026026064466789255
6906.375262601859,0.026153377627567566
6906.376262374073,0.02627843404327014
6906.377262146289,0.026401218486251495
6906.378261918504,0.026521716038879692
6906.379261690719,0.026639912098385295
6906.380261462935,0.02675579238164526
6906.38126123515,0.026869342929897705
6906.382261007365,0.02698055011338348
6906.38326077958,0.027089400635910362
6906.384260551796,0.02719588153933529
6906.385260324011,0.027299980207959814
6906.386260096227,0.027401684372833426
6906.387259868441,0.027500982115959097
6906.3882596406565,0.027597861874395023
6906.389259412872,0.02769231244424639
6906.390259185087,0.027784322984540925
6906.391258957303,0.027873883020981923
6906.392258729518,0.027960982449572645
6906.393258501733,0.028045611540106135
6906.394258273948,0.028127760939514756
6906.395258046164,0.028207421675074135
6906.396257818379,0.02828458515745674
6906.397257590595,0.028359243183630818
6906.398257362809,0.028431387939601312
6906.3992571350245,0.028501012002989715
6906.40025690724,0.028568108345450507
6906.401256679455,0.028632670334922127
6906.402256451671,0.02869469173771055
6906.403256223886,0.028754166720403672
6906.404255996101,0.028811089851614662
6906.405255768316,0.028865456103552234
6906.406255540532,0.028917260853415783
6906.407255312747,0.02896649988461336
6906.408255084963,0.029013169387800547
6906.409254857177,0.029057265961738313
6906.4102546293925,0.029098786613968426
6906.411254401608,0.029137728761304955
6906.412254173823,0.029174090230140847
6906.413253946039,0.029207869256568923
6906.414253718254,0.02923906448631699
6906.415253490469,0.029267674974497258
6906.416253262684,0.029293700185170985
6906.4172530349,0.029317139990729917
6906.418252807115,0.029337994671096764
6906.4192525793305,0.0293562649127475
6906.420252351545,0.029371951807558888
6906.4212521237605,0.02938505685148474
6906.422251895976,0.029395581943064478
6906.423251668191,0.029403529381767577
6906.424251440407,0.02940890186617707
6906.425251212622,0.029411702492015006
6906.426250984837,0.029411934750012518
6906.427250757052,0.02940960252362658
6906.428250529268,0.029404710086605588
6906.429250301483,0.029397262100405306
6906.4302500736985,0.029387263611456882
6906.431249845913,0.02937472004828835
6906.4322496181285,0.02935963721850103
6906.433249390344,0.029342021305602182
6906.434249162559,0.029321878865695324
6906.435248934775,0.02929921682402992
6906.43624870699,0.02927404247141245
6906.437248479205,0.0292463634604813
6906.43824825142,0.02921618780184835
6906.439248023636,0.029183523860110566
6906.440247795851,0.029148380349735208
6906.441247568066,0.02911076633082251
6906.442247340281,0.029070691204749692
6906.4432471124965,0.02902816470970016
6906.444246884712,0.028983196916081748
6906.445246656927,0.02893579822183767
6906.446246429143,0.02888597934765376
6906.447246201358,0.028833751332065498
6906.448245973573,0.0287791255264682
6906.449245745788,0.02872211359003381
6906.450245518004,0.028662727484537492
6906.451245290219,0.02860097946909721
6906.452245062434,0.02853688209482945
6906.453244834649,0.02847044819942416
6906.454244606864,0.028401690901642244
6906.45524437908,0.028330623595738905
6906.456244151295,0.028257259945816675
6906.457243923511,0.028181613880112134
6906.458243695725,0.02810369958522089
6906.459243467941,0.02802353150026544
6906.460243240156,0.02794112431101103
6906.461243012372,0.027856492943934393
6906.462242784587,0.027769652560250383
6906.463242556802,0.027680618549901108
6906.464242329017,0.027589406525511884
6906.465242101232,0.027496032316317868
6906.466241873448,0.027400511962064906
6906.467241645663,0.027302861706887806
6906.468241417879,0.02720309799316899
6906.469241190093,0.027101237455380303
6906.470240962309,0.02699729691391063
6906.471240734524,0.02689129336888205
6906.47224050674,0.02678324399395711
6906.473240278955,0.026673166130139998
6906.4742400511695,0.026561077279574494
6906.475239823385,0.02644699509934189
6906.4762395956,0.026330937395262384
6906.477239367816,0.026212922115703884
6906.478239140031,0.026092967345402417
6906.479238912247,0.025971091299298744
6906.480238684461,0.02584731231639583
6906.481238456677,0.02572164885364184
6906.482238228892,0.02559411947984316
6906.483238001108,0.025464742869611746
6906.484237773323,0.025333537797350716
6906.4852375455375,0.025200523131281724
6906.486237317753,0.0250657178275174
6906.487237089968,0.024929140924181848
6906.488236862184,0.024790811535581724
6906.489236634399,0.024650748846430263
6906.490236406615,0.02450897210612652
6906.491236178829,0.024365500623091826
6906.492235951045,0.0242203537591654
6906.49323572326,0.024073550924061122
6906.494235495476,0.023925111569887296
6906.495235267691,0.023775055185731597
6906.4962350399055,0.023623401292313394
6906.497234812121,0.02347016943670607
6906.498234584336,0.0233153791871321
6906.499234356552,0.023159050127834053
6906.500234128767,0.02300120185402471
6906.501233900983,0.022841853966919557
6906.502233673197,0.022681026068854897
6906.503233445413,0.022518737758494542
6906.504233217628,0.022355008626127704
6906.505232989844,0.022189858249060508
6906.506232762058,0.022023306187103048
6906.5072325342735,0.02185537197815391
6906.508232306489,0.021686075133883806
6906.509232078704,0.021515435135519893
6906.51023185092,0.021343471429732468
6906.511231623135,0.02117020342462567
6906.512231395351,0.020995650485833964
6906.513231167565,0.020819831932726192
6906.514230939781,0.020642767034719248
6906.515230711996,0.02046447500770356
6906.516230484212,0.02028497501058288
6906.517230256426,0.02010428614193118
6906.5182300286415,0.019922427436769623
6906.519229800857,0.01973941786346669
6906.520229573072,0.019555276320764634
6906.521229345288,0.019370021634935147
6906.522229117503,0.019183672557066937
6906.523228889718,0.018996247760487556
6906.524228661933,0.018807765838321434
6906.525228434149,0.01861824530118568
6906.526228206364,0.018427704575024885
6906.52722797858,0.01823616199908575
6906.528227750794,0.01804363582403207
6906.5292275230095,0.017850144210200352
6906.530227295225,0.017655705225995973
6906.53122706744,0.01746033684642966
6906.532226839656,0.017264056951793814
6906.533226611871,0.017066883326478186
6906.534226384086,0.016868833657924423
6906.535226156301,0.016669925535719134
6906.536225928517,0.016470176450825373
6906.537225700732,0.016269603794952597
6906.538225472948,0.01606822486006543
6906.539225245162,0.01586605683803163
6906.540225017377,0.01566311682040969
6906.541224789593,0.01545942179837647
6906.542224561808,0.015254988662795026
6906.543224334024,0.015049834204422559
6906.544224106239,0.014843975114258216
6906.545223878454,0.014637427984030102
6906.546223650669,0.014430209306820593
6906.547223422885,0.014222335477828855
6906.5482231951,0.014013822795269254
6906.549222967316,0.01380468746140418
6906.55022273953,0.0135949455837098
6906.551222511745,0.013384613176173094
6906.552222283961,0.013173706160718604
6906.553222056176,0.012962240368763244
6906.554221828392,0.012750231542897648
6906.555221600607,0.012537695338692586
6906.556221372822,0.012324647326629178
6906.557221145037,0.012111102994151737
6906.558220917253,0.011897077747842261
6906.559220689468,0.011682586915715557
6906.560220461684,0.011467645749633942
6906.561220233898,0.011252269427840318
6906.562220006113,0.011036473057608041
6906.563219778329,0.010820271678005651
6906.564219550544,0.010603680262774015
6906.56521932276,0.010386713723312948
6906.566219094975,0.010169386911773841
6906.56721886719,0.009951714624254348
6906.568218639405,0.009733711604090785
6906.569218411621,0.009515392545243594
6906.570218183836,0.009296772095770942
6906.5712179560505,0.009077864861385388
6906.572217728266,0.008858685409088464
6906.573217500481,0.008639248270877958
6906.574217272697,0.008419567947522758
6906.575217044912,0.008199658912400288
6906.576216817128,0.007979535615391775
6906.577216589343,0.00775921248683092
6906.578216361558,0.007538703941501801
6906.579216133773,0.0073180243826820495
6906.580215905989,0.007097188206227429
6906.581215678204,0.00687620980469382
6906.5822154504185,0.006655103571492409
6906.583215222634,0.006433883905073541
6906.584214994849,0.0062125652131343
6906.585214767065,0.005991161916844499
6906.58621453928,0.005769688455085406
6906.587214311496,0.005548159288695242
6906.58821408371,0.005326588904715229
6906.589213855926,0.005104991820629847
6906.590213628141,0.004883382588594814
6906.5912134003565,0.004661775799646292
6906.592213172572,0.004440186087884799
6906.5932129447865,0.004218628134627416
6906.594212717002,0.003997116672522011
6906.595212489217,0.0037756664896174755
6906.596212261433,0.0035542924333843338
6906.597212033648,0.003333009414680455
6906.598211805864,0.0031118324116570133
6906.599211578078,0.0028907764736001342
6906.600211350294,0.0026698567247038767
6906.601211122509,0.0024490883677702855
6906.6022108947245,0.0022284866878322512
6906.60321066694,0.002008067055694856
6906.6042104391545,0.001787844931390793
6906.60521021137,0.0015678358675454021
6906.606209983585,0.0013480555126468385
6906.607209755801,0.001128519614216925
6906.608209528016,0.000909244021878275
6906.609209300232,0.0006902446903133667
6906.610209072446,0.00047153768211132083
6906.611208844662,0.00025313917049823363
6906.612208616877,3.506544194701973e-05
6906.6132083890925,-0.0001826671013371315
6906.614208161308,-0.00040004193905936826
6906.6152079335225,-0.0006170424306092242
6906.616207705738,-0.0008336518129690548
6906.617207477953,-0.0010498531987593335
6906.618207250169,-0.0012656295744227749
6906.619207022384,-0.0014809637985487973
6906.6202067946,-0.0016958386003394675
6906.621206566814,-0.001910236578217831
6906.62220633903,-0.0021241401985794394
6906.623206111245,-0.0023375317946879074
6906.6242058834605,-0.002550393565715481
6906.625205655676,-0.0027627075759297827
6906.62620542789,-0.002974455754028085
6906.627205200106,-0.003185619892620626
6906.628204972321,-0.0033961816478645227
6906.629204744537,-0.003606122539249866
6906.630204516752,-0.0038154239495394927
6906.631204288968,-0.004024067124863823
6906.632204061182,-0.004232033174971975
6906.633203833398,-0.00443930307364017
6906.634203605613,-0.004645857659238201
6906.6352033778285,-0.004851677635454434
6906.636203150043,-0.005056743572179492
6906.637202922258,-0.00526103590654844
6906.638202694474,-0.00546453494414097
6906.639202466689,-0.005667220860338829
6906.640202238905,-0.005869073701839581
6906.64120201112,-0.006070073388325705
6906.642201783336,-0.006270199714288056
6906.64320155555,-0.006469432351002815
6906.644201327766,-0.006667750848661158
6906.645201099981,-0.006865134638650996
6906.6462008721965,-0.00706156303599023
6906.647200644411,-0.007257015241910985
6906.648200416626,-0.0074514703465942975
6906.649200188842,-0.007644907332054674
6906.650199961057,-0.007837305075173866
6906.651199733273,-0.008028642350883132
6906.652199505488,-0.008218897835493105
6906.653199277703,-0.008408050110170238
6906.654199049918,-0.008596077664558572
6906.655198822134,-0.008782958900545234
6906.656198594349,-0.008968672136167713
6906.657198366564,-0.00915319560966058
6906.658198138779,-0.009336507483638911
6906.659197910994,-0.009518585849415345
6906.66019768321,-0.009699408731447543
6906.661197455425,-0.009878954091912683
6906.662197227641,-0.010057199835405805
6906.663196999856,-0.010234123813758988
6906.664196772071,-0.010409703830978712
6906.665196544286,-0.010583917648299001
6906.666196316502,-0.010756742989348277
6906.667196088717,-0.01092815754542803
6906.668195860932,-0.011098138980901636
6906.669195633147,-0.011266664938691702
6906.670195405362,-0.011433713045884433
6906.671195177578,-0.011599260919439481
6906.672194949793,-0.011763286172003702
6906.673194722009,-0.011925766417827135
6906.674194494224,-0.012086679278779263
6906.675194266439,-0.012246002390463485
6906.676194038654,-0.012403713408427275
6906.6771938108695,-0.012559790014465241
6906.678193583085,-0.012714209923011923
6906.6791933553,-0.012866950887620843
6906.680193127515,-0.013017990707526218
6906.68119289973,-0.0131673072342836
6906.682192671946,-0.013314878378485837
6906.683192444161,-0.013460682116550857
6906.684192216377,-0.01360469649757808
6906.685191988592,-0.013746899650270471
6906.686191760807,-0.01388726978991964
6906.687191533022,-0.014025785225451556
6906.6881913052375,-0.014162424366530566
6906.689191077453,-0.014297165730719603
6906.690190849668,-0.014429987950694409
6906.691190621883,-0.014560869781509512
6906.692190394098,-0.014689790107913698
6906.693190166314,-0.014816727951712502
6906.694189938529,-0.014941662479175055
6906.695189710745,-0.015064573008482374
6906.69618948296,-0.015185439017213889
6906.697189255175,-0.015304240149868654
6906.69818902739,-0.01542095622541746
6906.6991887996055,-0.0155355672448817
6906.700188571821,-0.015648053398934776
6906.701188344036,-0.015758395075521698
6906.702188116251,-0.015866572867492438
6906.703187888466,-0.01597256758024471
6906.704187660682,-0.016076360239371736
6906.705187432897,-0.016177932098310626
6906.706187205113,-0.016277264645986875
6906.707186977328,-0.01637433961445047
6906.708186749543,-0.016469138986499057
6906.709186521758,-0.01656164500328355
6906.7101862939735,-0.016651840171891655
6906.711186066189,-0.016739707272904625
6906.712185838404,-0.016825229367922627
6906.713185610619,-0.016908389807053878
6906.714185382834,-0.016989172236362694
6906.71518515505,-0.017067560605271242
6906.716184927265,-0.01714353917390964
6906.717184699481,-0.01721709252040873
6906.718184471695,-0.017288205548129605
6906.719184243911,-0.017356863492823817
6906.720184016126,-0.017423051929718165
6906.7211837883415,-0.017486756780518073
6906.722183560557,-0.01754796432032371
6906.723183332771,-0.01760666118445342
6906.724183104987,-0.017662834375169325
6906.725182877202,-0.017716471268300442
6906.726182649418,-0.017767559619759045
6906.727182421633,-0.01781608757194645
6906.728182193849,-0.017862043660044825
6906.729181966063,-0.01790541681819196
6906.730181738279,-0.017946196385536167
6906.731181510494,-0.01798437211216877
6906.7321812827095,-0.018019934164931733
6906.733181054925,-0.01805287313309814
6906.734180827139,-0.01808318003392319
6906.735180599355,-0.018110846318063336
6906.73618037157,-0.01813586387486104
6906.737180143786,-0.018158225037492558
6906.738179916001,-0.01817792258797604
6906.739179688217,-0.01819494976203712
6906.740179460431,-0.018209300253829434
6906.741179232647,-0.018220968220507328
6906.742179004862,-0.018229948286648406
6906.743178777077,-0.01823623554852368
6906.744178549293,-0.018239825578213367
6906.745178321507,-0.01824071442756645
6906.746178093723,-0.018238898632002443
6906.747177865938,-0.01823437521415385
6906.748177638154,-0.01822714168734806
6906.749177410369,-0.01821719605892751
6906.750177182585,-0.018204536833407337
6906.751176954799,-0.018189163015469675
6906.752176727015,-0.018171074112794266
6906.75317649923,-0.018150270138725066
6906.754176271445,-0.018126751614772823
6906.755176043661,-0.018100519572953784
6906.756175815875,-0.018071575557964768
6906.757175588091,-0.018039921629194988
6906.758175360306,-0.01800556036257516
6906.759175132522,-0.017968494852264445
6906.760174904737,-0.017928728712175927
6906.761174676953,-0.017886266077341503
6906.762174449167,-0.017841111605117182
6906.763174221383,-0.01779327047622999
6906.764173993598,-0.01774274839566776
6906.765173765813,-0.017689551593413327
6906.766173538028,-0.01763368682502456
6906.767173310243,-0.017575161372061904
6906.768173082459,-0.01751398304236491
6906.769172854674,-0.0174501601701795
6906.77017262689,-0.017383701616137632
6906.771172399105,-0.017314616767091208
6906.772172171321,-0.017242915535802077
6906.773171943535,-0.017168608360490115
6906.774171715751,-0.017091706204241486
6906.775171487966,-0.01701222055427929
6906.776171260181,-0.016930163421098886
6906.777171032396,-0.016845547337470377
6906.778170804611,-0.016758385357311004
6906.779170576827,-0.016668691054430477
6906.780170349042,-0.01657647852115254
6906.781170121258,-0.016481762366816533
6906.782169893473,-0.016384557716163085
6906.783169665688,-0.016284880207608352
6906.784169437903,-0.01618274599141162
6906.785169210119,-0.016078171727741356
6906.786168982334,-0.015971174584644875
6906.787168754549,-0.015861772235927083
6906.788168526764,-0.015749982858943617
6906.789168298979,-0.01563582513231382
6906.790168071195,-0.015519318233558772
6906.79116784341,-0.01540048183666952
6906.792167615626,-0.01527933610961046
6906.793167387841,-0.01515590171176261
6906.794167160056,-0.01503019979131123
6906.795166932271,-0.014902251982581953
6906.796166704487,-0.014772080403329163
6906.797166476702,-0.014639707651980081
6906.798166248917,-0.014505156804837629
6906.799166021132,-0.01436845141324501
6906.800165793347,-0.014229615500714785
6906.801165565563,-0.014088673560025298
6906.802165337778,-0.013945650550287457
6906.803165109994,-0.01380057189398502
6906.804164882209,-0.013653463473991736
6906.805164654424,-0.013504351630568845
6906.806164426639,-0.013353263158346562
6906.807164198855,-0.0132002253032931
6906.80816397107,-0.013045265759674789
6906.809163743285,-0.01288841266701072
6906.8101635155,-0.012729694607025159
6906.811163287715,-0.01256914060060076
6906.812163059931,-0.012406780104735417
6906.813162832146,-0.012242643009505309
6906.814162604362,-0.012076759635036464
6906.815162376577,-0.011909160728486867
6906.816162148792,-0.011739877461040764
6906.817161921007,-0.011568941424916532
6906.818161693223,-0.011396384630389066
6906.819161465438,-0.01122223950282738
6906.820161237653,-0.011046538879747757
6906.821161009868,-0.010869316007882624
6906.822160782083,-0.010690604540265207
6906.823160554299,-0.010510438533329877
6906.824160326514,-0.01032885244402801
6906.82516009873,-0.0101458811269591
6906.826159870945,-0.009961559831516783
6906.82715964316,-0.009775924199049315
6906.828159415375,-0.009589010260033887
6906.82915918759,-0.009400854431263907
6906.830158959806,-0.009211493513048128
6906.83115873202,-0.009020964686420092
6906.832158504236,-0.008829305510356034
6906.833158276451,-0.00863655391899897
6906.834158048667,-0.008442748218886326
6906.835157820882,-0.008247927086178126
6906.836157593098,-0.008052129563882418
6906.837157365313,-0.00785539505907439
6906.838157137528,-0.00765776334010543
6906.839156909743,-0.007459274533798223
6906.840156681958,-0.007259969122623947
6906.841156454174,-0.00705988794185754
6906.842156226388,-0.006859072176707044
6906.843155998604,-0.006657563359413055
6906.844155770819,-0.0064554033663142656
6906.845155543035,-0.006252634414875106
6906.84615531525,-0.006049299060671355
6906.847155087466,-0.005845440194329495
6906.84815485968,-0.005641101038415288
6906.849154631896,-0.005436325144266867
6906.850154404111,-0.005231156388767279
6906.851154176326,-0.005025638971051164
6906.852153948542,-0.004819817409139949
6906.853153720756,-0.004613736536499686
6906.854153492972,-0.004407441498515399
6906.855153265187,-0.004200977748875577
6906.856153037403,-0.003994391045860261
6906.857152809618,-0.003787727448526034
6906.858152581834,-0.003581033312781183
6906.859152354048,-0.0033743552873443136
6906.860152126264,-0.0031677403095797477
6906.861151898479,-0.002961235601203185
6906.862151670694,-0.0027548886638512583
6906.86315144291,-0.0025487472745088224
6906.864151215124,-0.0023428594807880245
6906.86515098734,-0.002137273596053438
6906.866150759555,-0.0019320381943877018
6906.867150531771,-0.0017272021053922888
6906.868150303986,-0.0015228144088181527
6906.869150076202,-0.0013189244290211335
6906.870149848416,-0.0011155817292370874
6906.871149620632,-0.0009128361056717828
6906.872149392847,-0.0007107375814006293
6906.873149165062,-0.0005093364000732815
6906.874148937278,-0.0003086830194180609
6906.875148709492,-0.00010882810454097285
6906.876148481708,9.017747898611881e-05
6906.877148253923,0.00028828267225383593
6906.878148026139,0.0004854362303660401
6906.879147798354,0.0006815867300190545
6906.8801475705695,0.0008766825773155099
6906.881147342784,0.001070672015818999
6906.882147115,0.001263503134855691
6906.883146887215,0.0014551238780689882
6906.88414665943,0.0016454820522332192
6906.885146431646,0.0018345253363322822
6906.88614620386,0.002022201290909065
6906.887145976076,0.00220845736769139
6906.888145748291,0.00239324091950009
6906.889145520507,0.0025764992104446234
6906.890145292722,0.0027581794264113814
6906.8911450649375,0.0029382286858494937
6906.892144837152,0.0031165940508586
6906.893144609368,0.0032932225385826712
6906.894144381583,0.0034680611329136013
6906.895144153798,0.003641056796507917
6906.896143926013,0.0038121564831195727
6906.897143698228,0.003981307150251395
6906.898143470444,0.00414845577212731
6906.899143242659,0.004313549352986978
6906.900143014875,0.004476534940703991
6906.90114278709,0.004637359640728182
6906.9021425593055,0.0047959706303521
6906.90314233152,0.00495231517330115
6906.904142103736,0.005106340634646438
6906.905141875951,0.005257994496038911
6906.906141648166,0.0054072243712630814
6906.907141420381,0.0055539780221083345
6906.908141192596,0.005698203374555664
6906.909140964812,0.005839848535277571
6906.910140737027,0.005978861808448843
6906.911140509243,0.006115191712865886
6906.912140281458,0.006248786999372379
6906.913140053673,0.006379596668589017
6906.914139825888,0.006507569988945214
6906.915139598103,0.006632656515010754
6906.916139370319,0.0067548061061254334
6906.917139142534,0.006873968945324787
6906.918138914749,0.006990095558559991
6906.919138686964,0.007103136834209904
6906.92013845918,0.007213044042883006
6906.921138231395,0.007319768857506694
6906.922138003611,0.007423263373700998
6906.923137775826,0.00752348013043342
6906.924137548041,0.007620372130951153
6906.925137320256,0.007713892863986604
6906.926137092471,0.007803996325231727
6906.927136864687,0.007890637039076468
6906.928136636902,0.007973770080606287
6906.929136409117,0.008053351097853507
6906.930136181332,0.008129336334297058
6906.931135953548,0.008201682651604916
6906.932135725763,0.008270347552613383
6906.933135497979,0.008335289204537112
6906.934135270194,0.008396466462403543
6906.935135042409,0.008453838892705146
6906.936134814624,0.008507366797262585
6906.937134586839,0.008557011237291518
6906.938134359055,0.008602734057665484
6906.93913413127,0.00864449791136689
6906.940133903485,0.008682266284117762
6906.9411336757,0.008716003519181587
6906.942133447916,0.008745674842327087
6906.943133220131,0.008771246386944535
6906.944132992347,0.008792685219304715
6906.945132764562,0.008809959363950287
6906.9461325367765,0.008823037829208881
6906.947132308992,0.0088318906328167
6906.948132081207,0.008836488827640805
6906.949131853423,0.00883680452748743
6906.950131625638,0.0088328109329828
6906.951131397853,0.008824482357511723
6906.952131170068,0.008811794253198032
6906.953130942284,0.008794723236909444
6906.954130714499,0.008773247116267775
6906.955130486715,0.008747344915643497
6906.95613025893,0.008716996902111631
6906.9571300311445,0.008682184611343503
6906.95812980336,0.00864289087340638
6906.959129575575,0.008599099838440321
6906.960129347791,0.0085507970021787
6906.961129120005,0.008497969231276003
6906.962128892221,0.008440604788403545
6906.963128664436,0.00837869335707086
6906.964128436652,0.008312226066127673
6906.965128208867,0.008241195513898732
6906.9661279810825,0.008165595791901289
6906.967127753298,0.008085422508092759
6906.9681275255125,0.008000672809594154
6906.969127297728,0.007911345404833124
6906.970127069943,0.007817440585049035
6906.971126842159,0.0077189602451013745
6906.972126614373,0.007615907903521826
6906.973126386589,0.0075082887217498475
6906.974126158804,0.007396109522491275
6906.97512593102,0.007279378807139629
6906.976125703235,0.00715810677220037
6906.9771254754505,0.007032305324659257
6906.978125247665,0.006901988096237363
6906.9791250198805,0.006767170456476938
6906.980124792096,0.006627869524604302
6906.981124564311,0.006484104180118073
6906.982124336527,0.006335895072053431
6906.983124108741,0.006183264626875638
6906.984123880957,0.006026237054959022
6906.985123653172,0.005864838355610847
6906.986123425388,0.005699096320603337
6906.987123197603,0.00552904053618129
6906.9881229698185,0.00535470238351731
6906.989122742033,0.005176115037591451
6906.9901225142485,0.004993313464476994
6906.991122286464,0.004806334417018987
6906.992122058679,0.00461521642889708
6906.993121830895,0.004419999807069084
6906.994121603109,0.004220726622596418
6906.995121375325,0.004017440699857375
6906.99612114754,0.0038101876041586984
6906.997120919756,0.0035990146277604727
6906.998120691971,0.0033839707743336606
6906.9991204641865,0.003165106741873843
6907.000120236401,0.002942474904098742
6907.001120008616,0.002716129290360932
6907.002119780832,0.002486125564110687
6907.003119553047,0.0022525209999470714
6907.004119325263,0.0020153744592981766
6907.005119097477,0.0017747463647737754
6907.006118869693,0.0015306986732356624
6907.007118641908,0.0012832948476325986
6907.008118414124,0.00103259982764806
6907.009118186339,0.0007786799992099719
6907.0101179585545,0.000521603162912296
6907.011117730769,0.0002614385013987812
6907.012117502984,-1.7434542405642965e-06
6907.0131172752,-0.00026787085900964214
6907.014117047415,-0.0005368705894325197
6907.015116819631,-0.0008086682798154565
6907.016116591845,-0.0010831883592947982
6907.017116364061,-0.0013603540896214067
6907.018116136276,-0.0016400876036330324
6907.019115908492,-0.0019223099443669
6907.020115680707,-0.0022069411047657404
6907.0211154529225,-0.002493900067931505
6907.022115225137,-0.0027831048478820348
6907.023114997352,-0.0030744725307669256
6907.024114769568,-0.0033679193164997813
6907.025114541783,-0.003663360560764908
6907.026114313998,-0.0039607108173573
6907.027114086213,-0.0042598838808155055
6907.028113858429,-0.004560792829307648
6907.029113630644,-0.004863350067731535
6907.03011340286,-0.005167467370990467
6907.031113175075,-0.005473055927407015
6907.03211294729,-0.0057800263822377325
6907.033112719505,-0.006088288881252484
6907.03411249172,-0.006397753114342801
6907.035112263936,-0.006708328359124427
6907.036112036151,-0.0070199235245000146
6907.037111808366,-0.007332447194148836
6907.038111580581,-0.0076458076699112395
6907.039111352797,-0.007959913015036636
6907.040111125012,-0.00827467109726476
6907.041110897228,-0.00858998963171109
6907.042110669443,-0.008905776223528358
6907.0431104416575,-0.009221938410317133
6907.044110213873,-0.009538383704259497
6907.045109986088,-0.009855019633950721
6907.046109758304,-0.010171753785904826
6907.047109530519,-0.010488493845710637
6907.048109302734,-0.01080514763881577
6907.049109074949,-0.011121623170916603
6907.050108847165,-0.011437828667932876
6907.05110861938,-0.011753672615546079
6907.052108391596,-0.012069063798281139
6907.053108163811,-0.012383911338111297
6907.0541079360255,-0.012698124732566382
6907.055107708241,-0.01301161389232499
6907.056107480456,-0.013324289178271623
6907.057107252672,-0.01363606143800042
6907.058107024887,-0.013946842041747835
6907.059106797102,-0.014256542917737468
6907.060106569317,-0.014565076586921166
6907.061106341533,-0.014872356197101342
6907.062106113748,-0.01517829555642033
6907.063105885964,-0.015482809166203494
6907.064105658179,-0.015785812253143714
6907.0651054303935,-0.01608722080081566
6907.066105202609,-0.016386951580509204
6907.067104974824,-0.016684922181372148
6907.06810474704,-0.01698105103985332
6907.069104519255,-0.01727525746843791
6907.07010429147,-0.017567461683667657
6907.071104063685,-0.01785758483343923
6907.072103835901,-0.01814554902357484
6907.073103608116,-0.01843127734365969
6907.074103380332,-0.018714693892141428
6907.075103152547,-0.01899572380068723
6907.0761029247615,-0.019274293257794714
6907.077102696977,-0.01955032953165331
6907.078102469192,-0.019823760992253164
6907.079102241408,-0.020094517132739142
6907.080102013623,-0.02036252859000786
6907.081101785838,-0.02062772716454611
6907.082101558053,-0.02089004583950941
6907.083101330269,-0.02114941879903967
6907.084101102484,-0.02140578144582134
6907.0851008747,-0.021659070417875407
6907.086100646915,-0.021909223604590952
6907.0871004191295,-0.022156180161994044
6907.088100191345,-0.022399880527253602
6907.08909996356,-0.02264026643242423
6907.090099735776,-0.02287728091742588
6907.09109950799,-0.02311086834226036
6907.092099280206,-0.023340974398464713
6907.093099052421,-0.02356754611980173
6907.094098824637,-0.023790531892187796
6907.095098596852,-0.02400988146285864
6907.096098369068,-0.024225545948773637
6907.097098141283,-0.024437477844259557
6907.098097913497,-0.02464563102789521
6907.099097685713,-0.024849960768638785
6907.100097457928,-0.025050423731200224
6907.101097230144,-0.02524697798066164
6907.102097002358,-0.025439582986349303
6907.103096774574,-0.02562819962496137
6907.104096546789,-0.025812790182956097
6907.105096319005,-0.0259933183582057
6907.10609609122,-0.026169749260921735
6907.107095863436,-0.0263420494138581
6907.10809563565,-0.026510186751798486
6907.109095407865,-0.02667413062033542
6907.110095180081,-0.02683385177394856
6907.111094952296,-0.026989322373390464
6907.112094724512,-0.027140515982388414
6907.113094496726,-0.027287407563671488
6907.114094268942,-0.027429973474332327
6907.115094041157,-0.027568191460533478
6907.116093813373,-0.027702040651568463
6907.117093585588,-0.027831501553288052
6907.118093357803,-0.02795655604090229
6907.119093130018,-0.028077187351169156
6907.120092902233,-0.028193380073980808
6907.121092674449,-0.02830512014335844
6907.122092446664,-0.028412394827866942
6907.12309221888,-0.02851519272046043
6907.124091991094,-0.02861350372776982
6907.12509176331,-0.028707319058843637
6907.126091535525,-0.028796631213353078
6907.127091307741,-0.028881433969272508
6907.128091079956,-0.028961722370046447
6907.129090852171,-0.029037492711254175
6907.130090624386,-0.02910874252678328
6907.131090396601,-0.029175470574523632
6907.132090168817,-0.029237676821593547
6907.133089941032,-0.029295362429110443
6907.134089713248,-0.029348529736518893
6907.135089485462,-0.029397182245489595
6907.136089257678,-0.02944132460340368
6907.137089029893,-0.02948096258643744
6907.1380888021085,-0.029516103082263427
6907.139088574324,-0.029546754072384513
6907.140088346539,-0.029572924614118194
6907.141088118754,-0.02959462482224873
6907.142087890969,-0.02961186585036509
6907.143087663185,-0.029624659871902735
6907.1440874354,-0.029633020060907102
6907.145087207616,-0.029636960572536536
6907.14608697983,-0.029636496523321974
6907.147086752046,-0.02963164397120036
6907.148086524261,-0.029622419895338255
6907.1490862964765,-0.029608842175761752
6907.150086068692,-0.029590929572808407
6907.151085840907,-0.02956870170641645
6907.152085613122,-0.029542179035266205
6907.153085385337,-0.029511382835788347
6907.154085157553,-0.02947633518105326
6907.155084929768,-0.029437058919555628
6907.156084701983,-0.029393577653908286
6907.157084474198,-0.02934591571945946
6907.158084246414,-0.029294098162847636
6907.159084018629,-0.0292381507205084
6907.1600837908445,-0.029178099797147947
6907.16108356306,-0.029113972444198076
6907.162083335275,-0.029045796338267805
6907.16308310749,-0.028973599759606825
6907.164082879705,-0.02889741157059607
6907.165082651921,-0.028817261194280765
6907.166082424136,-0.028733178592961237
6907.167082196351,-0.028645194246856773
6907.168081968566,-0.028553339132857573
6907.169081740782,-0.02845764470337964
6907.170081512997,-0.02835814286533714
6907.1710812852125,-0.028254865959246526
6907.172081057428,-0.02814784673847619
6907.1730808296425,-0.02803711834865495
6907.174080601858,-0.02792271430725222
6907.175080374073,-0.027804668483342166
6907.176080146289,-0.027683015077563683
6907.177079918504,-0.027557788602287588
6907.178079690719,-0.02742902386200212
6907.179079462934,-0.027296755933927466
6907.18007923515,-0.027161020148869872
6907.181079007365,-0.02702185207232558
6907.1820787795805,-0.02687928748584462
6907.183078551796,-0.02673336236866436
6907.18407832401,-0.026584112879622344
6907.185078096226,-0.026431575339357683
6907.186077868441,-0.026275786212809907
6907.187077640657,-0.026116782092023928
6907.188077412872,-0.025954599679269216
6907.189077185087,-0.025789275770480923
6907.190076957302,-0.025620847239030353
6907.191076729518,-0.02544935101983158
6907.192076501733,-0.025274824093790654
6907.1930762739485,-0.025097303472603465
6907.194076046164,-0.024916826183907684
6907.195075818378,-0.024733429256793955
6907.196075590594,-0.024547149707680883
6907.197075362809,-0.0243580245265579
6907.198075135025,-0.02416609066359969
6907.19907490724,-0.023971385016155266
6907.200074679455,-0.023773944416114398
6907.20107445167,-0.02357380561765362
6907.202074223886,-0.023371005285363417
6907.203073996101,-0.02316557998275774
6907.204073768316,-0.022957566161166395
6907.205073540532,-0.02274700014901038
6907.206073312746,-0.022533918141459656
6907.207073084962,-0.022318356190472365
6907.208072857177,-0.022100350195214304
6907.209072629393,-0.021879935892857024
6907.210072401608,-0.021657148849752873
6907.211072173823,-0.02143202445298518
6907.212071946038,-0.02120459790229173
6907.213071718254,-0.02097490420235952
6907.214071490469,-0.02074297815548881
6907.215071262684,-0.02050885435462425
6907.2160710349,-0.020272567176750914
6907.217070807114,-0.020034150776652937
6907.21807057933,-0.01979363908103261
6907.219070351545,-0.01955106578298778
6907.220070123761,-0.01930646433684559
6907.221069895975,-0.019059867953350677
6907.222069668191,-0.018811309595206202
6907.223069440406,-0.018560821972966043
6907.2240692126215,-0.018308437541276708
6907.225068984837,-0.01805418849546728
6907.226068757052,-0.017798106768485714
6907.227068529268,-0.01754022402817946
6907.228068301482,-0.017280571674918154
6907.229068073698,-0.01701918083955573
6907.230067845913,-0.016756082381728852
6907.231067618129,-0.016491306888488266
6907.232067390343,-0.01622488467325903
6907.233067162559,-0.01595684577512524
6907.234066934774,-0.015687219958434355
6907.2350667069895,-0.015416036712715851
6907.236066479205,-0.015143325252908622
6907.23706625142,-0.014869114519891336
6907.238066023635,-0.01459343318130988
6907.23906579585,-0.014316309632696023
6907.240065568066,-0.014037771998871476
6907.241065340281,-0.013757848135631608
6907.242065112497,-0.013476565631703132
6907.243064884711,-0.0131939518109702
6907.244064656927,-0.012910033734963307
6907.245064429142,-0.012624838205605273
6907.2460642013575,-0.012338391768208366
6907.247063973573,-0.012050720714716337
6907.248063745788,-0.011761851087184836
6907.249063518003,-0.011471808681493232
6907.250063290218,-0.011180619051280547
6907.251063062434,-0.010888307512097734
6907.252062834649,-0.010594899145768225
6907.253062606865,-0.010300418804948345
6907.254062379079,-0.010004891117878958
6907.255062151295,-0.009708340493319652
6907.25606192351,-0.009410791125656659
6907.2570616957255,-0.009112267000175926
6907.258061467941,-0.008812791898492862
6907.259061240156,-0.008512389404130592
6907.260061012371,-0.008211082908238786
6907.261060784586,-0.007908895615445444
6907.262060556802,-0.007605850549834211
6907.263060329017,-0.007301970561039929
6907.264060101233,-0.0069972783304552
6907.265059873447,-0.006691796377540767
6907.266059645663,-0.006385547066232469
6907.267059417878,-0.006078552611437436
6907.2680591900935,-0.005770835085612141
6907.269058962309,-0.005462416425414795
6907.270058734524,-0.005153318438424447
6907.271058506739,-0.004843562809919033
6907.272058278954,-0.004533171109704465
6907.27305805117,-0.004222164798986761
6907.274057823385,-0.003910565237279132
6907.275057595601,-0.0035983936893360428
6907.276057367815,-0.0032856713321064023
6907.277057140031,-0.0029724192616983444
6907.278056912246,-0.0026586585003484653
6907.2790566844615,-0.002344410003388835
6907.280056456677,-0.0020296946662056287
6907.281056228892,-0.0017145333311836945
6907.282056001107,-0.0013989467946318279
6907.283055773322,-0.001082955813683868
6907.284055545538,-0.0007665811131710087
6907.285055317753,-0.0004498433924609248
6907.286055089968,-0.0001327633322594474
6907.287054862183,0.00018463839862939142
6907.288054634399,0.0005023411365891046
6907.289054406614,0.0008203242165264834
6907.290054178829,0.0011385669652616028
6907.291053951045,0.0014570486949765141
6907.29205372326,0.0017757486967271954
6907.293053495475,0.0020946462340234954
6907.29405326769,0.002413720536481956
6907.295053039906,0.0027329507935564944
6907.296052812121,0.003052316148351942
6907.297052584336,0.003371795691525364
6907.298052356551,0.0036913684552799518
6907.299052128767,0.004011013407456128
6907.300051900982,0.004330709445724337
6907.301051673197,0.004650435391883898
6907.302051445413,0.0049701699862721846
6907.303051217627,0.005289891882288397
6907.304050989843,0.005609579641036181
6907.305050762058,0.00592921172608936
6907.306050534274,0.006248766498385133
6907.307050306489,0.006568222211249085
6907.308050078704,0.006887557005556471
6907.309049850919,0.007206748905034202
6907.310049623135,0.007525775811708074
6907.31104939535,0.007844615501499676
6907.312049167565,0.008163245619977407
6907.313048939781,0.008481643678265887
6907.314048711995,0.008799787049117932
6907.315048484211,0.00911765296315304
6907.316048256426,0.009435218505266057
6907.317048028642,0.00975246061120943
6907.318047800857,0.01006935606435213
6907.319047573072,0.010385881492618028
6907.320047345287,0.01070201336560626
6907.321047117503,0.011017727991895859
6907.322046889718,0.011333001516536765
6907.323046661933,0.01164780991872931
6907.324046434149,0.011962129009694206
6907.325046206363,0.012275934430735182
6907.326045978579,0.012589201651496563
6907.327045750794,0.012901905968418026
6907.32804552301,0.013214022503388845
6907.329045295225,0.013525526202603819
6907.33004506744,0.013836391835623005
6907.331044839655,0.014146593994637177
6907.332044611871,0.014456107093940754
6907.333044384086,0.014764905369613645
6907.334044156301,0.015072962879413133
6907.335043928517,0.01538025350287653
6907.336043700731,0.015686750941634933
6907.337043472947,0.01599242871993782
6907.338043245162,0.01629726018538772
6907.339043017378,0.01660121850988359
6907.340042789593,0.01690427669077108
6907.341042561808,0.01720640755219741
6907.342042334023,0.01750758374666841
6907.343042106239,0.017807777756805
6907.344041878454,0.018106961897296492
6907.345041650669,0.018405108317048058
6907.346041422885,0.018702189001519817
6907.347041195099,0.01899817577525502
6907.348040967315,0.019293040304594923
6907.34904073953,0.019586754100578
6907.350040511746,0.01987928852202111
6907.35104028396,0.02017061477878023
6907.352040056176,0.020460703935188226
6907.353039828391,0.0207495269136671
6907.354039600607,0.0210370544985121
6907.355039372822,0.021323257339844946
6907.356039145037,0.021608105957733464
6907.357038917253,0.02189157074647485
6907.358038689467,0.022173621979039763
6907.359038461683,0.02245422981167446
6907.360038233898,0.022733364288658027
6907.361038006114,0.023010995347211703
6907.362037778328,0.023287092822557084
6907.363037550544,0.023561626453119752
6907.364037322759,0.023834565885874695
6907.365037094975,0.02410588068182949
6907.36603686719,0.02437554032164098
6907.367036639405,0.024643514211361073
6907.36803641162,0.024909771688306936
6907.369036183835,0.025174282027050774
6907.370035956051,0.025437014445524226
6907.371035728266,0.02569793811123241
6907.372035500482,0.02595702214757264
6907.373035272696,0.026214235640252746
6907.374035044912,0.02646954764380413
6907.375034817127,0.026722927188184663
6907.376034589342,0.026974343285466416
6907.377034361558,0.027223764936603376
6907.378034133773,0.027471161138274094
6907.379033905988,0.027716500889794285
6907.380033678203,0.0279597532000943
6907.381033450419,0.02820088709475646
6907.382033222634,0.028439871623107293
6907.38303299485,0.02867667586535967
6907.384032767064,0.028911268939800283
6907.38503253928,0.02914362001001779
6907.386032311495,0.029373698292167426
6907.38703208371,0.029601473062267902
6907.388031855926,0.029826913663526602
6907.389031628141,0.030049989513689243
6907.390031400356,0.03027067011241015
6907.391031172571,0.030488925048639395
6907.392030944787,0.03070472400802314
6907.393030717002,0.03091803678031364
6907.394030489218,0.0311288332667853
6907.395030261432,0.03133708348765347
6907.396030033648,0.031542757589492626
6907.397029805863,0.031745825852650816
6907.398029578078,0.03194625869865713
6907.399029350294,0.03214402669761934
6907.400029122509,0.03233910057560874
6907.401028894724,0.032531451222029426
6907.402028666939,0.03272104969696975
6907.403028439155,0.03290786723853349
6907.40402821137,0.033091875270149
6907.405027983586,0.03327304540785454
6907.4060277558,0.03345134946755883
6907.407027528016,0.033626759472275544
6907.408027300231,0.03379924765933121
6907.409027072446,0.033968786487545845
6907.410026844662,0.034135348644386075
6907.411026616877,0.034298907053090265
6907.412026389092,0.034459434879765286
6907.413026161307,0.03461690554045444
6907.414025933523,0.03477129270817589
6907.415025705738,0.03492257031993064
6907.416025477954,0.03507071258367898
6907.417025250168,0.03521569398528395
6907.418025022384,0.03535748929542025
6907.419024794599,0.0354960735764466
6907.420024566814,0.03563142218923958
6907.42102433903,0.03576351079998641
6907.422024111245,0.035892315386934305
6907.42302388346,0.036017812247093633
6907.424023655675,0.03613997800289193
6907.425023427891,0.03625878960877585
6907.426023200106,0.03637422435775803
6907.427022972321,0.03648625988790602
6907.428022744536,0.03659487418877027
6907.429022516752,0.036700045607748456
6907.430022288967,0.03680175285638359
6907.431022061182,0.036899975016593436
6907.432021833398,0.036994691546829106
6907.433021605612,0.037085882288160975
6907.434021377828,0.037173527470290166
6907.435021150043,0.037257607717484105
6907.436020922259,0.037338104054434884
6907.437020694474,0.037414997912039075
6907.438020466689,0.03748827113309782
6907.439020238904,0.03755790597793595
6907.44002001112,0.03762388512993861
6907.441019783335,0.037686191701004124
6907.44201955555,0.037744809236911425
6907.443019327766,0.037799721722600745
6907.44401909998,0.037850913587365996
6907.445018872196,0.037898369709957726
6907.446018644411,0.03794207542359576
6907.447018416627,0.03798201652089117
6907.448018188842,0.03801817925867755
6907.449017961057,0.038050550362752275
6907.450017733272,0.0380791170325289
6907.451017505488,0.03810386694560242
6907.452017277703,0.038124788262229675
6907.453017049918,0.038141869629727196
6907.454016822134,0.038155100186789505
6907.455016594348,0.03816446956773082
6907.456016366564,0.038169967906653175
6907.457016138779,0.038171585841543905
6907.458015910995,0.038169314518305394
6907.45901568321,0.038163145594719804
6907.460015455425,0.038153071244351154
6907.46101522764,0.038139084160387145
6907.462014999856,0.03812117755942272
6907.463014772071,0.03809934518518741
6907.464014544286,0.038073581312218246
6907.465014316502,0.03804388074948026
6907.466014088716,0.03801023884393622
6907.467013860932,0.03797265148406763
6907.468013633147,0.037931115103348456
6907.469013405363,0.03788562668367357
6907.470013177578,0.03783618375874333
6907.471012949793,0.03778278441740605
6907.472012722008,0.037725427306959616
6907.473012494223,0.03766411163641369
6907.474012266439,0.03759883717971347
6907.475012038654,0.037529604278925904
6907.47601181087,0.03745641384738889
6907.477011583084,0.0373792673728234
6907.4780113553,0.03729816692040819
6907.479011127515,0.037213115135816016
6907.480010899731,0.037124115248209834
6907.481010671946,0.0370311710731967
6907.482010444161,0.03693428701573675
6907.483010216376,0.03683346807300397
6907.484009988591,0.036728719837194924
6907.485009760807,0.03662004849828112
6907.486009533022,0.03650746084670052
6907.487009305238,0.03639096427598308
6907.488009077452,0.03627056678530524
6907.489008849668,0.03614627698196803
6907.490008621883,0.03601810408379331
6907.491008394099,0.03588605792143262
6907.492008166313,0.03575014894058326
6907.4930079385285,0.03561038820410608
6907.494007710744,0.03546678739403966
6907.495007482959,0.035319358813505716
6907.496007255175,0.03516811538850048
6907.49700702739,0.035013070669566715
6907.498006799605,0.03485423883334098
6907.49900657182,0.03469163468397062
6907.500006344036,0.03452527365439458
6907.501006116251,0.03435517180748231
6907.502005888467,0.03418134583702465
6907.503005660681,0.034003813068571115
6907.5040054328965,0.03382259146010775
6907.505005205112,0.033637699602570646
6907.506004977327,0.033449156720190304
6907.507004749543,0.03325698267066283
6907.508004521758,0.03306119794514455
6907.509004293973,0.03286182366806719
6907.510004066188,0.03265888159677137
6907.511003838404,0.03245239412095697
6907.512003610619,0.03224238426194916
6907.5130033828345,0.0320288756717796
6907.514003155049,0.03181189263208275
6907.5150029272645,0.03159146005280764
6907.51600269948,0.031367603470745915
6907.517002471695,0.03114034904787714
6907.518002243911,0.030909723569532768
6907.519002016126,0.030675754442380243
6907.520001788341,0.030438469692229023
6907.521001560556,0.03019789796166044
6907.522001332772,0.029954068507483493
6907.523001104987,0.029707011198018933
6907.5240008772025,0.02945675651021414
6907.525000649417,0.029203335526591497
6907.5260004216325,0.02894677993203322
6907.527000193848,0.02868712201040551
6907.527999966063,0.02842439464102521
6907.528999738279,0.028158631294972106
6907.529999510494,0.027889866031249856
6907.530999282709,0.02761813349279861
6907.531999054924,0.027343468902362084
6907.53299882714,0.027065908058211623
6907.533998599355,0.026785487329729504
6907.5349983715705,0.02650224365285326
6907.535998143785,0.026216214525382336
6907.5369979160005,0.02592743800214776
6907.537997688216,0.02563595269004492
6907.538997460431,0.02534179774292902
6907.539997232647,0.025045012856372294
6907.540997004862,0.024745638262281714
6907.541996777077,0.024443714723375847
6907.542996549292,0.024139283527519415
6907.543996321508,0.02383238648191434
6907.544996093723,0.023523065907146243
6907.5459958659385,0.023211364631085495
6907.546995638153,0.02289732598264219
6907.5479954103685,0.022580993785374686
6907.548995182584,0.022262412350951485
6907.549994954799,0.021941626472466454
6907.550994727015,0.0216186814176076
6907.55199449923,0.021293622921679727
6907.552994271445,0.02096649718048162
6907.55399404366,0.020637350843038256
6907.554993815876,0.02030623100418884
6907.555993588091,0.01997318519703134
6907.556993360306,0.019638261385224186
6907.557993132521,0.01930150795514571
6907.558992904736,0.018962973707911758
6907.559992676952,0.018622707851251814
6907.560992449167,0.01828075999124395
6907.561992221383,0.017937180123908894
6907.562991993597,0.01759201862666373
6907.563991765813,0.017245326249635855
6907.564991538028,0.016897154106838255
6907.565991310244,0.01654755366720748
6907.566991082459,0.016196576745506192
6907.567990854674,0.01584427549309247
6907.568990626889,0.015490702388558599
6907.569990399104,0.015135910228242455
6907.57099017132,0.014779952116614972
6907.571989943535,0.014422881456547484
6907.572989715751,0.014064751939463063
6907.573989487965,0.013705617535376066
6907.574989260181,0.013345532482824258
6907.575989032396,0.01298455127869785
6907.576988804612,0.012622728667969613
6907.577988576827,0.01226011963333004
6907.5789883490415,0.011896779384731158
6907.579988121257,0.011532763348842297
6907.580987893472,0.011168127158420695
6907.581987665688,0.010802926641599559
6907.582987437903,0.01043721781109587
6907.583987210119,0.010071056853340065
6907.584986982333,0.009704500117529562
6907.585986754549,0.009337604104608007
6907.586986526764,0.008970425456172106
6907.58798629898,0.00860302094330783
6907.588986071195,0.008235447455357812
6907.5899858434095,0.007867761988621736
6907.590985615625,0.00750002163499157
6907.59198538784,0.007132283570523573
6907.592985160056,0.006764605043949154
6907.593984932271,0.006397043365126776
6907.594984704487,0.006029655893437247
6907.595984476701,0.005662500026124781
6907.596984248917,0.005295633186586145
6907.597984021132,0.00492911281261013
6907.598983793348,0.004562996344569335
6907.599983565563,0.004197341213565977
6907.6009833377775,0.0038322048295332143
6907.601983109993,0.003467644569293311
6907.602982882208,0.0031037177645738974
6907.603982654424,0.002740481689983706
6907.604982426639,0.0023779935509493752
6907.605982198855,0.0020163104716152767
6907.606981971069,0.0016554894827087527
6907.607981743285,0.0012955875093736717
6907.6089815155,0.0009366613589757466
6907.609981287716,0.0005787677088836409
6907.610981059931,0.00022196309423040694
6907.6119808321455,-0.00013369610433972316
6907.612980604361,-0.00048815367293378667
6907.613980376576,-0.0008413535766760736
6907.614980148792,-0.0011932399719717444
6907.615979921007,-0.0015437572187620683
6907.616979693223,-0.001892849892765233
6907.617979465437,-0.0022404627976966933
6907.618979237653,-0.002586540977463077
6907.619979009868,-0.0029310297283237853
6907.620978782084,-0.0032738746110145393
6907.621978554298,-0.003615021462827296
6907.6229783265135,-0.003954416409641096
6907.623978098729,-0.004292005877898548
6907.624977870944,-0.004627736606522757
6907.62597764316,-0.004961555658769566
6907.626977415375,-0.005293410434010085
6907.62797718759,-0.005623248679438521
6907.628976959805,-0.00595101850170045
6907.629976732021,-0.006276668378436742
6907.630976504236,-0.0066001471697385425
6907.631976276452,-0.00692140412950883
6907.632976048666,-0.007240388916726293
6907.6339758208815,-0.0075570516066075216
6907.634975593097,-0.00787134270166384
6907.635975365312,-0.008183213142649554
6907.636975137528,-0.008492614319398776
6907.637974909743,-0.00879949808154852
6907.638974681958,-0.00910381674914619
6907.639974454173,-0.009405523123139976
6907.640974226389,-0.009704570495751116
6907.641973998604,-0.010000912660727205
6907.64297377082,-0.010294503923476027
6907.643973543034,-0.01058529911107956
6907.644973315249,-0.010873253582187882
6907.645973087465,-0.011158323236792713
6907.64697285968,-0.011440464525880344
6907.647972631896,-0.011719634460963555
6907.648972404111,-0.011995790623492052
6907.649972176326,-0.012268891174140716
6907.650971948541,-0.012538894861974879
6907.651971720757,-0.01280576103349161
6907.652971492972,-0.01306944964153598
6907.653971265188,-0.013329921254091178
6907.654971037402,-0.013587137062941472
6907.655970809617,-0.013841058892207088
6907.656970581833,-0.014091649206750307
6907.657970354048,-0.014338871120452387
6907.658970126264,-0.014582688404361124
6907.659969898479,-0.014823065494709202
6907.660969670694,-0.01505996750080371
6907.661969442909,-0.015293360212787283
6907.662969215125,-0.015523210109271499
6907.66396898734,-0.01574948436484311
6907.664968759555,-0.015972150857443627
6907.66596853177,-0.01619117817562261
6907.666968303985,-0.01640653562566486
6907.667968076201,-0.016618193238591445
6907.668967848416,-0.016826121777034367
6907.669967620632,-0.017030292741984424
6907.670967392847,-0.017230678379411588
6907.671967165062,-0.017427251686757003
6907.672966937277,-0.017619986419295578
6907.673966709493,-0.01780885709636789
6907.674966481708,-0.01799383900748
6907.675966253923,-0.018174908218269708
6907.676966026138,-0.018352041576337692
6907.677965798353,-0.018525216716941992
6907.678965570569,-0.018694412068554177
6907.679965342784,-0.018859606858275566
6907.680965115,-0.01902078111711171
6907.681964887215,-0.01917791568510327
6907.68296465943,-0.019330992216311196
6907.683964431645,-0.01947999318365408
6907.6849642038605,-0.01962490188359526
6907.685963976076,-0.019765702440677307
6907.6869637482905,-0.019902379811901433
6907.687963520506,-0.02003491979094937
6907.688963292721,-0.02016330901224542
6907.689963064937,-0.020287534954856426
6907.690962837152,-0.020407585946227515
6907.691962609368,-0.020523451165751563
6907.692962381582,-0.02063512064817027
6907.693962153798,-0.020742585286804855
6907.694961926013,-0.020845836836614447
6907.6959616982285,-0.020944867917080313
6907.696961470444,-0.021039672014914287
6907.6979612426585,-0.02113024348659005
6907.698961014874,-0.021216577560696098
6907.699960787089,-0.021298670340109686
6907.700960559305,-0.021376518803991273
6907.70196033152,-0.021450120809599325
6907.702960103736,-0.021519475093925572
6907.70395987595,-0.021584581275150866
6907.704959648166,-0.02164543985392198
6907.705959420381,-0.02170205221444953
6907.7069591925965,-0.021754420625427363
6907.707958964812,-0.021802548240773604
6907.7089587370265,-0.0218464391001939
6907.709958509242,-0.02188609812956743
6907.710958281457,-0.02192153114115673
6907.711958053673,-0.021952744833642568
6907.712957825888,-0.02197974679198538
6907.713957598104,-0.022002545487115277
6907.714957370318,-0.022021150275452834
6907.715957142534,-0.022035571398263246
6907.716956914749,-0.022045819980846756
6907.7179566869645,-0.022051908031568725
6907.71895645918,-0.022053848440732916
6907.7199562313945,-0.022051654979301845
6907.72095600361,-0.02204534229746816
6907.721955775825,-0.022034925923081077
6907.722955548041,-0.0220204222599317
6907.723955320256,-0.022001848585900683
6907.724955092472,-0.021979223050971424
6907.725954864686,-0.021952564675111256
6907.726954636902,-0.021921893346022722
6907.727954409117,-0.021887229816766267
6907.7289541813325,-0.021848595703255265
6907.729953953548,-0.021806013481623556
6907.730953725762,-0.02175950648546519
6907.731953497978,-0.02170909890294551
6907.732953270193,-0.021654815773782348
6907.733953042409,-0.021596682986095718
6907.734952814624,-0.021534727273124228
6907.73595258684,-0.021468976209806513
6907.736952359054,-0.02139945820922601
6907.73795213127,-0.02132620251891778
6907.738951903485,-0.02124923921703637
6907.7399516757005,-0.02116859920838402
6907.740951447916,-0.021084314220298814
6907.74195122013,-0.020996416798402657
6907.742950992346,-0.02090494030220901
6907.743950764561,-0.02080991890059032
6907.744950536777,-0.02071138756710512
6907.745950308992,-0.020609382075184833
6907.746950081208,-0.020503938993180135
6907.747949853422,-0.02039509567926678
6907.748949625638,-0.02028289027621066
6907.749949397853,-0.02016736170599176
6907.750949170068,-0.02004854966428665
6907.751948942283,-0.01992649461480897
6907.752948714498,-0.019801237783507248
6907.753948486714,-0.019672821152619254
6907.754948258929,-0.019541287454582057
6907.755948031145,-0.01940668016579676
6907.75694780336,-0.019269043500246996
6907.757947575575,-0.019128422402970174
6907.75894734779,-0.018984862543380738
6907.759947120006,-0.018838410308444645
6907.760946892221,-0.018689112795704337
6907.761946664436,-0.018537017806153525
6907.762946436651,-0.01838217383696103
6907.763946208866,-0.018224630074042736
6907.764945981082,-0.018064436384480548
6907.765945753297,-0.0179016433087869
6907.766945525513,-0.017736302053013117
6907.767945297728,-0.01756846448069953
6907.768945069943,-0.017398183104664976
6907.769944842158,-0.017225511078632873
6907.770944614374,-0.017050502188690822
6907.771944386589,-0.016873210844580145
6907.772944158804,-0.016693692070811634
6907.773943931019,-0.01651200149760348
6907.774943703234,-0.0163281953516371
6907.77594347545,-0.016142330446626614
6907.776943247665,-0.015954464173697714
6907.777943019881,-0.015764654491571755
6907.778942792096,-0.015572959916551068
6907.779942564311,-0.015379439512301685
6907.780942336526,-0.015184152879429877
6907.7819421087415,-0.0149871601448492
6907.782941880957,-0.014788521950934908
6907.783941653172,-0.014588299444462893
6907.784941425387,-0.014386554265330538
6907.785941197602,-0.014183348535057146
6907.786940969818,-0.0139787448450618
6907.787940742033,-0.013772806244716782
6907.788940514249,-0.01356559622917488
6907.789940286464,-0.013357178726969017
6907.790940058679,-0.01314761808738277
6907.791939830894,-0.012936979067590306
6907.7929396031095,-0.012725326819564262
6907.793939375325,-0.0125127268767499
6907.79493914754,-0.012299245140503814
6907.795938919755,-0.012084947866295308
6907.79693869197,-0.01186990164966849
6907.797938464186,-0.011654173411962928
6907.798938236401,-0.011437830385790784
6907.799938008617,-0.011220940100268183
6907.800937780832,-0.011003570365998475
6907.801937553047,-0.010785789259805023
6907.802937325262,-0.010567665109210974
6907.8039370974775,-0.010349266476663245
6907.804936869693,-0.01013066214349787
6907.805936641908,-0.009911921093643517
6907.806936414123,-0.009693112497059874
6907.807936186338,-0.009474305692907414
6907.808935958554,-0.009255570172445025
6907.809935730769,-0.009036975561652004
6907.810935502985,-0.008818591603570966
6907.8119352752,-0.008600488140368451
6907.812935047415,-0.008382735095110241
6907.81393481963,-0.008165402453248748
6907.8149345918455,-0.007948560243820258
6907.815934364061,-0.0077322785203502884
6907.816934136275,-0.007516627341465793
6907.817933908491,-0.007301676751213489
6907.818933680706,-0.007087496759084031
6907.819933452922,-0.006874157319742193
6907.820933225137,-0.006661728312463532
6907.821932997353,-0.0064502795202782594
6907.822932769567,-0.006239880608823206
6907.823932541783,-0.006030601104902805
6907.824932313998,-0.005822510374760091
6907.8259320862135,-0.005615677602058723
6907.826931858429,-0.005410171765577081
6907.827931630643,-0.005206061616615585
6907.828931402859,-0.005003415656118499
6907.829931175074,-0.004802302111511717
6907.83093094729,-0.004602788913258227
6907.831930719505,-0.004404943671133248
6907.832930491721,-0.004208833650221331
6907.833930263935,-0.00401452574663805
6907.834930036151,-0.003822086462979214
6907.835929808366,-0.0036315818835009304
6907.836929580581,-0.0034430776490342496
6907.837929352797,-0.003256638931638613
6907.838929125011,-0.0030723304089988438
6907.839928897227,-0.002890216238570979
6907.840928669442,-0.002710360031482771
6907.841928441658,-0.0025328248261951548
6907.842928213873,-0.002357673061931394
6907.843927986089,-0.002184966551880915
6907.844927758303,-0.0020147664561850852
6907.845927530519,-0.0018471332547123375
6907.846927302734,-0.0016821267196301683
6907.847927074949,-0.001519805887781618
6907.848926847165,-0.001360229032873951
6907.849926619379,-0.0012034536374873816
6907.850926391595,-0.0010495363649118729
6907.85192616381,-0.0008985330308202669
6907.852925936026,-0.0007504985747862888
6907.853925708241,-0.0006054870316563092
6907.854925480457,-0.00046355150278419083
6907.855925252671,-0.0003247441271390598
6907.856925024887,-0.0001891160522964755
6907.857924797102,-5.67174053242152e-05
6907.858924569317,7.24027364252327e-05
6907.859924341533,0.00019819637460237273
6907.860924113747,0.0003206166192143877
6907.861923885963,0.00043961771802936497
6907.862923658178,0.0005551550860143057
6907.863923430394,0.000667185334788757
6907.864923202609,0.0007756663020744337
6907.865922974825,0.000880557081119647
6907.866922747039,0.0009818180500757237
6907.867922519255,0.0010794109013008656
6907.86892229147,0.0011732986705650544
6907.869922063685,0.001263445766127639
6907.870921835901,0.0013498179976571402
6907.871921608115,0.0014323826049605648
6907.872921380331,0.0015111082864871304
6907.873921152546,0.0015859652275687643
6907.874920924762,0.0016569251283570755
6907.875920696977,0.0017239612314137692
6907.876920469193,0.0017870483489087138
6907.877920241407,0.0018461628893771515
6907.878920013623,0.0019012828839849298
6907.879919785838,0.0019523880122481762
6907.880919558053,0.001999459627151598
6907.881919330268,0.0020424807796076277
6907.882919102483,0.002081436242196988
6907.883918874699,0.0021163125321299126
6907.884918646914,0.0021470979333662777
6907.88591841913,0.002173782517832202
6907.886918191345,0.002196358165670362
6907.88791796356,0.002214818584461278
6907.888917735775,0.0022291593273532535
6907.889917507991,0.0022393778100394763
6907.890917280206,0.002245473326522065
6907.891917052421,0.0022474470636044933
6907.892916824636,0.0022453021140558605
6907.893916596851,0.0022390434883927755
6907.894916369067,0.002228678125227117
6907.895916141282,0.0022142149001305946
6907.896915913498,0.0021956646329698744
6907.897915685713,0.002173040093669121
6907.898915457928,0.0021463560063602624
6907.899915230143,0.0021156290518851237
6907.900915002359,0.0020808778686178405
6907.901914774574,0.0020421230515805986
6907.902914546789,0.0019993871498306354
6907.903914319004,0.0019526946621015334
6907.904914091219,0.0019020720306870758
6907.905913863435,0.0018475476335612258
6907.90691363565,0.0017891517747331313
6907.907913407866,0.001726916672841354
6907.908913180081,0.0016608764479967408
6907.909912952296,0.0015910671068884484
6907.910912724511,0.0015175265261725733
6907.911912496727,0.0014402944341675903
6907.912912268942,0.001359412390885331
6907.913912041157,0.0012749237664304595
6907.914911813372,0.0011868737178052265
6907.915911585587,0.0010953091641596325
6907.916911357803,0.0010002787605299301
6907.917911130018,0.0009018328701106712
6907.918910902234,0.0008000235351072945
6907.919910674449,0.000694904446217627
6907.920910446664,0.0005865309107917258
6907.921910218879,0.0004749598197202917
6907.922909991095,0.00036024961310250603
6907.92390976331,0.00024246024474465234
6907.924909535525,0.00012165314554130078
6907.92590930774,-2.1088142088266613e-06
6907.926909079955,-0.00012876136349994317
6907.927908852171,-0.00025823887027672936
6907.928908624386,-0.0003904743819997691
6907.929908396602,-0.0005253996670664117
6907.930908168817,-0.0006629452570347409
6907.931907941032,-0.0008030404895985765
6907.932907713247,-0.0009456135522617832
6907.933907485462,-0.0010905915266606085
6907.934907257678,-0.0012379004334833361
6907.935907029893,-0.0013874652779372278
6907.936906802108,-0.0015392100957135318
6907.937906574323,-0.00169305799940228
6907.938906346539,-0.0018489312253096367
6907.939906118754,-0.0020067511806316964
6907.94090589097,-0.0021664384909397994
6907.941905663185,-0.0023279130479336046
6907.9429054354,-0.0024910940574193133
6907.943905207615,-0.002655900087471532
6907.94490497983,-0.002822249116738331
6907.945904752046,-0.002990058582850092
6907.94690452426,-0.0031592454308936907
6907.947904296476,-0.0033297261619145736
6907.948904068691,-0.003501416881410148
6907.949903840907,-0.003674233347778823
6907.950903613122,-0.0038480910206898566
6907.951903385338,-0.00402290510933996
6907.952903157552,-0.004198590620563411
6907.953902929768,-0.004375062406763192
6907.954902701983,-0.004552235213631458
6907.955902474198,-0.004730023727628482
6907.956902246414,-0.004908342623190056
6907.957902018628,-0.005087106609634277
6907.958901790844,-0.005266230477739516
6907.959901563059,-0.005445629145966326
6907.960901335275,-0.0056252177062968475
6907.96190110749,-0.005804911469666056
6907.962900879706,-0.005984626010959902
6907.96390065192,-0.006164277213555987
6907.964900424136,-0.006343781313382956
6907.965900196351,-0.006523054942475248
6907.966899968566,-0.006702015172000241
6907.967899740782,-0.006880579554735127
6907.968899512996,-0.007058666166971213
6907.969899285212,-0.007236193649823554
6907.970899057427,-0.00741308124992419
6907.971898829643,-0.007589248859477639
6907.972898601858,-0.007764617055657762
6907.9738983740735,-0.007939107139325729
6907.974898146288,-0.0081126411730495
6907.975897918504,-0.008285142018406086
6907.976897690719,-0.008456533372548721
6907.977897462934,-0.008626739804021993
6907.97889723515,-0.00879568678780893
6907.979897007364,-0.008963300739594986
6907.98089677958,-0.009129509049234872
6907.981896551795,-0.009294240113409121
6907.982896324011,-0.009457423367458183
6907.983896096226,-0.009618989316382718
6907.9848958684415,-0.009778869564999597
6907.985895640656,-0.009936996847243838
6907.986895412872,-0.010093305054607576
6907.987895185087,-0.010247729263707858
6907.988894957302,-0.010400205762975904
6907.989894729518,-0.010550672078461292
6907.990894501732,-0.010699066998745423
6907.991894273948,-0.010845330598959415
6907.992894046163,-0.010989404263902469
6907.993893818379,-0.011131230710257557
6907.994893590594,-0.011270754007902176
6907.9958933628095,-0.011407919600312772
6907.996893135024,-0.01154267432406226
6907.99789290724,-0.01167496642741095
6907.998892679455,-0.011804745587992011
6907.99989245167,-0.011931962929593361
6908.000892223886,-0.012056571038038559
6908.0018919961,-0.01217852397616989
6908.002891768316,-0.012297777297937318
6908.003891540531,-0.012414288061597325
6908.004891312747,-0.012528014842025901
6908.005891084962,-0.012638917742150087
6908.0068908571775,-0.012746958403502574
6908.007890629392,-0.012852100015903803
6908.008890401608,-0.012954307326276119
6908.009890173823,-0.013053546646594454
6908.010889946038,-0.013149785860978041
6908.011889718253,-0.013242994431927693
6908.012889490468,-0.013333143405713128
6908.013889262684,-0.01342020541691492
6908.014889034899,-0.013504154692125821
6908.015888807115,-0.013584967052816449
6908.01688857933,-0.013662619917370583
6908.017888351545,-0.013737092302295867
6908.01888812376,-0.013808364822616142
6908.019887895975,-0.013876419691452176
6908.020887668191,-0.01394124071879802
6908.021887440406,-0.01400281330950075
6908.022887212621,-0.014061124460451688
6908.023886984836,-0.01411616275699745
6908.024886757052,-0.014167918368579453
6908.025886529267,-0.014216383043610515
6908.026886301483,-0.014261550103597392
6908.027886073698,-0.014303414436518022
6908.028885845913,-0.014341972489462273
6908.029885618128,-0.014377222260544942
6908.030885390343,-0.01440916329009968
6908.031885162559,-0.014437796651162457
6908.032884934774,-0.014463124939253164
6908.033884706989,-0.014485152261463956
6908.034884479204,-0.014503884224863206
6908.03588425142,-0.01451932792422413
6908.036884023635,-0.01453149192908755
6908.037883795851,-0.0145403862701687
6908.038883568066,-0.014546022425118516
6908.0398833402805,-0.014548413303650485
6908.040883112496,-0.014547573232044612
6908.041882884711,-0.014543517937040673
6908.042882656927,-0.0145362645291334
6908.043882429142,-0.014525831485282664
6908.044882201357,-0.014512238631052
6908.045881973572,-0.01449550712218919
6908.046881745788,-0.01447565942566276
6908.047881518003,-0.014452719300168504
6908.048881290219,-0.014426711776120217
6908.049881062434,-0.01439766313513894
6908.0508808346485,-0.014365600889054992
6908.051880606864,-0.014330553758437005
6908.052880379079,-0.01429255165066204
6908.053880151295,-0.014251625637540776
6908.05487992351,-0.014207807932511673
6908.055879695725,-0.014161131867417888
6908.05687946794,-0.014111631868880807
6908.057879240156,-0.014059343434284154
6908.058879012371,-0.014004303107382756
6908.0598787845865,-0.013946548453550292
6908.060878556802,-0.01388611803468059
6908.0618783290165,-0.013823051383757322
6908.062878101232,-0.013757388979107181
6908.063877873447,-0.013689172218351826
6908.064877645663,-0.01361844339207416
6908.065877417878,-0.013545245657214641
6908.066877190093,-0.013469623010213486
6908.067876962308,-0.013391620259914926
6908.068876734524,-0.013311283000249686
6908.069876506739,-0.013228657582712017
6908.0708762789545,-0.01314379108864768
6908.07187605117,-0.0130567313013693
6908.0728758233845,-0.012967526678115552
6908.0738755956,-0.012876226321870493
6908.074875367815,-0.012782879953059384
6908.075875140031,-0.01268753788113713
6908.076874912245,-0.01259025097608543
6908.077874684461,-0.01249107063983434
6908.078874456676,-0.012390048777623867
6908.079874228892,-0.012287237769320778
6908.080874001107,-0.012182690440705357
6908.0818737733225,-0.012076460034742359
6908.082873545537,-0.011968600182849853
6908.0838733177525,-0.011859164876178946
6908.084873089968,-0.011748208436916725
6908.085872862183,-0.011635785489624108
6908.086872634399,-0.011521950932619582
6908.087872406613,-0.011406759909419204
6908.088872178829,-0.011290267780242657
6908.089871951044,-0.011172530093594656
6908.09087172326,-0.011053602557930536
6908.091871495475,-0.01093354101341454
6908.0928712676905,-0.010812401403779143
6908.093871039905,-0.010690239748293594
6908.0948708121205,-0.01056711211385
6908.095870584336,-0.010443074587175387
6908.096870356551,-0.01031818324717855
6908.097870128767,-0.010192494137440982
6908.098869900981,-0.010066063238861589
6908.099869673197,-0.009938946442465449
6908.100869445412,-0.0098111995223873
6908.101869217628,-0.009682878109040732
6908.102868989843,-0.009554037662484326
6908.1038687620585,-0.009424733445996092
6908.104868534273,-0.009295020499867605
6908.105868306488,-0.009164953615429293
6908.106868078704,-0.009034587309318253
6908.107867850919,-0.008903975798000027
6908.108867623135,-0.00877317297255565
6908.109867395349,-0.00864223237374531
6908.110867167565,-0.008511207167359817
6908.11186693978,-0.008380150119870944
6908.112866711996,-0.008249113574391688
6908.113866484211,-0.008118149426957221
6908.1148662564265,-0.007987309103137295
6908.115866028641,-0.007856643534990708
6908.116865800856,-0.007726203138372399
6908.117865573072,-0.007596037790603691
6908.118865345287,-0.007466196808516182
6908.119865117503,-0.007336728926879735
6908.120864889717,-0.007207682277224995
6908.121864661933,-0.007079104367070714
6908.122864434148,-0.006951042059565984
6908.123864206364,-0.006823541553557211
6908.124863978579,-0.0066966483640893285
6908.125863750794,-0.006570407303350268
6908.126863523009,-0.0064448624620672655
6908.127863295224,-0.006320057191363011
6908.12886306744,-0.006196034085079146
6908.129862839655,-0.006072834962574157
6908.130862611871,-0.005950500852002235
6908.131862384085,-0.005829071974079363
6908.132862156301,-0.005708587726342492
6908.133861928516,-0.005589086667907464
6908.134861700732,-0.00547060650473104
6908.135861472947,-0.005353184075382267
6908.136861245162,-0.005236855337328289
6908.137861017377,-0.005121655353739723
6908.138860789592,-0.0050076182808206785
6908.139860561808,-0.0048947773556684985
6908.140860334023,-0.004783164884668231
6908.141860106238,-0.004672812232426635
6908.142859878453,-0.0045637498112502655
6908.143859650669,-0.004456007071171826
6908.144859422884,-0.0043496124905285285
6908.1458591951,-0.004244593567095706
6908.146858967315,-0.004140976809778396
6908.14785873953,-0.004038787730863026
6908.148858511745,-0.00393805083883072
6908.14985828396,-0.0038387896317331606
6908.150858056176,-0.0037410265911313584
6908.151857828391,-0.0036447831765971275
6908.152857600606,-0.0035500798207765416
6908.153857372821,-0.0034569359250142275
6908.154857145037,-0.003365369855536951
6908.155856917252,-0.003275398940194598
6908.156856689468,-0.003187039465756349
6908.157856461683,-0.0031003066757595518
6908.1588562338975,-0.003015214768908512
6908.159856006113,-0.002931776898020156
6908.160855778328,-0.002850005169513275
6908.161855550544,-0.0027699106434377566
6908.162855322759,-0.0026915033340399316
6908.163855094974,-0.002614792210859802
6908.164854867189,-0.0025397852003555994
6908.165854639405,-0.00246648918805075
6908.16685441162,-0.0023949100211979814
6908.167854183836,-0.0023250525119549357
6908.168853956051,-0.0022569204410653365
6908.1698537282655,-0.002190516562039441
6908.170853500481,-0.00212584260582721
6908.171853272696,-0.0020628992859773624
6908.172853044912,-0.0020016863042752278
6908.173852817127,-0.0019422023568521182
6908.174852589342,-0.001884445140758804
6908.175852361557,-0.0018284113609956427
6908.176852133773,-0.0017740967379919147
6908.177851905988,-0.0017214960155269637
6908.178851678204,-0.0016706029690857778
6908.179851450419,-0.001621410414641622
6908.1808512226335,-0.0015739102178582536
6908.181850994849,-0.0015280933037040813
6908.182850767064,-0.0014839496664703752
6908.18385053928,-0.001441468380185303
6908.184850311495,-0.001400637609415199
6908.18585008371,-0.0013614446204440907
6908.186849855925,-0.0013238757928221532
6908.187849628141,-0.001287916631273445
6908.188849400356,-0.0012535517779530068
6908.189849172572,-0.00122076502504317
6908.190848944787,-0.0011895393276787482
6908.191848717001,-0.0011598568171906634
6908.192848489217,-0.0011316988146575066
6908.193848261432,-0.0011050458447545589
6908.194848033648,-0.001079877649889909
6908.195847805863,-0.0010561732046174774
6908.196847578078,-0.0010339107303169851
6908.197847350293,-0.0010130677101311651
6908.198847122509,-0.0009936209041507746
6908.199846894724,-0.0009755463648382253
6908.20084666694,-0.0009588194526808751
6908.201846439155,-0.0009434148520652313
6908.202846211369,-0.0009293065873634738
6908.203845983585,-0.0009164680392237992
6908.2048457558,-0.0009048719610561145
6908.205845528016,-0.000894490495704557
6908.20684530023,-0.0008852951922982044
6908.207845072446,-0.0008772570232711878
6908.208844844661,-0.0008703464015432397
6908.209844616877,-0.0008645331978515346
6908.210844389092,-0.0008597867582245229
6908.211844161307,-0.0008560759215883378
6908.212843933523,-0.0008533690374963043
6908.213843705737,-0.0008516339839720783
6908.214843477953,-0.0008508381854570421
6908.215843250168,-0.000850948630852731
6908.216843022384,-0.0008519318916492816
6908.217842794598,-0.000853754140131136
6908.218842566814,-0.0008563811676514745
6908.219842339029,-0.0008597784029670788
6908.220842111245,-0.0008639109306255153
6908.22184188346,-0.0008687435093966812
6908.222841655675,-0.0008742405907408536
6908.22384142789,-0.000880366337305441
6908.224841200105,-0.0008870846414426662
6908.225840972321,-0.0008943591437404068
6908.226840744536,-0.000902153251558419
6908.227840516752,-0.0009104301575621722
6908.228840288966,-0.0009191528582465306
6908.229840061182,-0.0009282841724415334
6908.230839833397,-0.0009377867597925546
6908.231839605613,-0.0009476231392071548
6908.232839377828,-0.0009577557072609904
6908.233839150043,-0.0009681467565552272
6908.234838922258,-0.0009787584940180523
6908.235838694473,-0.0009895530591431338
6908.236838466689,-0.0010004925421582293
6908.237838238904,-0.0010115390021175612
6908.23883801112,-0.001022654484912008
6908.239837783334,-0.0010338010411915376
6908.24083755555,-0.0010449407441945932
6908.241837327765,-0.0010560357074793057
6908.2428370999805,-0.00106704810255147
6908.243836872196,-0.0010779401763841613
6908.244836644411,-0.0010886742688237345
6908.245836416626,-0.0010992128298767498
6908.246836188841,-0.0011095184368721323
6908.247835961057,-0.0011195538114926917
6908.248835733272,-0.0011292818366700022
6908.249835505488,-0.0011386655733366497
6908.250835277702,-0.0011476682770299833
6908.251835049918,-0.0011562534143417626
6908.252834822133,-0.0011643846792084673
6908.2538345943485,-0.0011720260090374904
6908.254834366564,-0.0011791416006649584
6908.255834138779,-0.0011856959261414553
6908.256833910994,-0.0011916537483424687
6908.257833683209,-0.0011969801364008921
6908.258833455425,-0.001201640480959384
6908.25983322764,-0.0012056005092407882
6908.260832999856,-0.001208826299935131
6908.26183277207,-0.001211284297901945
6908.262832544286,-0.0012129413286868377
6908.263832316501,-0.00121376461285134
6908.2648320887165,-0.0012137217801151605
6908.265831860932,-0.0012127808833100407
6908.266831633147,-0.001210910412144447
6908.267831405362,-0.0012080793067783748
6908.268831177577,-0.0012042569712075555
6908.269830949793,-0.0011994132864563821
6908.270830722008,-0.001193518623578879
6908.271830494223,-0.0011865438564670203
6908.272830266438,-0.0011784603744656673
6908.273830038654,-0.001169240094793345
6908.274829810869,-0.0011588554747680596
6908.2758295830845,-0.001147279523837409
6908.2768293553,-0.001134485815412337
6908.277829127515,-0.0011204484985040332
6908.27882889973,-0.001105142309163622
6908.279828671945,-0.0010885425817243922
6908.280828444161,-0.0010706252598463508
6908.281828216376,-0.001051366907362833
6908.282827988591,-0.0010307447189287706
6908.283827760806,-0.001008736530469999
6908.284827533022,-0.0009853208294327402
6908.285827305237,-0.0009604767648321057
6908.2868270774525,-0.0009341841570981831
6908.287826849668,-0.0009064235077179909
6908.288826621882,-0.0008771760086713371
6908.289826394098,-0.0008464235516584226
6908.290826166313,-0.0008141487371168606
6908.291825938529,-0.0007803348830256667
6908.292825710744,-0.000744966033493671
6908.293825482959,-0.0007080269671297142
6908.294825255174,-0.0006695032051919252
6908.29582502739,-0.0006293810195133149
6908.296824799605,-0.000587647440200893
6908.2978245718205,-0.0005442902631054922
6908.298824344036,-0.0004992980570594592
6908.29982411625,-0.0004526601708793356
6908.300823888466,-0.0004043667401305845
6908.301823660681,-0.00035440869365130454
6908.302823432897,-0.0003027777598316953
6908.303823205112,-0.00024946647264580785
6908.304822977327,-0.00019446817743185235
6908.305822749542,-0.00013777703641707615
6908.306822521758,-7.938803398301481e-05
6908.307822293973,-1.9296981666766098e-05
6908.308822066188,4.249947710614372e-05
6908.309821838404,0.00010600386256175196
6908.310821610618,0.00017121785439494212
6908.311821382834,0.0002381422878684156
6908.312821155049,0.000306777150197715
6908.313820927265,0.0003771215772266173
6908.31482069948,0.00044917385039715024
6908.315820471695,0.0005229313940183913
6908.31682024391,0.0005983907728380929
6908.317820016126,0.0006755476899210513
6908.318819788341,0.0007543969848380149
6908.319819560556,0.000834932632168823
6908.320819332772,0.0009171477403234002
6908.321819104986,0.0010010345506842324
6908.322818877202,0.001086584437073997
6908.323818649417,0.0011737879055521386
6908.324818421633,0.0012626345945443288
6908.325818193848,0.0013531132753089139
6908.326817966063,0.001445211852744618
6908.327817738278,0.001538917366543882
6908.3288175104935,0.0016342159926962985
6908.329817282709,0.0017310930453466372
6908.330817054924,0.0018295329790119414
6908.33181682714,0.0019295193911621786
6908.332816599354,0.002031035025168872
6908.33381637157,0.0021340617736260474
6908.334816143785,0.0022385806820476393
6908.335815916001,0.0023445719529452008
6908.336815688215,0.0024520149502893925
6908.337815460431,0.0025608882043582667
6908.338815232646,0.0026711694169748307
6908.3398150048615,0.002782835467135842
6908.340814777077,0.0028958624170332013
6908.341814549292,0.0030102255184687727
6908.342814321508,0.00312589921966295
6908.343814093722,0.003242857172456812
6908.344813865938,0.003361072239907309
6908.345813638153,0.0034805165042745417
6908.346813410369,0.0036011612753998746
6908.347813182583,0.003722977099473314
6908.348812954799,0.0038459337681883334
6908.349812727014,0.003970000328282106
6908.3508124992295,0.004095145091458865
6908.351812271445,0.004221335644693932
6908.35281204366,0.004348538860915724
6908.353811815875,0.004476720910062886
6908.35481158809,0.004605847270513385
6908.355811360306,0.004735882740882169
6908.356811132521,0.0048667914521836565
6908.357810904737,0.004998536880354909
6908.358810676951,0.0051310818591349845
6908.359810449167,0.005264388593295542
6908.360810221382,0.005398418672217382
6908.3618099935975,0.005533133083807216
6908.362809765813,0.005668492228748627
6908.363809538028,0.005804455935080864
6908.364809310243,0.00594098347309893
6908.365809082458,0.006078033570568171
6908.366808854674,0.006215564428246562
6908.367808626889,0.006353533735707797
6908.368808399105,0.006491898687458274
6908.369808171319,0.006630615999341092
6908.370807943535,0.006769641925220169
6908.37180771575,0.0069089322739375215
6908.3728074879655,0.007048442426536705
6908.373807260181,0.007188127353745323
6908.374807032396,0.0073279416337093525
6908.375806804611,0.0074678394699718605
6908.376806576826,0.007607774709688486
6908.377806349042,0.0077477008620718555
6908.378806121257,0.007887571117056857
6908.379805893473,0.008027338364178505
6908.380805665687,0.008166955211653936
6908.381805437903,0.00830637400565987
6908.382805210118,0.00844554684979684
6908.3838049823335,0.008584425624731452
6908.384804754549,0.008722962008008034
6908.385804526764,0.008861107494021232
6908.386804298979,0.00899881341414129
6908.387804071194,0.00913603095698404
6908.38880384341,0.009272711188817742
6908.389803615625,0.009408805074099153
6908.390803387841,0.009544263496131269
6908.391803160055,0.009679037277835253
6908.392802932271,0.009813077202629037
6908.393802704486,0.009946334035405091
6908.394802476701,0.010078758543599745
6908.395802248917,0.010210301518346341
6908.396802021132,0.01034091379570433
6908.397801793347,0.010470546277956193
6908.398801565562,0.010599149954963841
6908.399801337778,0.010726675925575918
6908.400801109993,0.010853075419077282
6908.401800882208,0.010978299816671816
6908.402800654423,0.011102300672989654
6908.403800426639,0.011225029737610007
6908.404800198854,0.011346438976590838
6908.405799971069,0.011466480593996803
6908.406799743285,0.011585107053416978
6908.4077995155,0.011702271099464052
6908.408799287715,0.011817925779246662
6908.40979905993,0.01193202446380671
6908.410798832146,0.012044520869513511
6908.411798604361,0.012155369079406618
6908.412798376576,0.01226452356447922
6908.413798148791,0.012371939204894008
6908.414797921007,0.01247757131112331
6908.415797693222,0.012581375645005118
6908.416797465437,0.012683308440706483
6908.417797237653,0.012783326425585427
6908.418797009867,0.012881386840942328
6908.419796782083,0.012977447462651318
6908.420796554298,0.013071466621662057
6908.421796326514,0.013163403224361967
6908.422796098729,0.013253216772788875
6908.423795870944,0.013340867384684025
6908.424795643159,0.013426315813375427
6908.425795415375,0.013509523467481596
6908.42679518759,0.013590452430425962
6908.427794959805,0.013669065479752301
6908.428794732021,0.013745326106231796
6908.429794504235,0.013819198532752531
6908.430794276451,0.01389064773298242
6908.431794048666,0.013959639449796838
6908.432793820882,0.014026140213462395
6908.433793593097,0.014090117359568442
6908.434793365312,0.0141515390466979
6908.435793137527,0.014210374273828917
6908.436792909743,0.01426659289745871
6908.437792681958,0.014320165648440656
6908.438792454173,0.014371064148525528
6908.439792226389,0.014419260926597484
6908.440791998603,0.014464729434595331
6908.441791770819,0.014507444063109392
6908.442791543034,0.0145473801566444
6908.44379131525,0.014584514028538807
6908.444791087465,0.01461882297553103
6908.44579085968,0.01465028529196326
6908.446790631895,0.014678880283613667
6908.447790404111,0.014704588281147913
6908.448790176326,0.014727390653181053
6908.449789948541,0.014747269818940905
6908.450789720757,0.01476420926052406
6908.451789492971,0.014778193534735737
6908.452789265187,0.014789208284504807
6908.453789037402,0.014797240249865323
6908.454788809618,0.014802277278496208
6908.455788581833,0.014804308335810907
6908.456788354048,0.01480332351458916
6908.457788126263,0.014799314044143363
6908.458787898479,0.014792272299012352
6908.459787670694,0.014782191807175618
6908.460787442909,0.014769067257781477
6908.461787215125,0.01475289450838277
6908.462786987339,0.014733670591674087
6908.463786759555,0.014711393721724794
6908.46478653177,0.01468606329970247
6908.465786303986,0.014657679919081854
6908.4667860762,0.014626245370334925
6908.467785848416,0.014591762645098205
6908.468785620631,0.014554235939813922
6908.469785392847,0.014513670658842135
6908.470785165062,0.014470073417041332
6908.471784937277,0.01442345204181547
6908.472784709493,0.01437381557462571
6908.473784481707,0.014321174271965513
6908.474784253923,0.014265539605798022
6908.475784026138,0.014206924263454986
6908.476783798354,0.014145342146996753
6908.477783570568,0.014080808372033083
6908.478783342784,0.01401333926600474
6908.479783114999,0.01394295236592606
6908.480782887214,0.013869666415588826
6908.48178265943,0.013793501362228127
6908.482782431645,0.013714478352651004
6908.48378220386,0.013632619728829056
6908.484781976075,0.013547949022956331
6908.485781748291,0.013460490951974168
6908.486781520506,0.01337027141156486
6908.487781292722,0.013277317469616383
6908.488781064936,0.013181657359160742
6908.489780837152,0.01308332047078885
6908.490780609367,0.012982337344545158
6908.491780381582,0.01287873966130579
6908.492780153798,0.012772560233644157
6908.493779926013,0.012663832996188493
6908.494779698228,0.01255259299547592
6908.495779470443,0.012438876379307946
6908.496779242659,0.012322720385612395
6908.497779014874,0.012204163330816968
6908.49877878709,0.012083244597739698
6908.499778559304,0.01196000462300166
6908.50077833152,0.01183448488396749
6908.501778103735,0.011706727885219486
6908.50277787595,0.011576777144571284
6908.503777648166,0.0114446771786275
6908.504777420381,0.01131047348789623
6908.505777192596,0.011174212541461687
6908.506776964811,0.011035941761224886
6908.507776737027,0.010895709505720691
6908.508776509242,0.010753565053520067
6908.509776281458,0.010609558586226727
6908.510776053672,0.010463741171077751
6908.511775825888,0.010316164743157948
6908.512775598103,0.010166882087237974
6908.513775370318,0.010015946819246325
6908.514775142534,0.009863413367385375
6908.515774914749,0.009709336952901685
6908.516774686964,0.00955377357052078
6908.517774459179,0.009396779968556491
6908.518774231395,0.00923841362870497
6908.51977400361,0.009078732745533325
6908.520773775826,0.008917796205672835
6908.52177354804,0.008755663566726503
6908.522773320256,0.00859239503590078
6908.523773092471,0.008428051448371122
6908.524772864686,0.008262694245391056
6908.525772636902,0.008096385452154395
6908.526772409117,0.007929187655420297
6908.527772181332,0.007761163980910908
6908.528771953547,0.007592378070491409
6908.529771725763,0.007422894059142356
6908.530771497978,0.007252776551734234
6908.531771270193,0.007082090599614122
6908.532771042408,0.006910901677014296
6908.533770814624,0.0067392756572924655
6908.534770586839,0.0065672787890132195
6908.535770359054,0.006394977671879985
6908.53677013127,0.00622243923252664
6908.537769903485,0.00604973070017755
6908.5387696757,0.0058769195821845146
6908.539769447915,0.005704073639448747
6908.540769220131,0.00553126086173569
6908.541768992346,0.005358549442890202
6908.542768764561,0.0051860077559594
6908.543768536776,0.005013704328230235
6908.544768308992,0.004841707816188709
6908.545768081207,0.004670086980407652
6908.546767853422,0.004498910660369942
6908.547767625638,0.004328247749234229
6908.548767397852,0.00415816716855045
6908.549767170068,0.003988737842932693
6908.550766942283,0.0038200286746973328
6908.551766714499,0.0036521085184746563
6908.552766486714,0.0034850461558026086
6908.553766258929,0.003318910269711547
6908.554766031144,0.0031537694193091875
6908.55576580336,0.002989692014375054
6908.556765575575,0.00282674628997382
6908.55776534779,0.00266500028109689
6908.558765120006,0.0025045217973414806
6908.55976489222,0.0023453783976363028
6908.560764664436,0.002187637365022827
6908.561764436651,0.00203136568150101
6908.562764208867,0.0018766300029483104
6908.563763981082,0.0017234966341208228
6908.564763753297,0.0015720315037453367
6908.565763525512,0.0014223001397111333
6908.566763297727,0.001274367644370296
6908.567763069943,0.0011282986699552788
6908.568762842158,0.000984157394122432
6908.569762614374,0.0008420074956301387
6908.570762386588,0.0007019121301601714
6908.571762158804,0.0005639339062908304
6908.572761931019,0.00042813486163035733
6908.573761703235,0.00029457643911901833
6908.57476147545,0.00016331946350808287
6908.575761247665,3.4424118023683276e-05
6908.57676101988,-9.205007877677007e-05
6908.577760792095,-0.0002160442959483144
6908.578760564311,-0.0003375004128954056
6908.579760336526,-0.0004563610418956553
6908.580760108742,-0.0005725695504042384
6908.581759880956,-0.0006860700831331912
6908.582759653172,-0.0007968075839000411
6908.583759425387,-0.0009047278172403307
6908.584759197603,-0.0010097773897786242
6908.585758969818,-0.0011119037713525509
6908.5867587420325,-0.0012110553158843494
6908.587758514248,-0.001307181281994269
6908.588758286463,-0.0014002318533500467
6908.589758058679,-0.001490158158746553
6908.590757830894,-0.0015769122919095829
6908.59175760311,-0.0016604473310176736
6908.592757375324,-0.001740717357935785
6908.59375714754,-0.001817677477154694
6908.594756919755,-0.0018912838344300362
6908.595756691971,-0.001961493635115107
6908.596756464185,-0.0020282651621817633
6908.5977562364005,-0.0020915577939240597
6908.598756008616,-0.0021513320213395605
6908.599755780831,-0.002207549465183587
6908.600755553047,-0.00226017289269198
6908.601755325262,-0.0023091662339682242
6908.602755097478,-0.0023544945980310153
6908.603754869692,-0.0023961242885185224
6908.604754641908,-0.002434022819045713
6908.605754414123,-0.0024681589282111983
6908.606754186339,-0.0024985025942501128
6908.607753958553,-0.002525025049329579
6908.6087537307685,-0.0025476987934833243
6908.609753502984,-0.002566497608181998
6908.610753275199,-0.0025813965695356796
6908.611753047415,-0.002592372061125014
6908.61275281963,-0.0025994017864573145
6908.613752591845,-0.002602464781043942
6908.61475236406,-0.002601541424095247
6908.615752136276,-0.0025966134498294734
6908.616751908491,-0.0025876639583921695
6908.6177516807065,-0.0025746774263828843
6908.618751452921,-0.002557639716986189
6908.6197512251365,-0.0025365380897043027
6908.620750997352,-0.0025113612096888103
6908.621750769567,-0.002482099156669145
6908.622750541783,-0.002448743433475628
6908.623750313998,-0.0024112869741549745
6908.624750086213,-0.002369724151676247
6908.625749858428,-0.002324050785225287
6908.626749630644,-0.0022742641470856746
6908.627749402859,-0.0022203629691042565
6908.6287491750745,-0.002162347448739259
6908.629748947289,-0.0021002192546889687
6908.6307487195045,-0.0020339815320989164
6908.63174849172,-0.001963638907345477
6908.632748263935,-0.0018891974923937846
6908.633748036151,-0.001810664888727894
6908.634747808366,-0.0017280501908512004
6908.635747580581,-0.0016413639893552204
6908.636747352796,-0.0015506183735549991
6908.637747125012,-0.0014558269336895871
6908.638746897227,-0.001357004762686243
6908.6397466694425,-0.0012541684574871937
6908.640746441657,-0.0011473361199379668
6908.6417462138725,-0.001036527357236431
6908.642745986088,-0.000921763281941783
6908.643745758303,-0.0008030665115427922
6908.644745530519,-0.0006804611675846451
6908.645745302734,-0.0005539728743537257
6908.646745074949,-0.00042362875711960773
6908.647744847164,-0.00028945743993342304
6908.64874461938,-0.00015148904298162896
6908.649744391595,-9.755179494022483e-06
6908.6507441638105,0.0001357110477953315
6908.651743936025,0.0002848750506357813
6908.65274370824,0.0004377007596980763
6908.653743480456,0.0005941506294645029
6908.654743252671,0.0007541856435730958
6908.655743024887,0.0009177653206178614
6908.656742797102,0.0010848477204068575
6908.657742569317,0.0012553894506797997
6908.658742341532,0.001429345674286597
6908.659742113748,0.0016066701168279088
6908.660741885963,0.001787315074758475
6908.661741658178,0.001971231423953635
6908.662741430393,0.002158368628739136
6908.663741202608,0.002348674751384067
6908.664740974824,0.002542096462056538
6908.665740747039,0.0027385790492416053
6908.666740519255,0.0029380664306209022
6908.66774029147,0.0031405011644135067
6908.668740063685,0.0033458244611777213
6908.6697398359,0.003553976196073692
6908.670739608116,0.0037648949215870814
6908.671739380331,0.003978517880714368
6908.672739152546,0.004194781020610684
6908.673738924761,0.004413619006701433
6908.674738696976,0.004634965237259172
6908.675738469192,0.004858751858447376
6908.676738241407,0.0050849097798327195
6908.677738013623,0.005313368690367305
6908.678737785837,0.005544057074842013
6908.679737558053,0.005776902230811716
6908.680737330268,0.006011830285992639
6908.681737102484,0.006248766216131664
6908.682736874699,0.00648763386334695
6908.6837366469135,0.0067283559549389
6908.684736419129,0.006970854122670218
6908.685736191344,0.00721504892251365
6908.68673596356,0.007460859854865835
6908.687735735775,0.007708205385225622
6908.688735507991,0.007957002965335077
6908.689735280205,0.008207169054781286
6908.690735052421,0.00845861914305702
6908.691734824636,0.008711267772078148
6908.692734596852,0.008965028559155671
6908.693734369067,0.009219814220420059
6908.6947341412815,0.009475536594695383
6908.695733913497,0.009732106667820553
6908.696733685712,0.00998943459741461
6908.697733457928,0.010247429738082736
6908.698733230143,0.010506000667059394
6908.699733002359,0.010765055210284674
6908.700732774573,0.011024500468909815
6908.701732546789,0.01128424284622761
6908.702732319004,0.011544188075023394
6908.70373209122,0.011804241245342136
6908.704731863435,0.012064306832667102
6908.7057316356495,0.012324288726505483
6908.706731407865,0.012584090259376237
6908.70773118008,0.012843614236195445
6908.708730952296,0.013102762964054396
6908.709730724511,0.013361438282385613
6908.710730496727,0.013619541593512214
6908.711730268941,0.013876973893576047
6908.712730041157,0.014133635803840158
6908.713729813372,0.014389427602361279
6908.714729585588,0.014644249256028046
6908.715729357803,0.014898000452960653
6908.7167291300175,0.015150580635267556
6908.717728902233,0.015401889032154616
6908.718728674448,0.015651824693381746
6908.719728446664,0.01590028652306186
6908.720728218879,0.01614717331379649
6908.721727991095,0.016392383781142092
6908.722727763309,0.016635816598400823
6908.723727535525,0.016877370431729148
6908.72472730774,0.017116943975557488
6908.725727079956,0.017354435988313897
6908.72672685217,0.017589745328444633
6908.7277266243855,0.01782277099072425
6908.728726396601,0.018053412142847818
6908.729726168816,0.018281568162297642
6908.730725941032,0.01850713867347675
6908.731725713247,0.01873002358510117
6908.732725485463,0.018950123127843072
6908.733725257677,0.01916733789221661
6908.734725029893,0.019381568866698364
6908.735724802108,0.019592717476074224
6908.736724574324,0.01980068562000438
6908.737724346538,0.0200053757117981
6908.738724118753,0.020206690717389744
6908.739723890969,0.020404534194507277
6908.740723663184,0.020598810332024233
6908.7417234354,0.020789423989485894
6908.742723207615,0.020976280736800117
6908.74372297983,0.02115928689408297
6908.744722752045,0.02133834957164915
6908.745722524261,0.021513376710136957
6908.746722296476,0.021684277120757378
6908.747722068692,0.021850960525656642
6908.748721840906,0.022013337598381394
6908.749721613121,0.022171320004435616
6908.750721385337,0.02232482044191818
6908.751721157552,0.02247375268222984
6908.752720929768,0.022618031610838307
6908.753720701983,0.02275757326808993
6908.754720474198,0.022892294890056283
6908.755720246413,0.023022114949403694
6908.756720018629,0.02314695319627344
6908.757719790844,0.023266730699159875
6908.75871956306,0.02338136988577315
6908.759719335274,0.02349079458387259
6908.760719107489,0.023594930062056138
6908.761718879705,0.023693703070490395
6908.76271865192,0.023787041881565107
6908.763718424136,0.023874876330454802
6908.764718196351,0.023957137855569334
6908.765717968566,0.024033759538873854
6908.766717740781,0.024104676146057318
6908.767717512997,0.02416982416652735
6908.768717285212,0.02422914185320758
6908.769717057427,0.02428256926211176
6908.770716829642,0.024330048291667
6908.771716601857,0.024371522721756345
6908.772716374073,0.024406938252448548
6908.773716146288,0.024436242542380474
6908.774715918504,0.024459385246754874
6908.775715690719,0.024476318054913453
6908.776715462934,0.024486994727442472
6908.777715235149,0.024491371132765147
6908.778715007365,0.024489405283172228
6908.77971477958,0.02448105737023924
6908.780714551795,0.024466289799576112
6908.78171432401,0.02444506722485213
6908.782714096225,0.024417356581036786
6908.783713868441,0.024383127116794686
6908.784713640656,0.024342350425970844
6908.785713412872,0.02429500047810098
6908.786713185087,0.024241053647879887
6908.787712957302,0.024180488743520096
6908.788712729517,0.024113287033932222
6908.7897125017325,0.02403943227465806
6908.790712273948,0.023958910732487796
6908.7917120461625,0.023871711208693237
6908.792711818378,0.02377782506081016
6908.793711590593,0.023677246222904482
6908.794711362809,0.023569971224258975
6908.795711135024,0.023455999206419678
6908.79671090724,0.02333533193854374
6908.797710679455,0.02320797383099325
6908.79871045167,0.02307393194712274
6908.799710223885,0.02293321601321109
6908.8007099961005,0.022785838426492136
6908.801709768316,0.02263181426124229
6908.8027095405305,0.02247116127288769
6908.803709312746,0.02230389990009837
6908.804709084961,0.02213005326484208
6908.805708857177,0.021949647170376205
6908.806708629392,0.02176271009716171
6908.807708401608,0.021569273196689227
6908.808708173822,0.021369370283213233
6908.809707946038,0.02116303782339629
6908.810707718253,0.020950314923870894
6908.8117074904685,0.020731243316732366
6908.812707262684,0.02050586734298133
6908.8137070348985,0.020274233933939432
6908.814706807114,0.0200363925906667
6908.815706579329,0.019792395361413424
6908.816706351545,0.019542296817143433
6908.81770612376,0.01928615402516939
6908.818705895976,0.01902402652094394
6908.81970566819,0.018755976278053383
6908.820705440406,0.018482067676462925
6908.821705212621,0.018202367469064677
6908.8227049848365,0.01791694474658124
6908.823704757052,0.017625870900879293
6908.8247045292665,0.01732921958674869
6908.825704301482,0.017027066682203607
6908.826704073697,0.016719490247362974
6908.827703845913,0.016406570481968086
6908.828703618128,0.016088389681595504
6908.829703390344,0.015765032192623638
6908.830703162558,0.01543658436601148
6908.831702934774,0.015103134509947836
6908.832702706989,0.014764772841429276
6908.8337024792045,0.014421591436824697
6908.83470225142,0.014073684181483947
6908.835702023634,0.013721146718447451
6908.83670179585,0.013364076396313103
6908.837701568065,0.013002572216316026
6908.838701340281,0.012636734778676034
6908.839701112496,0.012266666228266852
6908.840700884712,0.01189247019966038
6908.841700656926,0.011514251761598381
6908.842700429142,0.011132117360943187
6908.843700201357,0.010746174766158266
6908.8446999735725,0.010356533010368577
6908.845699745788,0.009963302334050001
6908.846699518002,0.009566594127396362
6908.847699290218,0.009166520872411892
6908.848699062433,0.008763196084776326
6908.849698834649,0.008356734255529071
6908.850698606864,0.007947250792618201
6908.85169837908,0.0075348619623593184
6908.852698151294,0.0071196848308485855
6908.85369792351,0.006701837205373485
6908.854697695725,0.00628143757586405
6908.85569746794,0.00585860505642647
6908.856697240155,0.005433459327000041
6908.85769701237,0.005006120575177412
6908.858696784586,0.004576709438226949
6908.859696556801,0.004145346945354949
6908.860696329017,0.0037121544602442794
6908.861696101232,0.003277253623904903
6908.862695873448,0.0028407662978707096
6908.863695645662,0.0024028145077760687
6908.864695417878,0.0019635203873446076
6908.865695190093,0.0015230061228218366
6908.866694962308,0.001081393897882417
6908.867694734523,0.0006388058390420373
6908.868694506738,0.00019536396160303496
6908.869694278954,-0.00024880988383791514
6908.870694051169,-0.0006935940642925604
6908.871693823385,-0.0011388672166676359
6908.8726935956,-0.0015845082994094288
6908.873693367815,-0.002030396643481381
6908.87469314003,-0.0024764120026506175
6908.8756929122455,-0.0029224346030601554
6908.876692684461,-0.003368345192064417
6908.877692456676,-0.0038140250863065704
6908.878692228891,-0.00425935621901712
6908.879692001106,-0.004704221186514071
6908.880691773322,-0.005148503293885929
6908.881691545537,-0.0055920865998397
6908.882691317753,-0.0060348559606970085
6908.883691089968,-0.006476697073522299
6908.884690862183,-0.0069174965183679904
6908.885690634398,-0.007357141799622309
6908.8866904066135,-0.00779552138644636
6908.887690178829,-0.008232524752287813
6908.888689951044,-0.00866804241345934
6908.889689723259,-0.009101965966770719
6908.890689495474,-0.009534188126204225
6908.89168926769,-0.009964602758623611
6908.892689039905,-0.01039310491850765
6908.893688812121,-0.010819590881699875
6908.894688584336,-0.011243958178166778
6908.895688356551,-0.0116661056237575
6908.896688128766,-0.012085933350958781
6908.8976879009815,-0.012503342838639832
6908.898687673197,-0.012918236940782719
6908.899687445412,-0.013330519914194814
6908.900687217627,-0.013740097445200841
6908.901686989842,-0.014146876675312914
6908.902686762058,-0.014550766225877792
6908.903686534273,-0.014951676221701387
6908.904686306489,-0.015349518313651167
6908.905686078704,-0.0157442057002377
6908.906685850919,-0.0161356531481771
6908.907685623134,-0.016523777011936684
6908.9086853953495,-0.01690849525226661
6908.909685167565,-0.017289727453720864
6908.91068493978,-0.01766739484117148
6908.911684711995,-0.018041420295320354
6908.91268448421,-0.018411728367213512
6908.913684256426,-0.01877824529176324
6908.914684028641,-0.01914089900028395
6908.915683800857,-0.01949961913204824
6908.916683573072,-0.019854337044870225
6908.917683345287,-0.02020498582472382
6908.918683117502,-0.020551500294404317
6908.9196828897175,-0.020893817021242246
6908.920682661933,-0.02123187432387909
6908.921682434147,-0.021565612278115064
6908.922682206363,-0.021894972721839594
6908.923681978578,-0.02221989925905567
6908.924681750794,-0.022540337263009528
6908.925681523009,-0.02285623387843755
6908.926681295225,-0.023167538022942538
6908.92768106744,-0.023474200387511825
6908.928680839655,-0.023776173436189842
6908.92968061187,-0.02407341140491829
6908.9306803840855,-0.024365870299557096
6908.931680156301,-0.024653507893099592
6908.932679928515,-0.024936283722095717
6908.933679700731,-0.02521415908229712
6908.934679472946,-0.025487097023538522
6908.935679245162,-0.025755062343869817
6908.936679017377,-0.026018021582953806
6908.937678789593,-0.026275943014744767
6908.938678561807,-0.026528796639463545
6908.939678334023,-0.026776554174885076
6908.940678106238,-0.027019189046954658
6908.941677878453,-0.027256676379749444
6908.942677650669,-0.02748899298480193
6908.943677422883,-0.027716117349802217
6908.944677195099,-0.027938029626695754
6908.945676967314,-0.028154711619193327
6908.94667673953,-0.028366146769709777
6908.947676511745,-0.028572320145747857
6908.948676283961,-0.02877321842574345
6908.949676056175,-0.02896882988438837
6908.950675828391,-0.029159144377446735
6908.951675600606,-0.029344153326081094
6908.952675372821,-0.029523849700704277
6908.953675145037,-0.02969822800437312
6908.954674917251,-0.02986728425574021
6908.955674689467,-0.030031015971579828
6908.956674461682,-0.030189422148904407
6908.957674233898,-0.030342503246687937
6908.958674006113,-0.030490261167212828
6908.959673778329,-0.030632699237056787
6908.960673550543,-0.030769822187736332
6908.961673322759,-0.030901636136023498
6908.962673094974,-0.03102814856395206
6908.963672867189,-0.03114936829852936
6908.964672639405,-0.03126530549116949
6908.965672411619,-0.031375971596863256
6908.966672183835,-0.03148137935309998
6908.96767195605,-0.03158154275855559
6908.968671728266,-0.031676477051561396
6908.969671500481,-0.031766198688367185
6908.970671272697,-0.031850725321212164
6908.971671044911,-0.031930075776216774
6908.972670817127,-0.03200427003110811
6908.973670589342,-0.032073329192791336
6908.974670361557,-0.03213727547477922
6908.975670133773,-0.032196132174491666
6908.976669905987,-0.03224992365043701
6908.977669678203,-0.032298675299286726
6908.978669450418,-0.0323424135328551
6908.979669222634,-0.032381165754995445
6908.980668994849,-0.03241496033842446
6908.981668767065,-0.03244382660148623
6908.982668539279,-0.0324677947848674
6908.983668311495,-0.03248689602827503
6908.98466808371,-0.0325011623470885
6908.985667855925,-0.0325106266089967
6908.98666762814,-0.03251532251063158
6908.987667400355,-0.032515284554208886
6908.988667172571,-0.032510548024186646
6908.989666944786,-0.03250114896395159
6908.990666717002,-0.03248712415254355
6908.991666489217,-0.03246851108142752
6908.9926662614325,-0.03244534793132292
6908.993666033647,-0.032417673549099565
6908.994665805863,-0.03238552742474962
6908.995665578078,-0.03234894966844486
6908.996665350293,-0.03230798098768872
6908.997665122508,-0.032262662664572804
6908.998664894723,-0.032213036533147464
6908.999664666939,-0.032159144956916644
6909.000664439154,-0.03210103080646689
6909.00166421137,-0.032038737437240804
6909.002663983585,-0.031972308667465074
6909.0036637558,-0.03190178875624315
6909.004663528015,-0.03182722238182218
6909.005663300231,-0.03174865462004366
6909.006663072446,-0.03166613092298676
6909.007662844661,-0.03157969709781281
6909.008662616876,-0.03148939928581916
6909.009662389091,-0.031395283941709845
6909.010662161307,-0.03129739781309049
6909.011661933522,-0.031195787920194396
6909.012661705738,-0.031090501535846398
6909.013661477953,-0.03098158616567095
6909.014661250168,-0.03086908952855058
6909.015661022383,-0.030753059537340623
6909.016660794599,-0.030633544279846145
6909.017660566814,-0.030510592000066637
6909.018660339029,-0.030384251079714184
6909.019660111244,-0.030254570020010717
6909.020659883459,-0.030121597423769932
6909.021659655675,-0.02998538197776933
6909.02265942789,-0.029845972435417895
6909.023659200106,-0.029703417599724606
6909.024658972321,-0.029557766306572798
6909.025658744536,-0.02940906740830514
6909.026658516751,-0.02925736975762368
6909.027658288966,-0.029102722191809142
6909.028658061182,-0.028945173517263213
6909.029657833397,-0.028784772494377307
6909.030657605612,-0.028621567822730877
6909.031657377827,-0.028455608126621956
6909.032657150043,-0.028286941940932318
6909.033656922258,-0.028115617697329336
6909.034656694474,-0.027941683710806364
6909.035656466689,-0.027765188166563315
6909.036656238904,-0.027586179107228905
6909.037656011119,-0.027404704420425915
6909.038655783334,-0.02722081182668091
6909.03965555555,-0.027034548867679763
6909.040655327765,-0.026845962894870363
6909.04165509998,-0.026655101058413757
6909.042654872195,-0.026462010296484862
6909.043654644411,-0.026266737324923697
6909.044654416626,-0.02606932862723769
6909.045654188842,-0.025869830444955375
6909.046653961057,-0.02566828876833136
6909.047653733272,-0.025464749327401972
6909.048653505487,-0.025259257583390506
6909.049653277702,-0.025051858720460778
6909.050653049918,-0.024842597637817047
6909.051652822133,-0.024631518942147993
6909.052652594348,-0.0244186669404121
6909.053652366563,-0.024204085632961378
6909.054652138779,-0.023987818707000088
6909.055651910994,-0.023769909530374982
6909.05665168321,-0.023550401145693248
6909.057651455425,-0.023329336264764515
6909.05865122764,-0.02310675726336305
6909.059650999855,-0.022882706176306482
6909.06065077207,-0.022657224692847377
6909.061650544286,-0.022430354152373985
6909.0626503165,-0.022202135540416754
6909.063650088716,-0.02197260948495707
6909.064649860931,-0.021741816253034733
6909.065649633147,-0.021509795747650568
6909.066649405362,-0.021276587504960493
6909.067649177578,-0.021042230691756987
6909.068648949792,-0.020806764103233694
6909.069648722008,-0.02057022616102841
6909.070648494223,-0.02033265491153921
6909.071648266438,-0.020094088024508006
6909.072648038654,-0.019854562791865205
6909.073647810868,-0.01961411612682889
6909.074647583084,-0.019372784563251547
6909.075647355299,-0.01913060425520717
6909.076647127515,-0.01888761097681151
6909.07764689973,-0.018643840122268197
6909.0786466719455,-0.018399326706133576
6909.07964644416,-0.018154105363793062
6909.080646216376,-0.01790821035214198
6909.081645988591,-0.017661675550463732
6909.082645760806,-0.01741453446149822
6909.083645533022,-0.01716682021269326
6909.084645305236,-0.016918565557631656
6909.085645077452,-0.016669802877626424
6909.086644849667,-0.016420564183476576
6909.087644621883,-0.016170881117375618
6909.088644394098,-0.015920784954964833
6909.0896441663135,-0.015670306607523245
6909.090643938528,-0.015419476624285982
6909.091643710744,-0.01516832519488269
6909.092643482959,-0.014916882151887564
6909.093643255174,-0.01466517697347251
6909.09464302739,-0.01441323878615505
6909.095642799604,-0.014161096367632634
6909.09664257182,-0.013908778149695253
6909.097642344035,-0.013656312221208508
6909.098642116251,-0.013403726331159627
6909.099641888466,-0.013151047891759266
6909.1006416606815,-0.012898303981592368
6909.101641432896,-0.012645521348811658
6909.102641205112,-0.012392726414367828
6909.103640977327,-0.012139945275270724
6909.104640749542,-0.01188720370787622
6909.105640521758,-0.011634527171193683
6909.106640293972,-0.011381940810209218
6909.107640066188,-0.011129469459220115
6909.108639838403,-0.010877137645176144
6909.109639610619,-0.01062496959102364
6909.110639382834,-0.010372989219048528
6909.1116391550495,-0.01012122015421473
6909.112638927264,-0.009869685727494559
6909.113638699479,-0.009618408979188014
6909.114638471695,-0.00936741266222803
6909.11563824391,-0.009116719245469048
6909.116638016126,-0.008866350916956525
6909.11763778834,-0.00861632958717527
6909.118637560556,-0.008366676892274895
6909.119637332771,-0.008117414197270988
6909.120637104987,-0.007868562599220988
6909.121636877202,-0.007620142930374117
6909.1226366494175,-0.007372175761295114
6909.123636421632,-0.007124681403961876
6909.124636193847,-0.006877679914837464
6909.125635966063,-0.006631191097917222
6909.126635738278,-0.006385234507751994
6909.127635510493,-0.006139829452448608
6909.128635282708,-0.005894994996648887
6909.129635054924,-0.005650749964488557
6909.130634827139,-0.005407112942537401
6909.131634599355,-0.005164102282722123
6909.13263437157,-0.004921736105233351
6909.133634143785,-0.00468003230141837
6909.134633916,-0.004439008536661274
6909.135633688215,-0.0041986822532524525
6909.136633460431,-0.0039590706732495675
6909.137633232646,-0.0037201908013324613
6909.138633004861,-0.00348205942765466
6909.139632777076,-0.003244693130694398
