Time,Filtered_ECG
6700.956389369106,-0.0024080770636820954
6700.957389141028,-0.0023899820477778053
6700.958388912951,-0.002371267272597304
6700.959388684874,-0.0023519278166722704
6700.960388456797,-0.0023319588772342326
6700.961388228719,-0.00231135577343329
6700.962388000642,-0.002290113949564131
6700.963387772565,-0.0022682289782985044
6700.964387544487,-0.002245696563923292
6700.965387316411,-0.0022225125455833253
6700.966387088333,-0.0021986729005280467
6700.967386860256,-0.002174173747361102
6700.968386632178,-0.0021490113492918885
6700.969386404101,-0.0021231821173880385
6700.9703861760245,-0.0020966826138277147
6700.971385947947,-0.0020695095551505195
6700.97238571987,-0.0020416598155057254
6700.973385491792,-0.0020131304298964424
6700.974385263715,-0.001983918597418297
6700.975385035638,-0.001954021684491145
6700.976384807561,-0.0019234372280823417
6700.977384579483,-0.0018921629389200903
6700.978384351406,-0.0018601967046953936
6700.979384123329,-0.0018275365932511434
6700.980383895252,-0.0017941808557568844
6700.981383667175,-0.0017601279298677828
6700.982383439097,-0.0017253764428663276
6700.98338321102,-0.0016899252147853018
6700.984382982942,-0.0016537732615105737
6700.985382754865,-0.0016169197978622828
6700.9863825267885,-0.0015793642406530329
6700.987382298711,-0.0015411062117217302
6700.988382070634,-0.0015021455409417275
6700.989381842556,-0.0014624822692019493
6700.990381614479,-0.0014221166513596936
6700.991381386402,-0.0013810491591638287
6700.992381158325,-0.0013392804841471106
6700.993380930247,-0.0012968115404863663
6700.99438070217,-0.0012536434678292981
6700.995380474093,-0.001209777634086663
6700.996380246015,-0.0011652156381885723
6700.997380017939,-0.001119959312803639
6700.998379789861,-0.0010740107270196565
6700.999379561784,-0.001027372188984442
6701.000379333706,-0.0009800462485053828
6701.00137910563,-0.0009320356996061304
6701.0023788775525,-0.0008833435830387638
6701.003378649475,-0.0008339731887496349
6701.004378421398,-0.0007839280582969993
6701.00537819332,-0.0007332119872184412
6701.006377965243,-0.0006818290273460158
6701.007377737166,-0.0006297834890669617
6701.008377509089,-0.000577079943527772
6701.009377281011,-0.0005237232247793604
6701.010377052934,-0.00046971843186101634
6701.011376824857,-0.00041507093082079395
6701.01237659678,-0.00035978635666993666
6701.013376368703,-0.00030387061526888866
6701.014376140625,-0.00024732988514239174
6701.015375912548,-0.00019017061922111016
6701.01637568447,-0.00013239954650716863
6701.017375456393,-7.402367366092925e-05
6701.0183752283165,-1.5050286506268491e-05
6701.019375000239,4.451304854845526e-05
6701.020374772162,0.00010465848317663405
6701.021374544084,0.00016537788588982715
6701.022374316007,0.0002266628408874552
6701.02337408793,0.0002885046470029849
6701.024373859853,0.0003508943167499395
6701.025373631775,0.00041382257547118687
6701.026373403698,0.00047727986059505545
6701.027373175621,0.0005412563210019077
6701.028372947544,0.0006057418165048577
6701.029372719467,0.0006707259174483507
6701.030372491389,0.0007361979044283397
6701.031372263312,0.0008021467681377806
6701.032372035234,0.000868561209341153
6701.033371807158,0.0009354296389816935
6701.0343715790805,0.0010027401784250185
6701.035371351003,0.0010704806598428212
6701.036371122926,0.001138638626740343
6701.037370894848,0.001207201334631343
6701.038370666771,0.0012761557518643203
6701.039370438694,0.001345488560603763
6701.040370210617,0.0014151861579702108
6701.041369982539,0.0014852346573429203
6701.042369754462,0.0015556198898289035
6701.043369526385,0.0016263274059020913
6701.044369298308,0.0016973424772163443
6701.045369070231,0.0017686500985960043
6701.046368842153,0.0018402349902076408
6701.047368614076,0.0019120815999165966
6701.048368385998,0.0019841741058318875
6701.049368157921,0.002056496419042975
6701.0503679298445,0.0021290321865518906
6701.051367701767,0.0022017647944041862
6701.05236747369,0.0022746773710221905
6701.053367245612,0.002347752790744069
6701.054367017535,0.0024209736775722326
6701.055366789458,0.002494322409134658
6701.056366561381,0.002567781120862749
6701.057366333303,0.002641331710389379
6701.058366105226,0.0027149558421708307
6701.059365877149,0.0027886349523363095
6701.060365649072,0.002862350253768738
6701.061365420995,0.0029360827414204854
6701.062365192917,0.0030098131978676364
6701.06336496484,0.0030835221991063425
6701.064364736762,0.0031571901205947636
6701.065364508686,0.0032307971435440656
6701.0663642806085,0.0033043232614619503
6701.067364052531,0.0033777482869521984
6701.068363824454,0.0034510518587737666
6701.069363596376,0.0035242134491630214
6701.070363368299,0.0035972123714227396
6701.071363140222,0.0036700277877814943
6701.072362912145,0.0037426387175270174
6701.073362684067,0.0038150240454169837
6701.07436245599,0.0038871625303704416
6701.075362227913,0.003959032814442722
6701.076361999836,0.004030613432086091
6701.077361771759,0.004101882819697613
6701.078361543681,0.004172819325454706
6701.079361315604,0.004243401219437667
6701.080361087526,0.004313606704037246
6701.08136085945,0.004383413924644039
6701.0823606313725,0.004452800980615249
6701.083360403295,0.004521745936513183
6701.084360175218,0.00459022683360865
6701.08535994714,0.004658221701641163
6701.086359719064,0.00472570857082643
6701.087359490986,0.0047926654840999335
6701.088359262909,0.004859070509583447
6701.089359034831,0.004924901753259167
6701.090358806754,0.004990137371833886
6701.091358578677,0.005054755585773306
6701.0923583506,0.005118734692484437
6701.093358122523,0.005182053079622123
6701.094357894445,0.00524468923849419
6701.095357666368,0.005306621777538691
6701.09635743829,0.005367829435846098
6701.097357210214,0.005428291096699024
6701.0983569821365,0.00548798580110195
6701.099356754059,0.005546892761273489
6701.100356525982,0.0056049913740738545
6701.101356297904,0.005662261234340525
6701.102356069827,0.005718682148105708
6701.10335584175,0.005774234145670087
6701.104355613673,0.005828897494508489
6701.105355385595,0.005882652711984465
6701.106355157518,0.005935480577852187
6701.107354929441,0.005987362146525589
6701.108354701364,0.006038278759096153
6701.109354473287,0.006088212055082229
6701.110354245209,0.006137143983894228
6701.111354017132,0.006185056816001445
6701.112353789054,0.006231933153787621
6701.113353560978,0.0062777559420837325
6701.1143533329005,0.0063225084783677405
6701.115353104823,0.006366174422622276
6701.116352876746,0.006408737806842394
6701.117352648668,0.006450183044186591
6701.118352420592,0.006490494937765347
6701.119352192514,0.006529658689062393
6701.120351964437,0.00656765990598489
6701.121351736359,0.00660448461053959
6701.122351508282,0.006640119246132932
6701.123351280205,0.006674550684493868
6701.124351052128,0.006707766232218976
6701.125350824051,0.006739753636940132
6701.126350595973,0.0067705010931156445
6701.127350367896,0.006799997247446325
6701.128350139818,0.006828231203918484
6701.129349911742,0.0068551925284763456
6701.1303496836645,0.0068808712533267235
6701.131349455587,0.006905257880879185
6701.13234922751,0.006928343387325176
6701.133348999432,0.006950119225859888
6701.134348771355,0.0069705773295508705
6701.135348543278,0.006989710113857629
6701.136348315201,0.007007510478806656
6701.137348087123,0.007023971810826569
6701.138347859046,0.007039087984248172
6701.139347630969,0.00705285336247448
6701.140347402892,0.00706526279882587
6701.141347174815,0.007076311637065726
6701.142346946737,0.007085995711612056
6701.14334671866,0.007094311347440727
6701.144346490582,0.0071012553596860204
6701.145346262506,0.007106825052944367
6701.1463460344285,0.007111018220287101
6701.147345806351,0.007113833141988177
6701.148345578274,0.007115268583972805
6701.149345350196,0.007115323795992992
6701.15034512212,0.007113998509536048
6701.151344894042,0.0071112929354721285
6701.152344665965,0.007107207761446933
6701.153344437887,0.0071017441490256955
6701.15434420981,0.0070949037305946035
6701.155343981733,0.007086688606025806
6701.156343753656,0.0070771013391121625
6701.157343525579,0.007066144953777899
6701.158343297501,0.00705382293007139
6701.159343069424,0.007040139199946287
6701.160342841346,0.007025098142837205
6701.16134261327,0.007008704581036245
6701.1623423851925,0.006990963774876535
6701.163342157115,0.006971881417729045
6701.164341929038,0.0069514636308188795
6701.16534170096,0.006929716957867238
6701.166341472884,0.006906648359565213
6701.167341244806,0.0068822652078855545
6701.168341016729,0.006856575280238443
6701.169340788651,0.0068295867534772835
6701.170340560574,0.006801308197760468
6701.1713403324975,0.006771748570274972
6701.17234010442,0.00674091720882758
6701.173339876343,0.006708823825309477
6701.174339648265,0.006675478499039855
6701.175339420188,0.00664089166999414
6701.17633919211,0.006605074131922389
6701.177338964034,0.006568037025363373
6701.1783387359565,0.006529791830559946
6701.179338507879,0.006490350360281244
6701.180338279802,0.00644972475255738
6701.181338051724,0.006407927463332299
6701.182337823648,0.006364971259040464
6701.18333759557,0.006320869209113033
6701.184337367493,0.006275634678419114
6701.185337139415,0.00622928131964766
6701.186336911338,0.006181823065635495
6701.187336683261,0.006133274121646886
6701.188336455184,0.006083648957609995
6701.189336227107,0.006032962300315442
6701.190335999029,0.0059812291255820875
6701.191335770952,0.005928464650395036
6701.192335542874,0.005874684325020698
6701.193335314798,0.005819903825103652
6701.1943350867205,0.00576413904374994
6701.195334858643,0.005707406083601333
6701.196334630566,0.005649721248905033
6701.197334402488,0.005591101037583208
6701.198334174412,0.005531562133306682
6701.199333946334,0.005471121397577055
6701.200333718257,0.00540979586182146
6701.201333490179,0.005347602719504093
6701.202333262102,0.005284559318258602
6701.2033330340255,0.005220683152045316
6701.204332805948,0.005155991853337234
6701.205332577871,0.005090503185338565
6701.206332349793,0.005024235034239518
6701.207332121716,0.004957205401510866
6701.208331893638,0.0048894323962417165
6701.209331665562,0.0048209342275237045
6701.2103314374845,0.004751729196884761
6701.211331209407,0.0046818356907753905
6701.21233098133,0.004611272173110295
6701.213330753252,0.004540057177868019
6701.214330525176,0.004468209301751183
6701.215330297098,0.004395747196909707
6701.216330069021,0.0043226895637293195
6701.217329840943,0.004249055143687548
6701.218329612866,0.0041748627122792405
6701.2193293847895,0.0041001310720136
6701.220329156712,0.004024879045484627
6701.221328928635,0.003949125468516832
6701.222328700557,0.003872889183388012
6701.22332847248,0.003796189032130898
6701.224328244403,0.0037190438499154705
6701.225328016326,0.0036414724585137493
6701.226327788248,0.0035634936598488622
6701.227327560171,0.003485126229630217
6701.228327332094,0.0034063889110766228
6701.229327104016,0.003327300408729218
6701.23032687594,0.0032478793823560543
6701.231326647862,0.0031681444409501756
6701.232326419785,0.0030881141368229795
6701.233326191707,0.0030078069597945715
6701.23432596363,0.002927241331482741
6701.2353257355535,0.0028464355996921185
6701.236325507476,0.002765408032904967
6701.237325279399,0.002684176814875003
6701.238325051321,0.0026027600393255528
6701.239324823244,0.0025211757047533087
6701.240324595166,0.0024394417093389154
6701.24132436709,0.0023575758459655916
6701.242324139012,0.0022755957973470036
6701.243323910935,0.0021935191312656118
6701.244323682858,0.002111363295922747
6701.24532345478,0.0020291456154016797
6701.246323226704,0.001946883285244954
6701.247322998626,0.0018645933681472537
6701.248322770549,0.001782292789765034
6701.249322542471,0.0016999983346440916
6701.250322314394,0.0016177266422661713
6701.2513220863175,0.0015354942032156128
6701.25232185824,0.0014533173554669443
6701.253321630163,0.0013712122807942359
6701.254321402085,0.0012891950013029256
6701.255321174008,0.0012072813760847373
6701.256320945931,0.0011254870979962041
6701.257320717854,0.0010438276905612135
6701.258320489776,0.0009623185049979013
6701.259320261699,0.0008809747173701424
6701.260320033622,0.0007998113258638006
6701.261319805544,0.0007188431481878349
6701.262319577468,0.0006380848191002798
6701.26331934939,0.0005575507880590296
6701.264319121313,0.0004772553169972572
6701.265318893235,0.00039721247822319307
6701.266318665158,0.00031743615244386796
6701.2673184370815,0.00023794002691230928
6701.268318209004,0.00015873759369756002
6701.269317980927,7.984214807678763e-05
6701.270317752849,1.266787048663755e-06
6701.271317524772,-7.697559203286937e-05
6701.272317296694,-0.0001548722927053765
6701.273317068618,-0.00023241082052621797
6701.27431684054,-0.0003095788840833419
6701.275316612463,-0.00038636439588958873
6701.276316384386,-0.0004627554731615229
6701.277316156308,-0.0005387404384838079
6701.278315928232,-0.0006143078203601443
6701.279315700154,-0.000689446353651798
6701.280315472077,-0.0007641449799047513
6701.281315243999,-0.0008383928475665184
6701.282315015922,-0.0009121793120936696
6701.2833147878455,-0.0009854939359511237
6701.284314559768,-0.0010583264885042885
6701.285314331691,-0.001130666945805182
6701.286314103613,-0.0012025054902737179
6701.287313875536,-0.0012738325102754063
6701.288313647459,-0.0013446385995967748
6701.289313419382,-0.0014149145568198595
6701.290313191304,-0.0014846513845971634
6701.291312963227,-0.0015538402888285213
6701.29231273515,-0.0016224726777413578
6701.293312507072,-0.0016905401608758826
6701.294312278996,-0.0017580345479768305
6701.295312050918,-0.001824947847793423
6701.296311822841,-0.0018912722667892995
6701.297311594763,-0.001957000207764244
6701.298311366686,-0.0020221242683896006
6701.2993111386095,-0.0020866372396593186
6701.300310910532,-0.0021505321042586327
6701.301310682455,-0.0022138020348524147
6701.302310454377,-0.002276440392295292
6701.3033102263,-0.0023384407237656843
6701.304309998223,-0.0023997967608259756
6701.305309770146,-0.0024605024174111415
6701.306309542068,-0.002520551787748274
6701.307309313991,-0.0025799391442095925
6701.308309085914,-0.002638658935101721
6701.309308857837,-0.002696705782394197
6701.31030862976,-0.0027540744793903777
6701.311308401682,-0.002810759988344083
6701.312308173605,-0.002866757438025487
6701.313307945527,-0.002922062121239937
6701.31430771745,-0.0029766694923035446
6701.3153074893735,-0.003030575164479504
6701.316307261296,-0.0030837749073792274
6701.317307033219,-0.0031362646443324482
6701.318306805141,-0.0031880404497304973
6701.319306577064,-0.0032390985463469713
6701.320306348987,-0.003289435302640013
6701.32130612091,-0.003339047230040401
6701.322305892832,-0.003387930980229591
6701.323305664755,-0.003436083342411805
6701.324305436678,-0.0034835012405842283
6701.3253052086,-0.0035301817308093053
6701.326304980524,-0.0035761219984931014
6701.327304752446,-0.0036213193556736537
6701.328304524369,-0.0036657712383231667
6701.329304296291,-0.003709475203667848
6701.330304068214,-0.0037524289275291276
6701.3313038401375,-0.0037946302016899384
6701.33230361206,-0.0038360769312896755
6701.333303383983,-0.0038767671322513875
6701.334303155905,-0.003916698928744699
6701.335302927828,-0.003955870550687917
6701.336302699751,-0.003994280331292706
6701.337302471674,-0.0040319267046546705
6701.338302243596,-0.004068808203393116
6701.339302015519,-0.004104923456343195
6701.340301787442,-0.00414027118630355
6701.341301559365,-0.004174850207842482
6701.342301331288,-0.004208659425165572
6701.34330110321,-0.0042416978300475715
6701.344300875133,-0.004273964499831287
6701.345300647055,-0.004305458595496072
6701.346300418978,-0.004336179359798398
6701.3473001909015,-0.004366126115486886
6701.348299962824,-0.004395298263594025
6701.349299734747,-0.004423695281806696
6701.350299506669,-0.004451316722917593
6701.351299278592,-0.004478162213359464
6701.352299050515,-0.0045042314518240895
6701.353298822438,-0.0045295242079677915
6701.35429859436,-0.004554040321205123
6701.355298366283,-0.004577779699592336
6701.356298138206,-0.004600742318802061
6701.357297910128,-0.00462292822119052
6701.358297682052,-0.004644337514958464
6701.359297453974,-0.004664970373406915
6701.360297225897,-0.0046848270342886396
6701.361296997819,-0.0047039077992562005
6701.362296769743,-0.0047222130334072816
6701.3632965416655,-0.004739743164927885
6701.364296313588,-0.004756498684833862
6701.365296085511,-0.0047724801468111
6701.366295857433,-0.0047876881671545584
6701.367295629356,-0.004802123424806181
6701.368295401279,-0.004815786661491543
6701.369295173202,-0.004828678681954939
6701.370294945124,-0.004840800354292382
6701.371294717047,-0.004852152610381798
6701.37229448897,-0.004862736446409457
6701.373294260893,-0.004872552923491422
6701.374294032816,-0.004881603168388575
6701.375293804738,-0.004889888374313513
6701.376293576661,-0.004897409801827416
6701.377293348583,-0.004904168779824752
6701.378293120506,-0.004910166706603509
6701.3792928924295,-0.004915405051018518
6701.380292664352,-0.004919885353715286
6701.381292436275,-0.004923609228441677
6701.382292208197,-0.004926578363434729
6701.38329198012,-0.00492879452287984
6701.384291752043,-0.0049302595484395275
6701.385291523966,-0.004930975360848941
6701.386291295888,-0.004930943961575296
6701.387291067811,-0.004930167434538381
6701.388290839734,-0.004928647947889262
6701.389290611657,-0.004926387755844299
6701.39029038358,-0.00492338920057157
6701.391290155502,-0.00491965471412675
6701.392289927425,-0.004915186820435442
6701.393289699347,-0.0049099881373189025
6701.394289471271,-0.004904061378559994
6701.3952892431935,-0.004897409356006066
6701.396289015116,-0.004890034981705321
6701.397288787039,-0.004881941270073045
6701.398288558961,-0.004873131340083938
6701.399288330884,-0.004863608417486555
6701.400288102807,-0.004853375837035695
6701.40128787473,-0.00484243704473838
6701.402287646652,-0.004830795600108929
6701.403287418575,-0.004818455178428474
6701.404287190498,-0.0048054195730041676
6701.405286962421,-0.004791692697423234
6701.406286734344,-0.0047772785877969685
6701.407286506266,-0.004762181404989739
6701.408286278189,-0.004746405436828003
6701.409286050111,-0.004729955100284306
6701.410285822034,-0.004712834943631198
6701.4112855939575,-0.004695049648559978
6701.41228536588,-0.004676604032259109
6701.413285137803,-0.004657503049447099
6701.414284909725,-0.004637751794354565
6701.415284681648,-0.004617355502650127
6701.416284453571,-0.0045963195533046935
6701.417284225494,-0.004574649470388611
6701.418283997416,-0.0045523509247961105
6701.419283769339,-0.0045294297358913745
6701.420283541262,-0.004505891873070544
6701.421283313185,-0.004481743457233939
6701.422283085108,-0.004456990762162765
6701.42328285703,-0.004431640215794593
6701.424282628953,-0.004405698401391877
6701.425282400875,-0.004379172058597781
6701.426282172799,-0.004352068084373542
6701.4272819447215,-0.0043243935338115784
6701.428281716644,-0.004296155620818512
6701.429281488567,-0.004267361718662222
6701.430281260489,-0.0042380193603770025
6701.431281032412,-0.00420813623902088
6701.432280804335,-0.004177720207779089
6701.433280576258,-0.004146779279907768
6701.43428034818,-0.004115321628511986
6701.435280120103,-0.004083355586152366
6701.436279892026,-0.004050889644274656
6701.437279663949,-0.004017932452456881
6701.438279435872,-0.003984492817468855
6701.439279207794,-0.0039505797021391715
6701.440278979717,-0.00391620222402503
6701.441278751639,-0.0038813696538805794
6701.442278523563,-0.0038460914139197577
6701.4432782954855,-0.0038103770758698575
6701.444278067408,-0.0037742363588123035
6701.445277839331,-0.003737679126807386
6701.446277611253,-0.0037007153862999515
6701.447277383177,-0.0036633552833033644
6701.448277155099,-0.0036256091003594145
6701.449276927022,-0.003587487253272263
6701.450276698944,-0.0035490002876149875
6701.451276470867,-0.003510158875007837
6701.45227624279,-0.003470973809167921
6701.453276014713,-0.003431456001730725
6701.454275786636,-0.003391616477844532
6701.455275558558,-0.003351466371539534
6701.456275330481,-0.003311016920874119
6701.457275102403,-0.003270279462861478
6701.458274874327,-0.0032292654281803387
6701.4592746462495,-0.003187986335674283
6701.460274418172,-0.003146453786644716
6701.461274190095,-0.00310467945894321
6701.462273962017,-0.0030626751008696225
6701.46327373394,-0.0030204525248830345
6701.464273505863,-0.0029780236011333187
6701.465273277786,-0.002935400250821863
6701.466273049708,-0.002892594439400814
6701.467272821631,-0.00284961816962108
6701.468272593554,-0.0028064834744403345
6701.469272365477,-0.002763202409803335
6701.4702721374,-0.002719787047308021
6701.471271909322,-0.0026762494667720636
6701.472271681245,-0.002632601748715734
6701.473271453167,-0.0025888559667780844
6701.474271225091,-0.002545024180084449
6701.4752709970135,-0.002501118425584058
6701.476270768936,-0.0024571507103771533
6701.477270540859,-0.0024131330040513786
6701.478270312781,-0.002369077231047418
6701.479270084705,-0.0023249952630738993
6701.480269856627,-0.0022808989115914798
6701.48126962855,-0.002236799920385778
6701.482269400472,-0.0021927099582484083
6701.483269172395,-0.002148640611784836
6701.484268944318,-0.002104603378367077
6701.485268716241,-0.0020606096592484533
6701.486268488164,-0.0020166707528567053
6701.487268260086,-0.0019727978482807365
6701.488268032009,-0.0019290020189651912
6701.489267803931,-0.0018852942166259063
6701.490267575855,-0.0018416852653981115
6701.4912673477775,-0.001798185856228042
6701.4922671197,-0.001754806541517394
6701.493266891623,-0.0017115577300287979
6701.494266663545,-0.0016684496820591774
6701.495266435468,-0.0016254925048865285
6701.496266207391,-0.00158269614849428
6701.497265979314,-0.0015400704015760191
6701.498265751236,-0.0014976248878220055
6701.499265523159,-0.0014553690624875886
6701.500265295082,-0.0014133122092424206
6701.501265067005,-0.0013714634372982326
6701.502264838928,-0.0013298316788119548
6701.50326461085,-0.001288425686560073
6701.504264382773,-0.0012472540318793487
6701.505264154695,-0.0012063251028683673
6701.506263926619,-0.0011656471028438082
6701.5072636985415,-0.0011252280490448572
6701.508263470464,-0.0010850757715787644
6701.509263242387,-0.0010451979126001856
6701.510263014309,-0.0010056019257165848
6701.511262786233,-0.0009662950756116606
6701.512262558155,-0.0009272844378784555
6701.513262330078,-0.0008885768990535548
6701.514262102,-0.00085017915684358
6701.515261873923,-0.0008120977205350296
6701.516261645846,-0.0007743389115784179
6701.517261417769,-0.0007369088643376161
6701.518261189692,-0.0006998135269952912
6701.519260961614,-0.0006630586626053744
6701.520260733537,-0.0006266498502835542
6701.521260505459,-0.0005905924865268712
6701.522260277383,-0.0005548917866535904
6701.5232600493055,-0.0005195527863546463
6701.524259821228,-0.00048458034334810236
6701.525259593151,-0.0004499791391282643
6701.526259365073,-0.0004157536808013409
6701.527259136997,-0.00038190830299986145
6701.528258908919,-0.00034844716986840476
6701.529258680842,-0.0003153742771135464
6701.530258452764,-0.0002826934541112362
6701.531258224687,-0.0002504083660650671
6701.5322579966105,-0.00021852251620909288
6701.533257768533,-0.0001870392480490183
6701.534257540456,-0.0001559617476357567
6701.535257312378,-0.0001252930458655306
6701.536257084301,-9.503602080089252e-05
6701.537256856223,-6.519340000725942e-05
6701.538256628147,-3.576776289978576e-05
6701.5392564000695,-6.761543095659022e-06
6701.540256171992,2.1822969232800754e-05
6701.541255943915,4.998362500850999e-05
6701.542255715837,7.771841390735102e-05
6701.543255487761,0.0001050254620267667
6701.544255259683,0.00013190302956835972
6701.545255031606,0.0001583495085373011
6701.546254803528,0.00018436342046103564
6701.547254575451,0.0002099434141294611
6701.548254347374,0.00023508826335844838
6701.549254119297,0.00025979686477828215
6701.55025389122,0.00028406823564835457
6701.551253663142,0.0003079015116992743
6701.552253435065,0.00033129594500346345
6701.553253206987,0.00035425090187530205
6701.554252978911,0.00037676586080190235
6701.5552527508335,0.0003988404104056198
6701.556252522756,0.00042047424743938463
6701.557252294679,0.00044166717481585144
6701.558252066601,0.0004624190996711991
6701.559251838525,0.00048273003146417416
6701.560251610447,0.0005026000801106688
6701.56125138237,0.0005220294541537809
6701.562251154292,0.0005410184589689506
6701.563250926215,0.000559567495003435
6701.5642506981385,0.0005776770560490918
6701.565250470061,0.0005953477275472154
6701.566250241984,0.0006125801849239863
6701.567250013906,0.0006293751919549723
6701.568249785829,0.0006457335991570615
6701.569249557751,0.0006616563422062414
6701.570249329675,0.0006771444403797547
6701.5712491015975,0.0006921989950213574
6701.57224887352,0.0007068211880286059
6701.573248645443,0.0007210122803613019
6701.574248417365,0.0007347736105704038
6701.575248189289,0.0007481065933468848
6701.576247961211,0.0007610127180901784
6701.577247733134,0.0007734935474960028
6701.578247505056,0.0007855507161634684
6701.579247276979,0.0007971859292214376
6701.580247048903,0.0008084009609740893
6701.581246820825,0.0008191976535655168
6701.582246592748,0.0008295779156629743
6701.58324636467,0.0008395437211580572
6701.584246136593,0.0008490971078846893
6701.585245908516,0.0008582401763523157
6701.586245680439,0.0008669750884922171
6701.5872454523615,0.0008753040664144152
6701.588245224284,0.0008832293911723126
6701.589244996207,0.0008907534015320505
6701.590244768129,0.0008978784927436022
6701.591244540053,0.000904607115310829
6701.592244311975,0.0009109417737580774
6701.593244083898,0.0009168850253912924
6701.59424385582,0.0009224394790520559
6701.595243627743,0.0009276077938633778
6701.5962433996665,0.000932392677966444
6701.597243171589,0.0009367968872478877
6701.598242943512,0.0009408232240574553
6701.599242715434,0.000944474535916228
6701.600242487357,0.0009477537142158144
6701.601242259279,0.0009506636929091651
6701.602242031203,0.0009532074471938765
6701.6032418031255,0.0009553879921890372
6701.604241575048,0.0009572083816068293
6701.605241346971,0.0009586717064202378
6701.606241118893,0.0009597810935283349
6701.607240890817,0.0009605397044206963
6701.608240662739,0.0009609507338425374
6701.609240434662,0.0009610174084621273
6701.610240206584,0.0009607429855419191
6701.611239978507,0.0009601307516146581
6701.612239750431,0.0009591840211655206
6701.613239522353,0.0009579061353211348
6701.614239294276,0.0009563004605461632
6701.615239066198,0.0009543703873479897
6701.616238838121,0.0009521193289899685
6701.617238610044,0.0009495507202136435
6701.618238381967,0.0009466680159703409
6701.6192381538895,0.0009434746901625605
6701.620237925812,0.0009399742343956302
6701.621237697735,0.0009361701567401384
6701.622237469657,0.0009320659805056988
6701.623237241581,0.0009276652430266405
6701.624237013503,0.0009229714944602293
6701.625236785426,0.0009179882965980108
6701.626236557348,0.000912719221690818
6701.627236329271,0.0009071678512879305
6701.6282361011945,0.0009013377750908035
6701.629235873117,0.0008952325898217422
6701.63023564504,0.0008888558981078708
6701.631235416962,0.0008822113073807567
6701.632235188885,0.0008753024287920837
6701.633234960807,0.0008681328761458191
6701.634234732731,0.0008607062648473762
6701.635234504653,0.0008530262108703117
6701.636234276576,0.0008450963297411411
6701.637234048499,0.0008369202355428654
6701.638233820421,0.0008285015399378037
6701.639233592345,0.0008198438512102899
6701.640233364267,0.0008109507733297099
6701.64123313619,0.0008018259050342186
6701.642232908112,0.0007924728389352878
6701.643232680035,0.0007828951606430298
6701.644232451959,0.0007730964479120376
6701.645232223881,0.000763080269807341
6701.646231995804,0.0007528501858900166
6701.647231767726,0.0007424097454220065
6701.648231539649,0.0007317624865898117
6701.649231311572,0.0007209119357468773
6701.650231083495,0.0007098616066746765
6701.651230855417,0.0006986149998626762
6701.65223062734,0.0006871756018075258
6701.653230399263,0.0006755468843319318
6701.654230171185,0.0006637323039237782
6701.655229943109,0.0006517353010961238
6701.656229715031,0.0006395592997687781
6701.657229486954,0.0006272077066722306
6701.658229258876,0.0006146839107747917
6701.659229030799,0.000601991282733904
6701.6602288027225,0.0005891331743726861
6701.661228574645,0.0005761129181828703
6701.662228346568,0.0005629338268553681
6701.66322811849,0.0005495991928397549
6701.664227890413,0.0005361122879339791
6701.665227662336,0.0005224763629056138
6701.666227434259,0.0005086946471459582
6701.667227206181,0.0004947703483582698
6701.668226978104,0.0004807066522813533
6701.669226750027,0.0004665067224496474
6701.67022652195,0.00045217369999082783
6701.671226293873,0.00043771070346180265
6701.672226065795,0.00042312082872382494
6701.673225837718,0.0004084071488573034
6701.67422560964,0.0003935727141167667
6701.675225381563,0.0003786205519263289
6701.676225153487,0.0003635536669159168
6701.677224925409,0.0003483750409984432
6701.678224697332,0.00033308763348804124
6701.679224469254,0.0003176943812594153
6701.680224241177,0.00030219819894830737
6701.6812240131,0.0002866019791930278
6701.682223785023,0.0002709085929169561
6701.683223556945,0.0002551208896518706
6701.684223328868,0.00023924169790192124
6701.685223100791,0.00022327382554801237
6701.686222872713,0.00020722006029232014
6701.687222644637,0.00019108317014262746
6701.688222416559,0.00017486590393612418
6701.689222188482,0.00015857099190228342
6701.690221960404,0.00014220114626438375
6701.691221732327,0.00012575906187919526
6701.6922215042505,0.00010924741691428911
6701.693221276173,9.266887356236749e-05
6701.694221048096,7.602607879194764e-05
6701.695220820018,5.932166513366091e-05
6701.696220591941,4.25582515013491e-05
6701.697220363864,2.5738444047051912e-05
6701.698220135787,8.86483704888775e-06
6701.699219907709,-8.059986169262701e-06
6701.700219679632,-2.5033452287452644e-05
6701.701219451555,-4.205299701001641e-05
6701.702219223478,-5.9116064057923836e-05
6701.703218995401,-7.62201041345767e-05
6701.704218767323,-9.336257386655634e-05
6701.705218539246,-0.00011054093472090262
6701.706218311168,-0.00012775265190057583
6701.707218083091,-0.00014499519321982198
6701.708217855015,-0.0001622660279612223
6701.709217626937,-0.0001795626257162479
6701.71021739886,-0.00019688245521115003
6701.711217170782,-0.00021422298311999323
6701.712216942705,-0.0002315816728665898
6701.713216714628,-0.0002489559834170316
6701.714216486551,-0.0002663433680644529
6701.715216258473,-0.00028374127320760027
6701.716216030396,-0.0003011471371247422
6701.717215802319,-0.0003185583887444233
6701.718215574241,-0.00033597244641456376
6701.719215346165,-0.0003533867166714274
6701.720215118087,-0.00037079859301003657
6701.72121489001,-0.00038820545465769124
6701.722214661932,-0.00040560466535235275
6701.723214433856,-0.0004229935721277572
6701.7242142057785,-0.0004403695041072341
6701.725213977701,-0.0004577297713083074
6701.726213749624,-0.00047507166346025655
6701.727213521546,-0.0004923924488369031
6701.728213293469,-0.0005096893731069595
6701.729213065392,-0.000526959658204322
6701.730212837315,-0.0005442005012206915
6701.731212609237,-0.0005614090733228708
6701.73221238116,-0.0005785825186970116
6701.733212153083,-0.0005957179535219945
6701.734211925006,-0.0006128124649740389
6701.735211696929,-0.0006298631102645609
6701.736211468851,-0.0006468669157132412
6701.737211240774,-0.0006638208758582212
6701.738211012696,-0.0006807219526053287
6701.739210784619,-0.000697567074418236
6701.740210556543,-0.0007143531355514707
6701.741210328465,-0.0007310769953282305
6701.742210100388,-0.0007477354774649643
6701.74320987231,-0.0007643253694446893
6701.744209644233,-0.0007808434219409662
6701.745209416156,-0.0007972863482943817
6701.746209188079,-0.0008136508240432965
6701.747208960001,-0.0008299334865105297
6701.748208731924,-0.0008461309344475807
6701.749208503847,-0.0008622397277379312
6701.75020827577,-0.0008782563871609282
6701.751208047693,-0.0008941773942176823
6701.752207819615,-0.0009099991910203358
6701.753207591538,-0.0009257181802459555
6701.75420736346,-0.0009413307251561844
6701.755207135384,-0.0009568331496836652
6701.7562069073065,-0.000972221738586106
6701.757206679229,-0.0009874927376686952
6701.758206451152,-0.001002642354075369
6701.759206223074,-0.0010176667566492083
6701.760205994997,-0.0010325620763619878
6701.76120576692,-0.0010473244068126524
6701.762205538843,-0.001061949804794268
6701.763205310765,-0.0010764342909287997
6701.764205082688,-0.001090773850368918
6701.765204854611,-0.0011049644335659116
6701.766204626534,-0.0011190019571026828
6701.767204398457,-0.001132882304590709
6701.768204170379,-0.0011466013276297637
6701.769203942302,-0.0011601548468291136
6701.770203714224,-0.0011735386528888424
6701.771203486147,-0.0011867485077399055
6701.772203258071,-0.0011997801457414854
6701.773203029993,-0.001212629274934207
6701.774202801916,-0.0012252915783477563
6701.775202573838,-0.0012377627153614453
6701.776202345761,-0.0012500383231162627
6701.777202117684,-0.0012621140179769532
6701.778201889607,-0.0012739853970426835
6701.779201661529,-0.0012856480397048585
6701.780201433452,-0.0012970975092506745
6701.781201205375,-0.0013083293545110032
6701.782200977298,-0.001319339111551193
6701.783200749221,-0.0013301223054033695
6701.784200521143,-0.001340674451838789
6701.785200293066,-0.00135099105917879
6701.786200064988,-0.0013610676301428423
6701.787199836912,-0.0013708996637321826
6701.7881996088345,-0.001380482657147485
6701.789199380757,-0.0013898121077389834
6701.79019915268,-0.001398883514987421
6701.791198924602,-0.00140769238251416
6701.792198696525,-0.0014162342201187344
6701.793198468448,-0.0014245045458420973
6701.794198240371,-0.0014324988880537377
6701.795198012293,-0.0014402127875607943
6701.796197784216,-0.0014476417997372308
6701.797197556139,-0.0014547814966711086
6701.798197328062,-0.0014616274693279897
6701.799197099985,-0.0014681753297285638
6701.800196871907,-0.001474420713138693
6701.80119664383,-0.0014803592802702078
6701.802196415752,-0.001485986719490936
6701.803196187676,-0.001491298749042583
6701.804195959599,-0.00149629111926519
6701.805195731521,-0.0015009596148269876
6701.806195503444,-0.001505300056958553
6701.807195275366,-0.0015093083056902912
6701.80819504729,-0.0015129802620924041
6701.809194819212,-0.0015163118705166872
6701.810194591135,-0.0015192991208396569
6701.811194363057,-0.0015219380507066292
6701.81219413498,-0.0015242247477764302
6701.813193906903,-0.0015261553519664015
6701.814193678826,-0.0015277260576972993
6701.815193450749,-0.0015289331161375725
6701.816193222671,-0.0015297728374463625
6701.817192994594,-0.001530241593014424
6701.818192766516,-0.0015303358177020396
6701.81919253844,-0.0015300520120728862
6701.8201923103625,-0.0015293867446227137
6701.821192082285,-0.0015283366540016123
6701.822191854208,-0.001526898451228577
6701.82319162613,-0.0015250689218970026
6701.824191398053,-0.0015228449283696693
6701.825191169976,-0.0015202234119617124
6701.826190941899,-0.001517201395110015
6701.827190713821,-0.0015137759835273969
6701.828190485744,-0.0015099443683399259
6701.829190257667,-0.0015057038282056232
6701.83019002959,-0.0015010517314127964
6701.831189801513,-0.0014959855379561896
6701.832189573435,-0.001490502801589126
6701.833189345358,-0.001484601171849813
6701.83418911728,-0.001478278396059987
6701.835188889204,-0.001471532321294094
6701.836188661127,-0.0014643608963172197
6701.837188433049,-0.001456762173490015
6701.838188204972,-0.0014487343106388832
6701.839187976894,-0.0014402755728897463
6701.840187748818,-0.0014313843344637492
6701.84118752074,-0.0014220590804333306
6701.842187292663,-0.001412298408437151
6701.843187064585,-0.0014021010303524482
6701.844186836508,-0.0013914657739234509
6701.845186608431,-0.001380391584344534
6701.846186380354,-0.0013688775257968454
6701.847186152277,-0.0013569227829371671
6701.848185924199,-0.0013445266623377827
6701.849185696122,-0.0013316885938761348
6701.850185468044,-0.0013184081320730546
6701.851185239968,-0.001304684957378318
6701.8521850118905,-0.0012905188774022627
6701.853184783813,-0.0012759098280921565
6701.854184555736,-0.001260857874851963
6701.855184327658,-0.0012453632136041083
6701.856184099581,-0.0012294261717918319
6701.857183871504,-0.0012130472093207047
6701.858183643427,-0.001196226919437915
6701.859183415349,-0.0011789660295479611
6701.860183187272,-0.0011612654019634466
6701.861182959195,-0.0011431260345897245
6701.862182731118,-0.0011245490615421994
6701.863182503041,-0.001105535753695161
6701.864182274963,-0.001086087519161094
6701.865182046886,-0.001066205903699474
6701.866181818808,-0.001045892591054134
6701.867181590732,-0.0010251494032183616
6701.868181362655,-0.001003978300626964
6701.869181134577,-0.0009823813822746215
6701.8701809065,-0.0009603608857599495
6701.871180678422,-0.000937919187254795
6701.872180450346,-0.0009150588013984115
6701.873180222268,-0.0008917823811162815
6701.874179994191,-0.0008680927173634773
6701.875179766113,-0.0008439927387925627
6701.876179538036,-0.0008194855113461522
6701.877179309959,-0.0007945742377743483
6701.878179081882,-0.000769262257077381
6701.879178853805,-0.0007435530438738693
6701.880178625727,-0.0007174502076952154
6701.88117839765,-0.0006909574922067194
6701.882178169572,-0.0006640787743560648
6701.883177941496,-0.0006368180634498842
6701.8841777134185,-0.0006091795001591592
6701.885177485341,-0.0005811673554542646
6701.886177257264,-0.0005527860294705276
6701.887177029186,-0.0005240400503052409
6701.88817680111,-0.0004949340727471431
6701.889176573032,-0.00046547287693944384
6701.890176344955,-0.0004356613669775254
6701.891176116877,-0.0004055045694424795
6701.8921758888,-0.00037500763187165
6701.893175660724,-0.00034417582116734214
6701.894175432646,-0.0003130145219448374
6701.895175204569,-0.00028152923482082726
6701.896174976491,-0.0002497255746433523
6701.897174748414,-0.0002176092686643163
6701.898174520336,-0.0001851861546556337
6701.89917429226,-0.00015246217897007137
6701.900174064183,-0.00011944339454785359
6701.901173836105,-8.613595887011131e-05
6701.902173608028,-5.254613186026977e-05
6701.90317337995,-1.868027373449096e-05
6701.904173151874,1.5455157197679563e-05
6701.905172923796,4.9853606781263905e-05
6701.906172695719,8.450842731115057e-05
6701.907172467641,0.00011941287987344068
6701.908172239564,0.00015456013673149964
6701.909172011487,0.00018994328375533597
6701.91017178341,0.00022555532289289263
6701.911171555333,0.00026138917468179653
6701.912171327255,0.0002974376808000692
6701.913171099178,0.00033369360665425285
6701.9141708711,0.00037014964400335353
6701.915170643024,0.00040679841361694694
6701.9161704149465,0.0004436324679657426
6701.917170186869,0.00048064429394286675
6701.918169958792,0.0005178263156141154
6701.919169730714,0.0005551708969954454
6701.920169502638,0.0005926703448560024
6701.92116927456,0.0006303169115450333
6701.922169046483,0.0006681027978410662
6701.923168818405,0.0007060201558217785
6701.924168590328,0.0007440610917529943
6701.925168362252,0.0007822176689952629
6701.926168134174,0.0008204819109264644
6701.927167906097,0.0008588458038788859
6701.928167678019,0.0008973013000892172
6701.929167449942,0.000935840320659933
6701.930167221864,0.0009744547585305608
6701.931166993788,0.0010131364814573783
6701.932166765711,0.0010518773350001306
6701.933166537633,0.001090669145514411
6701.934166309556,0.0011295037231483956
6701.935166081478,0.0011683728648426751
6701.936165853402,0.0012072683573319395
6701.937165625324,0.0012461819801472768
6701.938165397247,0.0012851055086177685
6701.939165169169,0.001324030716869957
6701.940164941092,0.0013629493808235767
6701.941164713016,0.0014018532811817441
6701.942164484938,0.00144073420641359
6701.943164256861,0.00147958395572713
6701.944164028783,0.0015183943420300292
6701.945163800706,0.001557157194875784
6701.946163572629,0.0015958643633927868
6701.947163344552,0.0016345077191936856
6701.9481631164745,0.0016730791592624384
6701.949162888397,0.0017115706088164956
6701.95016266032,0.0017499740241415926
6701.951162432242,0.0017882813953966935
6701.952162204166,0.0018264847493866807
6701.953161976088,0.0018645761523004365
6701.954161748011,0.0019025477124120203
6701.955161519933,0.001940391582742717
6701.956161291856,0.001978099963681847
6701.95716106378,0.0020156651055643605
6701.958160835702,0.0020530793112034018
6701.959160607625,0.0020903349383761967
6701.960160379547,0.0021274244022617735
6701.96116015147,0.002164340177829205
6701.962159923392,0.0022010748021752146
6701.963159695316,0.0022376208768101536
6701.964159467239,0.0022739710698915
6701.965159239161,0.002310118118404152
6701.966159011084,0.0023460548302869093
6701.967158783006,0.0023817740865046603
6701.96815855493,0.0024172688430659146
6701.969158326852,0.0024525321329854845
6701.970158098775,0.0024875570681922626
6701.971157870697,0.002522336841382179
6701.97215764262,0.0025568647278165295
6701.973157414544,0.0025911340870659887
6701.974157186466,0.0026251383647006646
6701.975156958389,0.0026588710939266227
6701.976156730311,0.0026923258971693017
6701.977156502234,0.002725496487604227
6701.978156274157,0.0027583766706353787
6701.97915604608,0.0027909603453215113
6701.9801558180025,0.0028232415057506495
6701.981155589925,0.0028552142423629405
6701.982155361848,0.0028868727432219813
6701.98315513377,0.002918211295234688
6701.984154905694,0.0029492242853197174
6701.985154677616,0.002979906201524404
6701.986154449539,0.0030102516340900945
6701.987154221461,0.0030402552764657136
6701.988153993384,0.003069911926269288
6701.989153765308,0.0030992164861971118
6701.99015353723,0.0031281639648801647
6701.991153309153,0.003156749477687354
6701.992153081075,0.0031849682474751257
6701.993152852998,0.0032128156052829942
6701.99415262492,0.00324028699097455
6701.995152396844,0.0032673779538235207
6701.996152168767,0.0032940841530445263
6701.997151940689,0.0033204013582682317
6701.998151712612,0.003346325449960695
6701.999151484534,0.003371852419786825
6702.000151256458,0.0033969783709179753
6702.00115102838,0.0034216995182838345
6702.002150800303,0.0034460121887688977
6702.003150572225,0.003469912821353929
6702.004150344148,0.003493397967202899
6702.005150116072,0.00351646428969594
6702.006149887994,0.0035391085644088643
6702.007149659917,0.003561327679039801
6702.008149431839,0.003583118633283474
6702.009149203762,0.0036044785386536507
6702.010148975685,0.0036254046182542764
6702.011148747608,0.003645894206499843
6702.0121485195305,0.003665944748785562
6702.013148291453,0.0036855538011079524
6702.014148063376,0.0037047190296365293
6702.015147835298,0.0037234382102373487
6702.016147607222,0.00374170922794925
6702.017147379144,0.0037595300764137712
6702.018147151067,0.003776898857259811
6702.019146922989,0.0037938137794442084
6702.020146694912,0.003810273158549501
6702.021146466836,0.003826275416040194
6702.022146238758,0.003841819078478846
6702.023146010681,0.003856902776703287
6702.024145782603,0.003871525244966226
6702.025145554526,0.0038856853200384665
6702.026145326449,0.003899381940276879
6702.027145098372,0.00391261414465825
6702.028144870294,0.00392538107178007
6702.029144642217,0.003937681958829279
6702.03014441414,0.003949516140519942
6702.031144186063,0.003960883048000805
6702.032143957986,0.0039717822077336455
6702.033143729908,0.003982213240343342
6702.034143501831,0.003992175859440583
6702.035143273753,0.004001669870418157
6702.036143045676,0.004010695169221761
6702.0371428176,0.004019251741096245
6702.038142589522,0.004027339659308196
6702.039142361445,0.0040349590838456946
6702.040142133367,0.004042110260096036
6702.04114190529,0.004048793517502141
6702.042141677213,0.004055009268198312
6702.043141449136,0.004060758005625952
6702.044141221058,0.00406604030312982
6702.045140992981,0.004070856812535354
6702.046140764904,0.004075208262707611
6702.047140536826,0.004079095458092314
6702.04814030875,0.004082519277239533
6702.049140080672,0.004085480671310552
6702.050139852595,0.004087980662568447
6702.051139624517,0.004090020342853002
6702.05213939644,0.00409160087204063
6702.053139168364,0.004092723476490044
6702.054138940286,0.004093389447474514
6702.055138712209,0.0040936001396016
6702.056138484131,0.0040933569692213085
6702.057138256054,0.004092661412823674
6702.058138027977,0.004091515005426746
6702.0591377999,0.004089919338956028
6702.060137571822,0.004087876060616389
6702.061137343745,0.004085386871257542
6702.062137115668,0.004082453523734172
6702.063136887591,0.004079077821261837
6702.064136659514,0.004075261615769759
6702.065136431436,0.004071006806251665
6702.066136203359,0.004066315337115795
6702.067135975281,0.004061189196535235
6702.068135747204,0.004055630414799663
6702.069135519128,0.004049641062669646
6702.07013529105,0.004043223249734592
6702.071135062973,0.004036379122775481
6702.072134834895,0.004029110864133509
6702.073134606818,0.00402142069008577
6702.074134378741,0.0040133108492291306
6702.075134150664,0.004004783620873433
6702.076133922586,0.003995841313445155
6702.077133694509,0.003986486262902635
6702.078133466432,0.003976720831163941
6702.079133238354,0.003966547404548431
6702.080133010278,0.00395596839223299
6702.0811327822,0.003944986224723936
6702.082132554123,0.003933603352345546
6702.083132326045,0.003921822243746128
6702.084132097969,0.003909645384422526
6702.085131869892,0.003897075275263898
6702.086131641814,0.003884114431115559
6702.087131413737,0.0038707653793636555
6702.088131185659,0.003857030658541377
6702.089130957582,0.003842912816957419
6702.090130729505,0.003828414411347377
6702.091130501428,0.003813538005548746
6702.09213027335,0.0037982861692001696
6702.093130045273,0.003782661476465615
6702.094129817196,0.0037666665047841018
6702.095129589119,0.003750303833645644
6702.096129361042,0.0037335760433940403
6702.097129132964,0.0037164857140571414
6702.098128904887,0.003699035424205176
6702.099128676809,0.003681227749837686
6702.100128448732,0.0036630652632995636
6702.101128220656,0.0036445505322266467
6702.102127992578,0.0036256861185212756
6702.103127764501,0.0036064745773581896
6702.104127536423,0.003586918456221077
6702.105127308346,0.003567020293970075
6702.106127080269,0.003546782619940471
6702.107126852192,0.003526207953072812
6702.108126624114,0.003505298801074608
6702.109126396037,0.003484057659613783
6702.11012616796,0.0034624870115440164
6702.111125939883,0.0034405893261621207
6702.112125711806,0.0034183670584975955
6702.113125483728,0.0033958226486345325
6702.114125255651,0.003372958521066044
6702.115125027573,0.003349777084081427
6702.116124799497,0.0033262807291862696
6702.11712457142,0.0033024718305557452
6702.118124343342,0.003278352744521344
6702.119124115265,0.003253925809091314
6702.120123887187,0.0032291933435050785
6702.12112365911,0.00320415764782192
6702.122123431033,0.0031788210025441967
6702.123123202956,0.0031531856682753528
6702.124122974878,0.003127253885412936
6702.125122746801,0.003101027873876816
6702.126122518724,0.0030745098328727512
6702.127122290647,0.0030477019406914083
6702.12812206257,0.0030206063545429305
6702.129121834492,0.0029932252104270985
6702.130121606415,0.0029655606230391466
6702.131121378337,0.00293761468571125
6702.13212115026,0.002909389470389712
6702.133120922184,0.0028808870276478753
6702.134120694106,0.0028521093867347833
6702.135120466029,0.0028230585556596457
6702.136120237951,0.0027937365213121777
6702.137120009874,0.002764145249618916
6702.138119781797,0.002734286685735639
6702.13911955372,0.0027041627542760596
6702.140119325642,0.002673775359576955
6702.141119097565,0.002643126385999952
6702.142118869488,0.0026122176982701964
6702.143118641411,0.0025810511418521663
6702.144118413334,0.002549628543362868
6702.145118185256,0.0025179517110226514
6702.146117957179,0.002486022435143839
6702.147117729101,0.0024538424886573124
6702.148117501025,0.002421413627677134
6702.149117272948,0.0023887375921032464
6702.15011704487,0.0023558161062621893
6702.151116816793,0.002322650879585722
6702.152116588715,0.0022892436073271467
6702.153116360638,0.0022555959713150666
6702.154116132561,0.0022217096407442264
6702.155115904484,0.002187586273003035
6702.156115676406,0.002153227514537288
6702.157115448329,0.0021186350017495382
6702.158115220252,0.002083810361933512
6702.159114992175,0.0020487552142429218
6702.160114764098,0.0020134711706940207
6702.16111453602,0.001977959837201216
6702.162114307943,0.0019422228146450703
6702.163114079865,0.0019062616999720185
6702.164113851789,0.0018700780873251337
6702.165113623712,0.0018336735692052895
6702.166113395634,0.0017970497376620608
6702.167113167557,0.0017602081855137089
6702.168112939479,0.0017231505075955796
6702.169112711403,0.0016858783020362294
6702.170112483325,0.0016483931715605697
6702.171112255248,0.0016106967248193352
6702.17211202717,0.001572790577744192
6702.173111799093,0.0015346763549278289
6702.174111571016,0.0014963556910283966
6702.175111342939,0.0014578302321976765
6702.176111114862,0.001419101637532358
6702.177110886784,0.0013801715805478005
6702.178110658707,0.0013410417506736613
6702.179110430629,0.001301713854770778
6702.180110202553,0.001262189618668708
6702.181109974476,0.0012224707887233438
6702.182109746398,0.0011825591333940201
6702.183109518321,0.001142456444839527
6702.184109290243,0.0011021645405324256
6702.185109062166,0.0010616852648910212
6702.186108834089,0.0010210204909283076
6702.187108606012,0.0009801721219171355
6702.188108377934,0.0009391420930707957
6702.189108149857,0.0008979323732381507
6702.19010792178,0.0008565449666124075
6702.191107693703,0.0008149819144525996
6702.192107465626,0.0007732452968168521
6702.193107237548,0.0007313372343065199
6702.194107009471,0.0006892598898203291
6702.195106781393,0.000647015470317708
6702.196106553317,0.0006046062285905625
6702.19710632524,0.0005620344650428252
6702.198106097162,0.0005193025294771687
6702.199105869085,0.00047641282288832964
6702.200105641007,0.0004333677992625188
6702.201105412931,0.00039016996738241034
6702.202105184853,0.00034682189263719824
6702.203104956776,0.00030332619883717966
6702.204104728698,0.0002596855700322801
6702.205104500621,0.00021590275233386396
6702.206104272544,0.00017198055573909186
6702.207104044467,0.00012792185595699284
6702.20810381639,8.372959623531565e-05
6702.209103588312,3.940678918711778e-05
6702.210103360235,-5.043481384061785e-06
6702.211103132157,-4.9618058661713126e-05
6702.212102904081,-9.431371099793123e-05
6702.213102676004,-0.00013912713010055155
6702.214102447926,-0.00018405492922745115
6702.215102219849,-0.00022909364138973186
6702.216101991771,-0.0002742397175656147
6702.217101763694,-0.0003194895249269912
6702.218101535617,-0.0003648393450806969
6702.21910130754,-0.0004102853723266935
6702.220101079462,-0.0004558237119354736
6702.221100851385,-0.0005014503784471365
6702.222100623308,-0.0005471612939947248
6702.223100395231,-0.000592952286654557
6702.224100167154,-0.0006388190888264367
6702.225099939076,-0.0006847573356467485
6702.226099710999,-0.0007307625634375755
6702.227099482921,-0.0007768302081950771
6702.228099254845,-0.0008229556041204609
6702.229099026768,-0.0008691339821969582
6702.23009879869,-0.0009153604688162769
6702.231098570613,-0.0009616300844580421
6702.232098342535,-0.0010079377424257738
6702.233098114459,-0.001054278247642959
6702.234097886381,-0.0011006462955127692
6702.235097658304,-0.001147036470844945
6702.236097430226,-0.0011934432468533086
6702.237097202149,-0.0012398609842273
6702.238096974072,-0.0012862839302808465
6702.239096745995,-0.0013327062181817913
6702.240096517918,-0.0013791218662650277
6702.24109628984,-0.001425524777432395
6702.242096061763,-0.0014719087386423325
6702.243095833685,-0.0015182674204922155
6702.244095605609,-0.0015645943768962578
6702.245095377532,-0.0016108830448618384
6702.246095149454,-0.00165712674436709
6702.247094921377,-0.0017033186783425704
6702.248094693299,-0.0017494519327598303
6702.249094465223,-0.0017955194768296439
6702.250094237145,-0.0018415141633126256
6702.251094009068,-0.0018874287289448726
6702.25209378099,-0.0019332557949811424
6702.253093552913,-0.001978987867857922
6702.2540933248365,-0.002024617339978554
6702.255093096759,-0.0020701364906223706
6702.256092868682,-0.002115537486979555
6702.257092640604,-0.0021608123853132178
6702.258092412527,-0.0022059531322499667
6702.259092184449,-0.0022509515662000397
6702.260091956373,-0.0022957994189078718
6702.261091728296,-0.002340488317133761
6702.262091500218,-0.0023850097844670824
6702.263091272141,-0.002429355243271256
6702.264091044063,-0.002473516016760435
6702.265090815987,-0.002517483331207605
6702.266090587909,-0.0025612483182834898
6702.267090359832,-0.002604802017525388
6702.268090131754,-0.0026481353789347757
6702.269089903677,-0.002691239265702281
6702.2700896756,-0.0027341044570584716
6702.271089447523,-0.002776721651248828
6702.272089219446,-0.0028190814686312937
6702.273088991368,-0.002861174454894856
6702.274088763291,-0.0029029910843976882
6702.275088535213,-0.002944521763623436
6702.276088307137,-0.002985756834754243
6702.27708807906,-0.0030266865793591147
6702.278087850982,-0.0030673012221961796
6702.279087622905,-0.0031075909351273726
6702.280087394827,-0.0031475458411440046
6702.281087166751,-0.0031871560185016013
6702.282086938673,-0.0032264115049623378
6702.283086710596,-0.0032653023021433037
6702.284086482518,-0.003303818379968773
6702.285086254441,-0.0033419496812245584
6702.2860860263645,-0.003379686126212481
6702.287085798287,-0.0034170176175029048
6702.28808557021,-0.003453934044783219
6702.289085342132,-0.003490425289800059
6702.290085114055,-0.003526481231392992
6702.291084885977,-0.0035620917506172865
6702.292084657901,-0.0035972467359532776
6702.293084429824,-0.0036319360885997093
6702.294084201746,-0.0036661497278482856
6702.295083973669,-0.003699877596536489
6702.296083745591,-0.0037331096665755743
6702.297083517515,-0.0037658359445505015
6702.298083289437,-0.0037980464773884237
6702.29908306136,-0.003829731358092223
6702.300082833282,-0.0038608807315354465
6702.301082605205,-0.0038914848003148593
6702.3020823771285,-0.003921533830656728
6702.303082149051,-0.003951018158372887
6702.304081920974,-0.003979928194862558
6702.305081692896,-0.004008254433155872
6702.306081464819,-0.004035987453994942
6702.307081236742,-0.0040631179319483395
6702.308081008665,-0.004089636641554685
6702.309080780588,-0.004115534463491043
6702.31008055251,-0.004140802390761722
6702.311080324433,-0.004165431534903038
6702.312080096355,-0.004189413132199553
6702.313079868279,-0.0042127385499072575
6702.314079640201,-0.0042353992924791676
6702.315079412124,-0.0042573870077887285
6702.316079184046,-0.004278693493346446
6702.317078955969,-0.004299310702505093
6702.3180787278925,-0.004319230750648836
6702.319078499815,-0.004338445921361568
6702.320078271738,-0.004356948672569675
6702.32107804366,-0.004374731642654415
6702.322077815583,-0.004391787656529012
6702.323077587505,-0.004408109731675452
6702.324077359429,-0.004423691084135863
6702.325077131352,-0.004438525134453214
6702.326076903274,-0.004452605513555945
6702.327076675197,-0.00446592606858095
6702.328076447119,-0.004478480868629198
6702.329076219043,-0.004490264210448108
6702.330075990965,-0.004501270624034645
6702.331075762888,-0.0045114948781529805
6702.33207553481,-0.004520931985760393
6702.333075306733,-0.004529577209335003
6702.3340750786565,-0.004537426066098781
6702.335074850579,-0.004544474333129139
6702.336074622502,-0.004550718052352302
6702.337074394424,-0.004556153535411485
6702.338074166347,-0.004560777368402791
6702.33907393827,-0.004564586416471552
6702.340073710193,-0.004567577828261747
6702.341073482116,-0.004569749040210927
6702.342073254038,-0.004571097780683009
6702.343073025961,-0.004571622073931158
6702.344072797883,-0.004571320243882913
6702.345072569807,-0.004570190917739652
6702.346072341729,-0.004568233029382386
6702.347072113652,-0.0045654458225758915
6702.348071885574,-0.004561828853963108
6702.349071657497,-0.004557381995841782
6702.3500714294205,-0.004552105438715336
6702.351071201343,-0.004545999693610062
6702.352070973266,-0.004539065594150868
6702.353070745188,-0.004531304298387989
6702.354070517111,-0.004522717290367334
6702.355070289033,-0.0045133063814374545
6702.356070060957,-0.004503073711286436
6702.35706983288,-0.004492021748702449
6702.358069604802,-0.004480153292052034
6702.359069376725,-0.00446747146947062
6702.360069148647,-0.004453979738760149
6702.361068920571,-0.0044396818869891
6702.362068692493,-0.004424582029790619
6702.363068464416,-0.004408684610354905
6702.364068236338,-0.004391994398112482
6702.365068008261,-0.004374516487105436
6702.3660677801845,-0.0043562562940442405
6702.367067552107,-0.004337219556048248
6702.36806732403,-0.004317412328068473
6702.369067095952,-0.00429684097999176
6702.370066867875,-0.00427551219342596
6702.371066639798,-0.0042534329581661945
6702.372066411721,-0.004230610568342814
6702.373066183644,-0.00420705261825213
6702.374065955566,-0.004182766997871572
6702.375065727489,-0.00415776188806146
6702.376065499411,-0.004132045755456227
6702.377065271335,-0.004105627347048574
6702.378065043257,-0.004078515684470719
6702.37906481518,-0.0040507200579776945
6702.380064587102,-0.0040222500201383925
6702.381064359025,-0.0039931153792409435
6702.3820641309485,-0.0039633261924199095
6702.383063902871,-0.0039328927585138
6702.384063674794,-0.0039018256106625273
6702.385063446716,-0.003870135508655565
6702.386063218639,-0.003837833431042833
6702.387062990562,-0.0038049305670215666
6702.388062762485,-0.003771438308113706
6702.389062534408,-0.0037373682396495407
6702.39006230633,-0.00370273213207443
6702.391062078253,-0.0036675419320963878
6702.392061850176,-0.00363180975369308
6702.393061622099,-0.0035955478689974427
6702.394061394021,-0.0035587686990815903
6702.395061165944,-0.003521484804659061
6702.396060937866,-0.003483708876725704
6702.397060709789,-0.0034454537271596196
6702.3980604817125,-0.0034067322793005484
6702.399060253635,-0.0033675575585289655
6702.400060025558,-0.0033279426828648462
6702.40105979748,-0.003287900853605639
6702.402059569403,-0.0032474453460224293
6702.403059341326,-0.003206589500132597
6702.404059113249,-0.0031653467115664614
6702.405058885172,-0.0031237304225445075
6702.406058657094,-0.0030817541129808095
6702.407058429017,-0.003039431291727292
6702.408058200939,-0.0029967754879724313
6702.409057972863,-0.0029538002428069537
6702.410057744785,-0.002910519100968018
6702.411057516708,-0.0028669456027722454
6702.41205728863,-0.002823093276246827
6702.413057060553,-0.0027789756294667725
6702.4140568324765,-0.002734606143105151
6702.415056604399,-0.0026899982632020204
6702.416056376322,-0.0026451653941565565
6702.417056148244,-0.0026001208919457933
6702.418055920167,-0.0025548780575723354
6702.41905569209,-0.0025094501307424315
6702.420055464013,-0.002463850283774933
6702.421055235936,-0.0024180916157408813
6702.422055007858,-0.0023721871468327903
6702.423054779781,-0.002326149812962062
6702.424054551704,-0.0022799924605824634
6702.425054323627,-0.002233727841737107
6702.426054095549,-0.0021873686093259676
6702.427053867472,-0.002140927312590629
6702.428053639394,-0.002094416392812655
6702.429053411317,-0.002047848179221718
6702.4300531832405,-0.0020012348851094403
6702.431052955163,-0.001954588604144742
6702.432052727086,-0.0019079213068864047
6702.433052499008,-0.0018612448374884934
6702.434052270931,-0.001814570910594236
6702.435052042854,-0.0017679111084139124
6702.436051814777,-0.001721276877982281
6702.437051586699,-0.0016746795285910339
6702.438051358622,-0.0016281302293917597
6702.439051130545,-0.0015816400071648764
6702.440050902467,-0.0015352197442500218
6702.441050674391,-0.0014888801766334005
6702.442050446313,-0.0014426318921876193
6702.443050218236,-0.001396485329059593
6702.444049990158,-0.0013504507742021301
6702.445049762082,-0.001304538362044875
6702.4460495340045,-0.001258758073300336
6702.447049305927,-0.0012131197339008085
6702.44804907785,-0.0011676330140620856
6702.449048849772,-0.0011223074274699625
6702.450048621695,-0.0010771523305856878
6702.451048393618,-0.0010321769220666887
6702.452048165541,-0.0009873902422990837
6702.453047937463,-0.0009428011730386854
6702.454047709386,-0.0008984184371573694
6702.455047481309,-0.0008542505984918477
6702.456047253232,-0.0008103060617920438
6702.457047025155,-0.0007665930727664087
6702.458046797077,-0.0007231197182216535
6702.459046569,-0.0006798939262944994
6702.460046340922,-0.000636923466773141
6702.461046112845,-0.0005942159515062028
6702.4620458847685,-0.0005517788348970211
6702.463045656691,-0.000509619414481125
6702.464045428614,-0.000467744831584828
6702.465045200536,-0.00042616207206289466
6702.466044972459,-0.000384877967113288
6702.467044744382,-0.0003438991941670574
6702.468044516305,-0.00030323227785146223
6702.469044288227,-0.0002628835910244513
6702.47004406015,-0.00022285935587862407
6702.471043832073,-0.00018316564511278917
6702.472043603996,-0.00014380838316920181
6702.473043375919,-0.00010479334753452158
6702.474043147841,-6.61261701024854e-05
6702.475042919764,-2.7812338596254493e-05
6702.476042691686,1.0142801951632578e-05
6702.47704246361,4.7734047663792734e-05
6702.4780422355325,8.495633422914189e-05
6702.479042007455,0.00012180473526282415
6702.480041779378,0.00015827446061716515
6702.4810415513,0.00019436085464595213
6702.482041323223,0.00023005939442438846
6702.483041095146,0.00026536568792708475
6702.484040867069,0.0003002754721664301
6702.485040638991,0.0003347846112936463
6702.486040410914,0.0003688890946647848
6702.487040182837,0.0004025850348738892
6702.48803995476,0.00043586866575552364
6702.489039726683,0.00046873634035885355
6702.490039498605,0.0005011845288954603
6702.491039270528,0.0005332098166630731
6702.49203904245,0.0005648089019474178
6702.493038814373,0.0005959785939044029
6702.4940385862965,0.0006267158104248913
6702.495038358219,0.0006570175759843277
6702.496038130142,0.0006868810194795156
6702.497037902064,0.0007163033720548563
6702.498037673987,0.0007452819649203872
6702.49903744591,0.0007738142271639844
6702.500037217833,0.0008018976835601276
6702.501036989755,0.0008295299523776666
6702.502036761678,0.0008567087431890777
6702.503036533601,0.0008834318546837429
6702.504036305524,0.0009096971724878103
6702.505036077447,0.0009355026669932033
6702.506035849369,0.0009608463911983262
6702.507035621292,0.0009857264785629715
6702.508035393214,0.0010101411408798805
6702.509035165138,0.0010340886661653322
6702.5100349370605,0.0010575674165710584
6702.511034708983,0.001080575826319697
6702.512034480906,0.0011031123996659163
6702.513034252828,0.001125175708885272
6702.514034024751,0.001146764392292782
6702.515033796674,0.0011678771522931361
6702.516033568597,0.0011885127534643817
6702.517033340519,0.001208670020676848
6702.518033112442,0.0012283478372489983
6702.519032884365,0.0012475451431418105
6702.520032656288,0.0012662609331932013
6702.521032428211,0.001284494255393897
6702.522032200133,0.0013022442092060543
6702.523031972056,0.0013195099439258081
6702.524031743978,0.0013362906570908138
6702.525031515902,0.001352585592933746
6702.5260312878245,0.0013683940408826243
6702.527031059747,0.0013837153341087493
6702.52803083167,0.0013985488481229815
6702.529030603592,0.0014128939994210478
6702.530030375516,0.001426750244178536
6702.531030147438,0.0014401170769962302
6702.532029919361,0.0014529940296964625
6702.533029691283,0.0014653806701711623
6702.534029463206,0.001477276601282283
6702.535029235129,0.001488681459815252
6702.536029007052,0.0014995949154860474
6702.537028778975,0.0015100166700024464
6702.538028550897,0.001519946456179942
6702.53902832282,0.0015293840371127679
6702.540028094742,0.001538329205400427
6702.541027866666,0.001546781782430073
6702.5420276385885,0.0015547416177150342
6702.543027410511,0.0015622085882897195
6702.544027182434,0.0015691825981610963
6702.545026954356,0.001575663577816858
6702.546026726279,0.0015816514837903488
6702.547026498202,0.0015871462982822548
6702.548026270125,0.001592148028839012
6702.549026042047,0.0015966567080878367
6702.55002581397,0.0016006723935282387
6702.551025585893,0.0016041951673798622
6702.552025357816,0.0016072251364865
6702.553025129739,0.0016097624322761234
6702.554024901661,0.0016118072107767951
6702.555024673584,0.0016133596526883294
6702.556024445506,0.0016144199635095655
6702.55702421743,0.001614988373721109
6702.5580239893525,0.0016150651390233709
6702.559023761275,0.0016146505406297194
6702.560023533198,0.001613744885614548
6702.56102330512,0.001612348507316064
6702.562023077044,0.0016104617657936228
6702.563022848966,0.0016080850483394548
6702.564022620889,0.0016052187700446603
6702.565022392811,0.0016018633744193686
6702.566022164734,0.0015980193340669692
6702.567021936657,0.0015936871514123365
6702.56802170858,0.0015888673594839854
6702.569021480503,0.0015835605227501087
6702.570021252425,0.0015777672380084618
6702.571021024348,0.0015714881353300584
6702.57202079627,0.0015647238790566197
6702.573020568194,0.0015574751688516957
6702.5740203401165,0.0015497427408053418
6702.575020112039,0.0015415273685921976
6702.576019883962,0.0015328298646827658
6702.577019655884,0.0015236510816076362
6702.578019427807,0.0015139919132743183
6702.57901919973,0.0015038532963362688
6702.580018971653,0.0014932362116135967
6702.581018743575,0.0014821416855648436
6702.582018515498,0.0014705707918091263
6702.583018287421,0.0014585246526978312
6702.584018059344,0.0014460044409349442
6702.585017831267,0.0014330113812449996
6702.586017603189,0.0014195467520875158
6702.587017375112,0.0014056118874166642
6702.588017147034,0.0013912081784847982
6702.589016918958,0.0013763370756883489
6702.5900166908805,0.0013610000904544877
6702.591016462803,0.001345198797166847
6702.592016234726,0.001328934835128482
6702.593016006648,0.0013122099105601472
6702.594015778572,0.001295025798631847
6702.595015550494,0.0012773843455255042
6702.596015322417,0.001259287470526484
6702.597015094339,0.0012407371681416016
6702.598014866262,0.0012217355102411233
6702.599014638185,0.0012022846482221676
6702.600014410108,0.001182386815190781
6702.601014182031,0.00116204432815986
6702.602013953953,0.0011412595902599886
6702.603013725876,0.0011200350929601902
6702.604013497798,0.0010983734182955318
6702.605013269722,0.0010762772410984626
6702.6060130416445,0.0010537493312307254
6702.607012813567,0.001030792555812622
6702.60801258549,0.0010074098814463832
6702.609012357412,0.000983604376430372
6702.610012129336,0.0009593792129608546
6702.611011901258,0.0009347376693180951
6702.612011673181,0.0009096831320335509
6702.613011445103,0.0008842190980349627
6702.614011217026,0.0008583491767661545
6702.6150109889495,0.0008320770922783577
6702.616010760872,0.0008054066852898893
6702.617010532795,0.0007783419152109967
6702.618010304717,0.0007508868621306742
6702.61901007664,0.0007230457287622339
6702.620009848562,0.0006948228423443659
6702.621009620486,0.0006662226564943758
6702.6220093924085,0.0006372497530102154
6702.623009164331,0.0006079088436178639
6702.624008936254,0.0005782047716605717
6702.625008708176,0.0005481425137264698
6702.6260084801,0.0005177271812110926
6702.627008252022,0.00048696402181144636
6702.628008023945,0.00045585842094838006
6702.629007795867,0.0004244159031141552
6702.63000756779,0.0003926421331422614
6702.631007339713,0.0003605429173966811
6702.632007111636,0.0003281242048779688
6702.633006883559,0.00029539208824366423
6702.634006655481,0.0002623528047407089
6702.635006427404,0.00022901273704766754
6702.636006199326,0.00019537841402466043
6702.63700597125,0.0001614565113689982
6702.6380057431725,0.00012725385217457575
6702.639005515095,9.277740739313778e-05
6702.640005287018,5.803429619557988e-05
6702.64100505894,2.3031786231503368e-05
6702.642004830864,-1.2222706214702719e-05
6702.643004602786,-4.7721616172917376e-05
6702.644004374709,-8.345723004308328e-05
6702.645004146631,-0.00011942168575928662
6702.646003918554,-0.00015560697306362132
6702.6470036904775,-0.00019200493389130905
6702.6480034624,-0.00022860726286852794
6702.649003234323,-0.00026540550792438503
6702.650003006245,-0.00030239107101844373
6702.651002778168,-0.0003395552089851802
6702.65200255009,-0.00037688903449668924
6702.653002322014,-0.00041438351714489266
6702.6540020939365,-0.0004520294846444161
6702.655001865859,-0.0004898176241571984
6702.656001637782,-0.0005277384837397875
6702.657001409704,-0.0005657824739141556
6702.658001181628,-0.0006039398693627437
6702.65900095355,-0.0006422008107483193
6702.660000725473,-0.0006805553066590983
6702.661000497395,-0.0007189932356794555
6702.662000269318,-0.0007575043485863981
6702.6630000412415,-0.0007960782706718173
6702.663999813164,-0.0008347045041903338
6702.664999585087,-0.0008733724309323474
6702.665999357009,-0.0009120713149216787
6702.666999128932,-0.0009507903052369765
6702.667998900855,-0.0009895184389558552
6702.668998672778,-0.0010282446442205283
6702.6699984447005,-0.0010669577434235123
6702.670998216623,-0.0011056464565117826
6702.671997988546,-0.0011442994044075705
6702.672997760468,-0.001182905112543804
6702.673997532392,-0.0012214520145120132
6702.674997304314,-0.0012599284558203329
6702.675997076237,-0.0012983226977590755
6702.676996848159,-0.001336622921371176
6702.677996620082,-0.0013748172315246733
6702.6789963920055,-0.0014128936610842734
6702.679996163928,-0.0014508401751789314
6702.680995935851,-0.001488644675562301
6702.681995707773,-0.0015262950050628115
6702.682995479696,-0.0015637789521200168
6702.683995251618,-0.0016010842554037366
6702.684995023542,-0.0016381986085123588
6702.6859947954645,-0.001675109664746491
6702.686994567387,-0.0017118050419539963
6702.68799433931,-0.0017482723274422636
6702.688994111232,-0.0017844990829534331
6702.689993883156,-0.001820472849698177
6702.690993655078,-0.0018561811534435729
6702.691993427001,-0.0018916115096505681
6702.692993198923,-0.0019267514286565313
6702.693992970846,-0.001961588420898435
6702.6949927427695,-0.0019961100021722725
6702.695992514692,-0.0020303036989244108
6702.696992286615,-0.002064157053570682
6702.697992058537,-0.002097657629839121
6702.69899183046,-0.0021307930181323374
6702.699991602383,-0.0021635508409055624
6702.700991374306,-0.0021959187580564673
6702.7019911462285,-0.0022278844723228313
6702.702990918151,-0.0022594357346841423
6702.703990690074,-0.0022905603497631937
6702.704990461996,-0.0023212461812237403
6702.70599023392,-0.0023514811571602803
6702.706990005842,-0.002381253275476067
6702.707989777765,-0.0024105506092454913
6702.708989549687,-0.002439361312057045
6702.70998932161,-0.0024676736233331643
6702.7109890935335,-0.00249547587362337
6702.711988865456,-0.0025227564898672433
6702.712988637379,-0.0025495040006239217
6702.713988409301,-0.002575707041264932
6702.714988181224,-0.002601354359127305
6702.715987953146,-0.002626434818624028
6702.71698772507,-0.002650937406309019
6702.7179874969925,-0.0026748512358939205
6702.718987268915,-0.0026981655532141197
6702.719987040838,-0.0027208697411415213
6702.72098681276,-0.0027429533244417007
6702.721986584684,-0.0027644059745731493
6702.722986356606,-0.002785217514426416
6702.723986128529,-0.0028053779230010002
6702.724985900451,-0.002824877340017927
6702.725985672374,-0.0028437060704659756
6702.7269854442975,-0.0028618545890795786
6702.72798521622,-0.0028793135447464304
6702.728984988143,-0.002896073764842889
6702.729984760065,-0.002912126259495276
6702.730984531988,-0.002927462225765199
6702.731984303911,-0.0029420730517570647
6702.732984075834,-0.0029559503206460056
6702.7339838477565,-0.002969085814624503
6702.734983619679,-0.002981471518766034
6702.735983391602,-0.0029930996248041623
6702.736983163524,-0.0030039625348255313
6702.737982935448,-0.0030140528648752714
6702.73898270737,-0.0030233634484733833
6702.739982479293,-0.003031887340040687
6702.740982251215,-0.003039617818232969
6702.741982023138,-0.003046548389181988
6702.7429817950615,-0.003052672789642073
6702.743981566984,-0.003057984990041112
6702.744981338907,-0.0030624791974348214
6702.745981110829,-0.0030661498583632847
6702.746980882752,-0.003068991661608886
6702.747980654675,-0.003070999540854857
6702.748980426598,-0.003072168677243797
6702.7499801985205,-0.0030724945018355894
6702.750979970443,-0.0030719726979642273
6702.751979742366,-0.0030705992034930894
6702.752979514289,-0.0030683702129682398
6702.753979286212,-0.0030652821796693422
6702.754979058134,-0.0030613318175578066
6702.755978830057,-0.00305651610312179
6702.756978601979,-0.0030508322771176763
6702.757978373902,-0.0030442778462076363
6702.7589781458255,-0.003036850584492838
6702.759977917748,-0.003028548534941802
6702.760977689671,-0.0030193700107133334
6702.761977461593,-0.003009313596373343
6702.762977233516,-0.0029983781490047776
6702.763977005439,-0.002986562799209781
6702.764976777362,-0.0029738669520031277
6702.7659765492845,-0.0029602902875959024
6702.766976321207,-0.0029458327620683978
6702.76797609313,-0.0029304946079311777
6702.768975865052,-0.002914276334573307
6702.769975636976,-0.002897178728596822
6702.770975408898,-0.0028792028540365867
6702.771975180821,-0.002860350052464765
6702.772974952743,-0.002840621942979208
6702.773974724666,-0.0028200204220750974
6702.7749744965895,-0.0027985476633992272
6702.775974268512,-0.0027762061173863374
6702.776974040435,-0.0027529985107769624
6702.777973812357,-0.0027289278460162995
6702.77897358428,-0.002703997400533693
6702.779973356203,-0.0026782107259024136
6702.780973128126,-0.002651571646879516
6702.7819729000485,-0.0026240842603257038
6702.782972671971,-0.0025957529340052414
6702.783972443894,-0.0025665823052660837
6702.784972215817,-0.002536577279600538
6702.78597198774,-0.002505743029086859
6702.786971759662,-0.0024740849907123066
6702.787971531585,-0.0024416088645782784
6702.788971303507,-0.0024083206119882464
6702.78997107543,-0.0023742264534193243
6702.7909708473535,-0.0023393328663784078
6702.791970619276,-0.0023036465831439462
6702.792970391199,-0.002267174588394538
6702.793970163121,-0.002229924116725656
6702.794969935044,-0.0021919026500559513
6702.795969706967,-0.0021531179149246885
6702.79696947889,-0.002113577879682016
6702.7979692508125,-0.00207329075157389
6702.798969022735,-0.002032264973723626
6702.799968794658,-0.00199050922201222
6702.80096856658,-0.0019480324018597602
6702.801968338504,-0.00190484364491043
6702.802968110426,-0.0018609523056238063
6702.803967882349,-0.0018163679577753254
6702.804967654271,-0.0017711003908689278
6702.805967426195,-0.0017251596064650025
6702.8069671981175,-0.0016785558144267762
6702.80796697004,-0.001631299429088274
6702.808966741963,-0.0015834010653468626
6702.809966513885,-0.0015348715346832228
6702.810966285808,-0.001485721841111381
6702.811966057731,-0.0014359631770611855
6702.812965829654,-0.0013856069191953673
6702.8139656015765,-0.0013346646241630972
6702.814965373499,-0.0012831480242917444
6702.815965145422,-0.0012310690232184044
6702.816964917345,-0.0011784396914626964
6702.817964689268,-0.0011252722619423466
6702.81896446119,-0.0010715791254331726
6702.819964233113,-0.0010173728259752317
6702.820964005035,-0.0009626660562270658
6702.821963776958,-0.0009074716527701418
6702.8229635488815,-0.000851802591365725
6702.823963320804,-0.0007956719821665395
6702.824963092727,-0.0007390930648856601
6702.825962864649,-0.0006820792039251534
6702.826962636572,-0.0006246438834670458
6702.827962408495,-0.0005668007025292501
6702.828962180418,-0.0005085633699891194
6702.82996195234,-0.0004499456995773283
6702.830961724263,-0.00039096160484480174
6702.831961496186,-0.00033162509410542446
6702.832961268109,-0.0002719502653572707
6702.833961040032,-0.00021195130118509378
6702.834960811954,-0.00015164246364679582
6702.835960583877,-9.103808914655505e-05
6702.836960355799,-3.0152583297219416e-05
6702.837960127723,3.099958422552676e-05
6702.8389598996455,9.240388483484235e-05
6702.839959671568,0.00015404573618802266
6702.840959443491,0.00021591050734332703
6702.841959215413,0.0002779835239164002
6702.842958987336,0.0003402500732344531
6702.843958759259,0.00040269540948643777
6702.844958531182,0.00046530475886748625
6702.845958303104,0.0005280633247158969
6702.846958075027,0.0005909562926409524
6702.84795784695,0.0006539688356398373
6702.848957618873,0.000717086119201894
6702.849957390796,0.0007802933063984064
6702.850957162718,0.0008435755629560338
6702.851956934641,0.0009069180623119549
6702.852956706563,0.0009703059906487111
6702.853956478486,0.001033724551906702
6702.8549562504095,0.0010971589727722386
6702.855956022332,0.0011605945076390404
6702.856955794255,0.0012240164435410443
6702.857955566177,0.0012874101050543874
6702.8589553381,0.0013507608591664245
6702.859955110023,0.0014140541201096396
6702.860954881946,0.0014772753541583117
6702.861954653868,0.0015404100843857914
6702.862954425791,0.001603443895380229
6702.863954197714,0.0016663624379165858
6702.864953969637,0.0017291514335827532
6702.86595374156,0.001791796679357597
6702.866953513482,0.0018542840521387654
6702.867953285405,0.0019165995132181047
6702.868953057327,0.0019787291127025606
6702.869952829251,0.0020406589938784542
6702.8709526011735,0.0021023753975170528
6702.871952373096,0.0021638646661193673
6702.872952145019,0.002225113248098125
6702.873951916941,0.0022861077018948663
6702.874951688864,0.0023468347000301306
6702.875951460787,0.0024072810330846833
6702.87695123271,0.002467433613609752
6702.877951004632,0.0025272794799642453
6702.878950776555,0.0025868058000769493
6702.879950548478,0.0026459998751317405
6702.880950320401,0.0027048491431738825
6702.881950092324,0.002763341182635558
6702.882949864246,0.0028214637157788704
6702.883949636169,0.002879204612054649
6702.884949408091,0.0029365518913755575
6702.885949180015,0.002993493727302146
6702.8869489519375,0.0030500184501406746
6702.88794872386,0.0031061145499517023
6702.888948495783,0.0031617706794685972
6702.889948267705,0.003216975656925252
6702.890948039629,0.00327171846879238
6702.891947811551,0.0033259882724218184
6702.892947583474,0.0033797743985982836
6702.893947355396,0.0034330663539980334
6702.894947127319,0.0034858538235538776
6702.895946899242,0.0035381266727259673
6702.896946671165,0.003589874949677819
6702.897946443088,0.0036410888873570284
6702.89894621501,0.003691758905480189
6702.899945986933,0.0037418756124215353
6702.900945758855,0.003791429807004896
6702.901945530779,0.003840412480198573
6702.9029453027015,0.003888814816712844
6702.903945074624,0.003936628196499843
6702.904944846547,0.003983844196155682
6702.905944618469,0.004030454590224777
6702.906944390392,0.00407645135240644
6702.907944162315,0.004121826656663952
6702.908943934238,0.004166572878236382
6702.90994370616,0.0042106825945535204
6702.910943478083,0.004254148586054324
6702.911943250006,0.004296963836909345
6702.912943021929,0.004339121535647594
6702.913942793852,0.004380615075688382
6702.914942565774,0.004421438055778691
6702.915942337697,0.004461584280336688
6702.916942109619,0.004501047759702018
6702.917941881543,0.004539822710293569
6702.9189416534655,0.004577903554675396
6702.919941425388,0.004615284921531503
6702.920941197311,0.004651961645550223
6702.921940969233,0.0046879287672189395
6702.922940741157,0.004723181532529916
6702.923940513079,0.00475771539259812
6702.924940285002,0.004791526003191945
6702.925940056924,0.004824609224177848
6702.926939828847,0.0048569611188799995
6702.92793960077,0.004888577953356087
6702.928939372693,0.0049194561955904674
6702.929939144616,0.004949592514605899
6702.930938916538,0.004978983779495061
6702.931938688461,0.005007627058373125
6702.932938460383,0.005035519617252571
6702.933938232307,0.0050626589188414745
6702.9349380042295,0.005089042621266486
6702.935937776152,0.005114668576721706
6702.936937548075,0.005139534830044659
6702.937937319997,0.0051636396172205935
6702.93893709192,0.005186981363816303
6702.939936863843,0.005209558683344681
6702.940936635766,0.005231370375561214
6702.941936407688,0.00525241542469362
6702.942936179611,0.0052726929976058216
6702.943935951534,0.005292202441897444
6702.944935723457,0.00531094328394002
6702.94593549538,0.005328915226851063
6702.946935267302,0.005346118148407207
6702.947935039225,0.005362552098897607
6702.948934811147,0.005378217298918835
6702.949934583071,0.005393114137112548
6702.9509343549935,0.00540724316784724
6702.951934126916,0.0054206051088454745
6702.952933898839,0.00543320083875803
6702.953933670761,0.005445031394686623
6702.954933442685,0.005456097969656989
6702.955933214607,0.005466401910044312
6702.95693298653,0.005475944712953169
6702.957932758452,0.005484728023554341
6702.958932530375,0.005492753632380991
6702.959932302298,0.005500023472586813
6702.960932074221,0.005506539617168892
6702.961931846144,0.005512304276158058
6702.962931618066,0.005517319793779589
6702.963931389989,0.005521588645587083
6702.964931161911,0.00552511343557236
6702.965930933835,0.005527896893254171
6702.9669307057575,0.005529941870748401
6702.96793047768,0.005531251339822364
6702.968930249603,0.005531828388935702
6702.969930021525,0.005531676220270261
6702.970929793449,0.005530798146751228
6702.971929565371,0.005529197589061738
6702.972929337294,0.0055268780726530605
6702.973929109216,0.00552384322475247
6702.974928881139,0.005520096771370814
6702.975928653063,0.005515642534311782
6702.976928424985,0.00551048442818478
6702.977928196908,0.005504626457423302
6702.97892796883,0.005498072713310577
6702.979927740753,0.005490827371014181
6702.980927512675,0.005482894686631231
6702.981927284599,0.005474278994245681
6702.9829270565215,0.005464984702999206
6702.983926828444,0.005455016294177097
6702.984926600367,0.005444378318310537
6702.985926372289,0.005433075392296584
6702.986926144213,0.005421112196537138
6702.987925916135,0.005408493472098095
6702.988925688058,0.005395224017889873
6702.98992545998,0.00538130868787045
6702.990925231903,0.005366752388272092
6702.991925003826,0.00535156007485293
6702.992924775749,0.00533573675017458
6702.993924547672,0.005319287460907025
6702.994924319594,0.005302217295162003
6702.995924091517,0.005284531379856157
6702.996923863439,0.005266234878105241
6702.997923635363,0.00524733298665072
6702.9989234072855,0.0052278309333201435
6702.999923179208,0.005207733974522693
6703.000922951131,0.0051870473927813415
6703.001922723053,0.005165776494303049
6703.002922494977,0.005143926606588446
6703.003922266899,0.005121503076082392
6703.004922038822,0.005098511265866835
6703.005921810744,0.005074956553397374
6703.006921582667,0.0050508443282848885
6703.007921354591,0.00502617999012359
6703.008921126513,0.005000968946366784
6703.009920898436,0.004975216610251532
6703.010920670358,0.004948928398773361
6703.011920442281,0.004922109730712021
6703.012920214203,0.004894766024709246
6703.013919986127,0.004866902697399389
6703.0149197580495,0.004838525161593776
6703.015919529972,0.004809638824519494
6703.016919301895,0.004780249086113308
6703.017919073817,0.00475036133737128
6703.018918845741,0.004719980958754603
6703.019918617663,0.004689113318652057
6703.020918389586,0.004657763771899473
6703.021918161508,0.004625937658356505
6703.022917933431,0.004593640301541017
6703.0239177053545,0.004560877007321351
6703.024917477277,0.004527653062666741
6703.0259172492,0.004493973734456189
6703.026917021122,0.004459844268346048
6703.027916793045,0.0044252698876966045
6703.028916564968,0.004390255792557917
6703.029916336891,0.004354807158715136
6703.0309161088135,0.004318929136793487
6703.031915880736,0.004282626851423051
6703.032915652659,0.004245905400463417
6703.033915424581,0.004208769854288217
6703.034915196505,0.0041712252551294945
6703.035914968427,0.004133276616481816
6703.03691474035,0.004094928922565964
6703.037914512272,0.004056187127852068
6703.038914284195,0.004017056156641947
6703.039914056119,0.00397754090271046
6703.040913828041,0.0039376462290056195
6703.041913599964,0.0038973769674072586
6703.042913371886,0.0038567379185440055
6703.043913143809,0.0038157338516683664
6703.044912915731,0.0037743695045897325
6703.045912687655,0.0037326495836651433
6703.0469124595775,0.003690578763847642
6703.0479122315,0.0036481616887920573
6703.048912003423,0.0036054029710180283
6703.049911775345,0.0035623071921300478
6703.050911547269,0.003518878903094222
6703.051911319191,0.003475122624571363
6703.052911091114,0.0034310428473059225
6703.053910863036,0.003386644032570152
6703.054910634959,0.0033419306126628036
6703.0559104068825,0.003296906991461624
6703.056910178805,0.003251577545028869
6703.057909950728,0.0032059466222690595
6703.05890972265,0.003160018545638198
6703.059909494573,0.0031137976119036915
6703.060909266496,0.0030672880929542086
6703.061909038419,0.0030204942366587333
6703.0629088103415,0.0029734202677740872
6703.063908582264,0.002926070388900197
6703.064908354187,0.0028784487814823897
6703.065908126109,0.002830559606860014
6703.066907898033,0.002782407007360653
6703.067907669955,0.002733995107439188
6703.068907441878,0.002685328014860915
6703.0699072138,0.0026364098219279
6703.070906985723,0.0025872446067477066
6703.071906757647,0.002537836434543599
6703.072906529569,0.002488189359005296
6703.073906301492,0.002438307423679315
6703.074906073414,0.0023881946633979223
6703.075905845337,0.0023378551057457015
6703.076905617259,0.0022872927725627345
6703.077905389183,0.0022365116814834123
6703.0789051611055,0.00218551584750992
6703.079904933028,0.0021343092846194895
6703.080904704951,0.0020828960074045564
6703.081904476873,0.002031280032745035
6703.082904248797,0.0019794653815119515
6703.083904020719,0.001927456080301732
6703.084903792642,0.00187525616320043
6703.085903564564,0.0018228696735771658
6703.086903336487,0.0017703006659059788
6703.0879031084105,0.0017175532076152077
6703.088902880333,0.0016646313809634023
6703.089902652256,0.0016115392849406654
6703.090902424178,0.0015582810371942053
6703.091902196101,0.0015048607759767965
6703.092901968024,0.001451282662116769
6703.093901739947,0.0013975508810080838
6703.0949015118695,0.0013436696446189824
6703.095901283792,0.0012896431935176275
6703.096901055715,0.0012354757989130704
6703.097900827637,0.0011811717647097902
6703.098900599561,0.0011267354295739537
6703.099900371483,0.0010721711690094373
6703.100900143406,0.0010174833974415597
6703.101899915328,0.0009626765703063712
6703.102899687251,0.0009077551861432609
6703.103899459175,0.0008527237886885561
6703.104899231097,0.0007975869689677022
6703.10589900302,0.0007423493673835238
6703.106898774942,0.0006870156757979966
6703.107898546865,0.000631590639604889
6703.108898318788,0.0005760790597905767
6703.109898090711,0.000520485794980274
6703.1108978626335,0.00046481576346685613
6703.111897634556,0.0004090739452193503
6703.112897406479,0.0003532653838680577
6703.113897178402,0.00029739518866314424
6703.114896950325,0.0002414685364034077
6703.115896722247,0.00018549067333181382
6703.11689649417,0.00012946691699429233
6703.117896266092,7.340265805820149e-05
6703.118896038015,1.7303362086804394e-05
6703.1198958099385,-3.882542873394806e-05
6703.120895581861,-9.4978093920056e-05
6703.121895353784,-0.00015114893306925525
6703.122895125706,-0.00020733216429963573
6703.123894897629,-0.00026352192275071743
6703.124894669552,-0.0003197122591505225
6703.125894441475,-0.0003758971384520798
6703.1268942133975,-0.00043207043854269077
6703.12789398532,-0.0004882259490291701
6703.128893757243,-0.0005443573701021749
6703.129893529165,-0.0006004583114826437
6703.130893301089,-0.0006565222914532976
6703.131893073011,-0.0007125427359780942
6703.132892844934,-0.0007685129779124712
6703.133892616856,-0.0008244262563071566
6703.134892388779,-0.0008802757158082532
6703.135892160703,-0.0009360544061562324
6703.136891932625,-0.0009917552817863906
6703.137891704548,-0.001047371201533243
6703.13889147647,-0.0011028949284412459
6703.139891248393,-0.0011583191296841316
6703.140891020316,-0.0012136363765950396
6703.141890792239,-0.0012688391448094978
6703.1428905641615,-0.0013239198145232013
6703.143890336084,-0.001378870670866409
6703.144890108007,-0.0014336839043966655
6703.14588987993,-0.001488351611711434
6703.146889651853,-0.0015428657961821207
6703.147889423775,-0.001597218368810853
6703.148889195698,-0.0016514011492112703
6703.14988896762,-0.001705405866714459
6703.150888739543,-0.0017592241616010411
6703.1518885114665,-0.0018128475864602883
6703.152888283389,-0.0018662676076769888
6703.153888055312,-0.0019194756070466676
6703.154887827234,-0.0019724628835196254
6703.155887599157,-0.002025220655074137
6703.15688737108,-0.00207774006071903
6703.157887143003,-0.0021300121626257433
6703.1588869149255,-0.002182027948389856
6703.159886686848,-0.002233778333421947
6703.160886458771,-0.0022852541634675516
6703.161886230693,-0.002336446217255863
6703.162886002617,-0.0023873452092767486
6703.163885774539,-0.002437941792685549
6703.164885546462,-0.002488226562335022
6703.165885318384,-0.002538190057933676
6703.166885090308,-0.002587822767329599
6703.167884862231,-0.0026371151299187617
6703.168884634153,-0.002686057540176678
6703.169884406076,-0.0027346403513121903
6703.170884177998,-0.002782853879042048
6703.171883949921,-0.0028306884054848614
6703.172883721844,-0.0028781341831728723
6703.173883493767,-0.0029251814391798576
6703.1748832656895,-0.0029718203793633272
6703.175883037612,-0.0030180411927189974
6703.176882809535,-0.003063834055845362
6703.177882581458,-0.0031091891375160064
6703.178882353381,-0.0031540966033571506
6703.179882125303,-0.0031985466206277237
6703.180881897226,-0.0032425293630991524
6703.181881669148,-0.0032860350160318686
6703.182881441071,-0.003329053781245456
6703.1838812129945,-0.003371575882279231
6703.184880984917,-0.0034135915696399655
6703.18588075684,-0.003455091126133427
6703.186880528762,-0.0034960648722763368
6703.187880300685,-0.003536503171785349
6703.188880072608,-0.003576396437139628
6703.189879844531,-0.0036157351352135744
6703.1908796164535,-0.003654509792976216
6703.191879388376,-0.003692711003253733
6703.192879160299,-0.003730329430551499
6703.193878932222,-0.0037673558169319344
6703.194878704145,-0.0038037809879443198
6703.195878476067,-0.0038395958586025783
6703.19687824799,-0.0038747914394068684
6703.197878019912,-0.0039093588424046555
6703.198877791836,-0.003943289287286774
6703.199877563759,-0.003976574107513864
6703.200877335681,-0.004009204756468443
6703.201877107604,-0.004041172813627796
6703.202876879526,-0.004072469990752771
6703.203876651449,-0.004103088138087497
6703.204876423372,-0.004133019250564943
6703.205876195295,-0.00416225547401313
6703.2068759672175,-0.004190789111356693
6703.20787573914,-0.004218612628808387
6703.208875511063,-0.00424571866204501
6703.209875282986,-0.004272100022362097
6703.210875054909,-0.0042977497028016355
6703.211874826831,-0.004322660884246925
6703.212874598754,-0.004346826941478546
6703.213874370676,-0.004370241449185291
6703.214874142599,-0.0043928981879237175
6703.2158739145225,-0.0044147911500198546
6703.216873686445,-0.004435914545406403
6703.217873458368,-0.004456262807388631
6703.21887323029,-0.004475830598332002
6703.219873002213,-0.004494612815264443
6703.220872774136,-0.004512604595385994
6703.221872546059,-0.004529801321478526
6703.2228723179815,-0.004546198627208127
6703.223872089904,-0.004561792402312721
6703.224871861827,-0.0045765787976674585
6703.22587163375,-0.0045905542302204
6703.226871405673,-0.004603715387790943
6703.227871177595,-0.004616059233723426
6703.228870949518,-0.004627583011388222
6703.22987072144,-0.00463828424852257
6703.230870493364,-0.004648160761403238
6703.231870265287,-0.004657210658843055
6703.232870037209,-0.004665432346003217
6703.233869809132,-0.004672824528013214
6703.234869581054,-0.004679386213390175
6703.235869352977,-0.004685116717249416
6703.2368691249,-0.004690015664297983
6703.237868896823,-0.004694082991603074
6703.238868668745,-0.004697318951127279
6703.239868440668,-0.00469972411202266
6703.240868212591,-0.0047012993626758615
6703.241867984514,-0.004702045912496531
6703.242867756437,-0.004701965293441549
6703.243867528359,-0.004701059361267808
6703.244867300282,-0.0046993302965065735
6703.245867072204,-0.004696780605152812
6703.246866844128,-0.004693413119063255
6703.2478666160505,-0.004689230996057334
6703.248866387973,-0.0046842377197154695
6703.249866159896,-0.004678437098869572
6703.250865931818,-0.0046718332667809
6703.251865703742,-0.004664430680000828
6703.252865475664,-0.004656234116910449
6703.253865247587,-0.004647248675935359
6703.254865019509,-0.004637479773432494
6703.255864791432,-0.004626933141246334
6703.256864563355,-0.004615614823932366
6703.257864335278,-0.004603531175646191
6703.258864107201,-0.004590688856697179
6703.259863879123,-0.004577094829766154
6703.260863651046,-0.004562756355787108
6703.261863422968,-0.00454768098949353
6703.262863194892,-0.004531876574630532
6703.263862966815,-0.004515351238834611
6703.264862738737,-0.004498113388183524
6703.26586251066,-0.004480171701419521
6703.266862282582,-0.004461535123849912
6703.267862054505,-0.0044422128609297885
6703.268861826428,-0.004422214371532566
6703.269861598351,-0.004401549360914921
6703.270861370273,-0.0043802277733836345
6703.271861142196,-0.004358259784672859
6703.272860914119,-0.00433565579404141
6703.273860686042,-0.004312426416100854
6703.274860457965,-0.004288582472386486
6703.275860229887,-0.004264134982684602
6703.27686000181,-0.0042390951561309025
6703.277859773732,-0.004213474382096199
6703.278859545656,-0.004187284220876947
6703.2798593175785,-0.00416053639420928
6703.280859089501,-0.004133242775626285
6703.281858861424,-0.004105415380679124
6703.282858633346,-0.004077066357043297
6703.28385840527,-0.004048207974531905
6703.284858177192,-0.004018852615038153
6703.285857949115,-0.003989012762429561
6703.286857721037,-0.003958700992416413
6703.28785749296,-0.003927929962416905
6703.288857264883,-0.003896712401441149
6703.289857036806,-0.0038650611000158237
6703.290856808729,-0.00383298890017066
6703.291856580651,-0.003800508685507278
6703.292856352574,-0.003767633371370029
6703.293856124496,-0.0037343758951375624
6703.29485589642,-0.0037007492066527545
6703.295855668343,-0.0036667662588075346
6703.296855440265,-0.00363243999829794
6703.297855212188,-0.003597783356563569
6703.29885498411,-0.0035628092409243743
6703.299854756033,-0.0035275305259265454
6703.300854527956,-0.003491960044907985
6703.301854299879,-0.0034561105817926823
6703.302854071801,-0.0034199948631220296
6703.303853843724,-0.0033836255503298957
6703.304853615647,-0.003347015232267078
6703.30585338757,-0.0033101764179795904
6703.306853159493,-0.0032731215297441413
6703.307852931415,-0.0032358628963631546
6703.308852703338,-0.0031984127467207476
6703.30985247526,-0.0031607832036002264
6703.310852247184,-0.0031229862777628833
6703.3118520191065,-0.0030850338622871714
6703.312851791029,-0.0030469377271667114
6703.313851562952,-0.003008709514165016
6703.314851334874,-0.002970360731924287
6703.315851106798,-0.0029319027513251814
6703.31685087872,-0.002893346801094055
6703.317850650643,-0.002854703963653813
6703.318850422565,-0.0028159851712142273
6703.319850194488,-0.0027772012020973254
6703.320849966411,-0.0027383626772933076
6703.321849738334,-0.002699480057242309
6703.322849510257,-0.0026605636388372447
6703.323849282179,-0.0026216235526428998
6703.324849054102,-0.0025826697603263983
6703.325848826024,-0.0025437120522941673
6703.326848597948,-0.002504760045530549
6703.327848369871,-0.0024658231816332486
6703.328848141793,-0.002426910725040903
6703.329847913716,-0.002388031761448131
6703.330847685638,-0.002349195196403542
6703.331847457562,-0.002310409754086287
6703.332847229484,-0.0022716839762568484
6703.333847001407,-0.0022330262213778687
6703.334846773329,-0.0021944446639009458
6703.335846545252,-0.002155947293715414
6703.336846317176,-0.0021175419157552474
6703.337846089098,-0.0020792361497603325
6703.338845861021,-0.0020410374301884256
6703.339845632943,-0.002002953006274169
6703.340845404866,-0.0019649899422315865
6703.341845176788,-0.001927155117596473
6703.342844948712,-0.0018894552277051132
6703.3438447206345,-0.0018518967843057668
6703.344844492557,-0.0018144861162993652
6703.34584426448,-0.0017772293706058693
6703.346844036402,-0.0017401325131527476
6703.347843808326,-0.001703201329982038
6703.348843580248,-0.0016664414284724685
6703.349843352171,-0.0016298582386731373
6703.350843124093,-0.0015934570147452785
6703.351842896016,-0.0015572428365087
6703.352842667939,-0.0015212206110895275
6703.353842439862,-0.0014853950746659586
6703.354842211785,-0.001449770794308786
6703.355841983707,-0.0014143521699135073
6703.35684175563,-0.0013791434362208793
6703.357841527552,-0.001344148664922817
6703.358841299476,-0.0013093717668505767
6703.359841071399,-0.0012748164942421902
6703.360840843321,-0.0012404864430861546
6703.361840615244,-0.0012063850555384054
6703.362840387166,-0.00117251562240963
6703.36384015909,-0.0011388812857199941
6703.364839931012,-0.0011054850413183537
6703.365839702935,-0.0010723297415630318
6703.366839474857,-0.0010394180980612408
6703.36783924678,-0.0010067526844642408
6703.368839018704,-0.000974335939315339
6703.369838790626,-0.0009421701689478567
6703.370838562549,-0.0009102575504302185
6703.371838334471,-0.0008786001345553619
6703.372838106394,-0.0008471998488716954
6703.373837878316,-0.0008160585007528774
6703.37483765024,-0.0007851777805037122
6703.3758374221625,-0.0007545592644994663
6703.376837194085,-0.0007242044183558861
6703.377836966008,-0.0006941146001271476
6703.37883673793,-0.0006642910635289049
6703.379836509854,-0.0006347349611835292
6703.380836281776,-0.000605447347884563
6703.381836053699,-0.0005764291838773384
6703.382835825621,-0.0005476813381526475
6703.383835597544,-0.0005192045917502998
6703.384835369468,-0.0004909996410693871
6703.38583514139,-0.00046306710118208946
6703.386834913313,-0.0004354075091478971
6703.387834685235,-0.00040802132732518606
6703.388834457158,-0.000380908946677149
6703.389834229081,-0.0003540706900691496
6703.390834001004,-0.0003275068155546349
6703.391833772927,-0.00030121751964680356
6703.392833544849,-0.00027520294057328413
6703.393833316772,-0.0002494631615111272
6703.394833088694,-0.0002239982137994472
6703.395832860618,-0.0001988080801270667
6703.39683263254,-0.00017389269769251713
6703.397832404463,-0.00014925196133374805
6703.398832176385,-0.00012488572662491004
6703.399831948308,-0.00010079381293762185
6703.400831720232,-7.697600646421526e-05
6703.401831492154,-5.343206320055724e-05
6703.402831264077,-3.016171188615982e-05
6703.403831035999,-7.164656899390144e-06
6703.404830807922,1.5559418894317743e-05
6703.405830579844,3.8010851343267866e-05
6703.406830351768,6.018999226126802e-05
6703.4078301236905,8.209720673222576e-05
6703.408829895613,0.00010373287046936756
6703.409829667536,0.00012509736723079662
6703.410829439458,0.00014619108629303364
6703.411829211382,0.00016701441998412414
6703.412828983304,0.00018756776127784494
6703.413828755227,0.0002078515014504945
6703.414828527149,0.00022786602780169832
6703.415828299072,0.0002476117214405997
6703.416828070996,0.00026708895513873597
6703.417827842918,0.0002862980912508312
6703.418827614841,0.00030523947970466765
6703.419827386763,0.0003239134560611422
6703.420827158686,0.00034232033964557253
6703.421826930609,0.00036046043175129086
6703.422826702532,0.0003783340139165527
6703.423826474455,0.00039594134627578406
6703.424826246377,0.0004132826659861904
6703.4258260183,0.0004303581857307416
6703.426825790222,0.000447168092298518
6703.427825562146,0.00046371254524335445
6703.428825334068,0.0004799916756216489
6703.429825105991,0.0004960055848101088
6703.430824877913,0.0005117543434041017
6703.431824649836,0.0005272379901971699
6703.43282442176,0.0005424565312421628
6703.433824193682,0.0005574099389943501
6703.434823965605,0.000572098151536788
6703.435823737527,0.0005865210718881314
6703.43682350945,0.0006006785673930102
6703.437823281372,0.000614570469195027
6703.438823053296,0.0006281965717923787
6703.4398228252185,0.0006415566326760587
6703.440822597141,0.0006546503720505509
6703.441822369064,0.0006674774726368874
6703.442822140986,0.0006800375795579165
6703.44382191291,0.0006923303003055984
6703.444821684832,0.0007043552047901419
6703.445821456755,0.000716111825470781
6703.446821228677,0.000727599657567994
6703.4478210006,0.0007388181593569673
6703.448820772524,0.0007497667525421138
6703.449820544446,0.0007604448227124536
6703.450820316369,0.0007708517198776509
6703.451820088291,0.0007809867590844733
6703.452819860214,0.0007908492211133925
6703.453819632137,0.0008004383532549767
6703.45481940406,0.0008097533701656471
6703.455819175983,0.0008187934548022733
6703.456818947905,0.0008275577594349829
6703.457818719828,0.0008360454067374538
6703.45881849175,0.0008442554909538407
6703.459818263674,0.0008521870791413865
6703.460818035596,0.0008598392124876532
6703.461817807519,0.0008672109077011971
6703.462817579441,0.0008743011584744143
6703.463817351364,0.0008811089370171855
6703.464817123288,0.0008876331956598665
6703.46581689521,0.0008938728685240968
6703.466816667133,0.0008998268732598232
6703.467816439055,0.0009054941128468673
6703.468816210978,0.0009108734774592939
6703.469815982901,0.0009159638463907714
6703.470815754824,0.0009207640900390588
6703.4718155267465,0.000925273071947701
6703.472815298669,0.0009294896509029693
6703.473815070592,0.0009334126830840597
6703.474814842515,0.0009370410242645399
6703.475814614438,0.0009403735320630251
6703.47681438636,0.0009434090682410585
6703.477814158283,0.0009461465010461707
6703.478813930205,0.0009485847075980842
6703.479813702128,0.0009507225763160222
6703.480813474052,0.0009525590093850664
6703.481813245974,0.0009540929252594949
6703.482813017897,0.0009553232612010194
6703.483812789819,0.0009562489758498172
6703.484812561742,0.000956869051826238
6703.485812333665,0.0009571824983610314
6703.486812105588,0.0009571883539519108
6703.487811877511,0.0009568856890442172
6703.488811649433,0.0009562736087333953
6703.489811421356,0.000955351255486944
6703.490811193278,0.0009541178118834444
6703.491810965202,0.0009525725033662165
6703.492810737124,0.000950714601009096
6703.493810509047,0.0009485434242917619
6703.494810280969,0.0009460583438819877
6703.495810052892,0.0009432587844221391
6703.496809824816,0.0009401442273172092
6703.497809596738,0.000936714213521664
6703.498809368661,0.0009329683463223684
6703.499809140583,0.000928906294114872
6703.500808912506,0.0009245277931703501
6703.501808684429,0.0009198326503905312
6703.502808456352,0.0009148207460479769
6703.5038082282745,0.0009094920365091297
6703.504808000197,0.0009038465569375936
6703.50580777212,0.0008978844239751413
6703.506807544043,0.000891605838397958
6703.507807315966,0.0008850110877456285
6703.508807087888,0.0008781005489203467
6703.509806859811,0.0008708746907537832
6703.510806631733,0.0008633340765389847
6703.511806403656,0.0008554793665246139
6703.51280617558,0.0008473113203687492
6703.513805947502,0.0008388307995493909
6703.514805719425,0.000830038769728749
6703.515805491347,0.0008209363030683464
6703.51680526327,0.0008115245804919486
6703.517805035193,0.0008018048938933319
6703.518804807116,0.0007917786482859106
6703.519804579039,0.0007814473638912449
6703.520804350961,0.0007708126781634644
6703.521804122884,0.000759876347746637
6703.522803894806,0.0007486402503621293
6703.52380366673,0.0007371063866230066
6703.524803438652,0.0007252768817725316
6703.525803210575,0.0007131539873438256
6703.526802982497,0.000700740082737767
6703.527802754421,0.0006880376767162224
6703.528802526344,0.0006750494088077386
6703.529802298266,0.0006617780506228644
6703.530802070189,0.0006482265070763372
6703.531801842111,0.0006343978175134534
6703.532801614034,0.0006202951567380687
6703.533801385957,0.0006059218359398234
6703.53480115788,0.0005912813035183677
6703.5358009298025,0.0005763771458025428
6703.536800701725,0.0005612130876626531
6703.537800473648,0.0005457929930141314
6703.538800245571,0.0005301208652110509
6703.539800017494,0.0005142008473280896
6703.540799789416,0.000498037222329683
6703.541799561339,0.0004816344131252413
6703.542799333261,0.0004649969825094339
6703.543799105184,0.0004481296329866876
6703.544798877108,0.00043103720647919393
6703.54579864903,0.00041372468391787646
6703.546798420953,0.00039619718471592305
6703.547798192875,0.00037845996612463184
6703.548797964798,0.0003605184224714542
6703.549797736721,0.00034237808428025374
6703.550797508644,0.0003240446172739433
6703.551797280567,0.0003055238212598083
6703.552797052489,0.0002868216288979792
6703.553796824412,0.0002679441043536689
6703.554796596335,0.00024889744183393954
6703.555796368258,0.00022968796400990577
6703.55679614018,0.00021032212032541804
6703.557795912103,0.000190806485193409
6703.558795684025,0.00017114775608122594
6703.559795455949,0.00015135275148641557
6703.560795227872,0.00013142840880456795
6703.561794999794,0.00011138178209096105
6703.562794771717,9.122003971787856e-05
6703.563794543639,7.095046192959832e-05
6703.564794315562,5.058043829717033e-05
6703.565794087485,3.0117465075215233e-05
6703.566793859408,9.569142463084728e-06
6703.5677936313305,-1.1056828227164977e-05
6703.568793403253,-3.175264749342177e-05
6703.569793175176,-5.251042065411161e-05
6703.570792947099,-7.332216094395655e-05
6703.571792719022,-9.417979269202333e-05
6703.572792490944,-0.00011507515457910876
6703.573792262867,-0.00013600000297143871
6703.574792034789,-0.00015694601532760085
6703.575791806712,-0.00017790479367559643
6703.576791578636,-0.00019886786815689016
6703.577791350558,-0.00021982670063435889
6703.578791122481,-0.00024077268836108088
6703.579790894403,-0.00026169716770695214
6703.580790666326,-0.0002825914179401528
6703.581790438249,-0.00030344666506051325
6703.582790210172,-0.0003242540856818396
6703.583789982095,-0.0003450048109602573
6703.584789754017,-0.00036568993056561506
6703.58578952594,-0.0003863004966929616
6703.586789297863,-0.0004068275281110609
6703.587789069786,-0.00042726201424484535
6703.588788841708,-0.0004475949192886262
6703.589788613631,-0.00046781718634679697
6703.590788385553,-0.0004879197415987021
6703.591788157477,-0.0005078934984843047
6703.5927879294,-0.0005277293619072899
6703.593787701322,-0.0005474182324522956
6703.594787473245,-0.000566951010613048
6703.595787245167,-0.0005863186010283043
6703.59678701709,-0.0006055119167226343
6703.597786789013,-0.000624521883349205
6703.598786560936,-0.0006433394434318613
6703.5997863328585,-0.000661955560603908
6703.600786104781,-0.0006803612238411163
6703.601785876704,-0.0006985474516865745
6703.602785648627,-0.0007165052964651048
6703.60378542055,-0.0007342258484850543
6703.604785192472,-0.0007517002402253402
6703.605784964395,-0.0007689196505056899
6703.606784736317,-0.0007858753086380637
6703.607784508241,-0.0008025584985572843
6703.608784280164,-0.0008189605629289273
6703.609784052086,-0.000835072907232544
6703.610783824009,-0.000850887003818288
6703.611783595931,-0.0008663943959349916
6703.612783367855,-0.0008815867017276946
6703.613783139777,-0.0008964556182025626
6703.6147829117,-0.0009109929251570801
6703.615782683623,-0.0009251904890733615
6703.616782455545,-0.0009390402669724168
6703.617782227468,-0.0009525343102272294
6703.618781999391,-0.0009656647683325446
6703.619781771314,-0.0009784238926293176
6703.620781543236,-0.0009908040399818389
6703.621781315159,-0.001002797676405622
6703.622781087081,-0.0010143973806442195
6703.623780859005,-0.0010255958476931967
6703.624780630928,-0.0010363858922695552
6703.62578040285,-0.001046760452224943
6703.626780174773,-0.001056712591901026
6703.627779946695,-0.0010662355054254485
6703.628779718618,-0.0010753225199468424
6703.629779490541,-0.0010839670988074164
6703.630779262464,-0.001092162844651705
6703.631779034386,-0.0010999035024701336
6703.632778806309,-0.001107182962576113
6703.633778578232,-0.0011139952635154447
6703.634778350155,-0.001120334594906881
6703.635778122078,-0.0011261953002127407
6703.636777894,-0.0011315718794385385
6703.637777665923,-0.001136458991760651
6703.638777437845,-0.0011408514580810935
6703.639777209769,-0.0011447442635085492
6703.640776981692,-0.0011481325597648452
6703.641776753614,-0.0011510116675161417
6703.642776525537,-0.001153377078628163
6703.643776297459,-0.0011552244583448554
6703.644776069383,-0.00115654964738991
6703.645775841305,-0.0011573486639906141
6703.646775613228,-0.0011576177058235271
6703.64777538515,-0.0011573531518814858
6703.648775157073,-0.001156551564261461
6703.649774928996,-0.0011552096898727981
6703.650774700919,-0.0011533244620654055
6703.651774472842,-0.0011508930021774787
6703.652774244764,-0.0011479126210023878
6703.653774016687,-0.0011443808201743893
6703.654773788609,-0.0011402952934728495
6703.655773560533,-0.0011356539280446998
6703.656773332456,-0.0011304548055448625
6703.657773104378,-0.0011246962031944128
6703.658772876301,-0.0011183765947562604
6703.659772648223,-0.0011114946514281308
6703.660772420146,-0.0011040492426526096
6703.661772192069,-0.0010960394368439872
6703.662771963992,-0.0010874645020316073
6703.663771735914,-0.001078323906419379
6703.664771507837,-0.001068617318861075
6703.66577127976,-0.001058344609250991
6703.666771051683,-0.0010475058488295208
6703.667770823606,-0.0010361013104031903
6703.668770595528,-0.0010241314684787232
6703.669770367451,-0.0010115969993107683
6703.670770139373,-0.0009984987808629871
6703.671769911297,-0.000984837892682267
6703.67276968322,-0.0009706156156858804
6703.673769455142,-0.0009558334318614595
6703.674769227065,-0.0009404930238796978
6703.675768998987,-0.0009245962746197451
6703.676768770911,-0.0009081452666073075
6703.677768542833,-0.0008911422813655298
6703.678768314756,-0.000873589798678811
6703.679768086678,-0.000855490495769796
6703.680767858601,-0.0008368472463898881
6703.681767630524,-0.0008176631198237481
6703.682767402447,-0.0007979413798083515
6703.68376717437,-0.0007776854833672875
6703.684766946292,-0.0007568990795610714
6703.685766718215,-0.000735586008154331
6703.686766490137,-0.0007137502982008047
6703.687766262061,-0.0006913961665471854
6703.688766033984,-0.0006685280162569476
6703.689765805906,-0.0006451504349554024
6703.690765577829,-0.0006212681930973295
6703.691765349751,-0.0005968862421586135
6703.692765121675,-0.0005720097127533727
6703.693764893597,-0.0005466439126781188
6703.69476466552,-0.0005207943248845276
6703.695764437442,-0.0004944666053824454
6703.696764209365,-0.0004676665810748126
6703.6977639812885,-0.0004404002475262205
6703.698763753211,-0.00041267376666684704
6703.699763525134,-0.0003844934644335252
6703.700763297056,-0.00035586582834969084
6703.701763068979,-0.00032679750504593957
6703.702762840901,-0.00029729529772290047
6703.703762612825,-0.0002673661635581163
6703.704762384748,-0.00023701721105859948
6703.70576215667,-0.00020625569736073052
6703.706761928593,-0.0001750890254791736
6703.707761700515,-0.00014352474150650351
6703.708761472439,-0.00011157053176526587
6703.709761244361,-7.923421991421101e-05
6703.710761016284,-4.652376401044236e-05
6703.711760788206,-1.3447253529196387e-05
6703.712760560129,1.998709365708034e-05
6703.713760332052,5.377093433876485e-05
6703.714760103975,8.789580306669703e-05
6703.715759875898,0.000122353115286008
6703.71675964782,0.00015713417050480322
6703.717759419743,0.00019223015549643427
6703.718759191665,0.00022763214753414307
6703.719758963589,0.0002633311176568973
6703.720758735512,0.0002993179339652598
6703.721758507434,0.00033558336494615384
6703.722758279357,0.0003721180828254052
6703.723758051279,0.0004089126669469623
6703.724757823203,0.000445957607177721
6703.725757595125,0.0004832433073369026
6703.726757367048,0.0005207600886489461
6703.72775713897,0.0005584981932188677
6703.728756910893,0.0005964477875290053
6703.7297566828165,0.0006345989659560064
6703.730756454739,0.0006729417543068542
6703.731756226662,0.0007114661133726649
6703.732755998584,0.0007501619424989318
6703.733755770507,0.0007890190831708452
6703.734755542429,0.0008280273226122658
6703.735755314353,0.0008671763973968874
6703.736755086276,0.0009064559970700813
6703.737754858198,0.0009458557677798941
6703.738754630121,0.0009853653159156409
6703.739754402043,0.0010249742117525169
6703.740754173967,0.0010646719931006322
6703.741753945889,0.0011044481689568343
6703.742753717812,0.0011442922231576706
6703.743753489734,0.0011841936180318193
6703.744753261657,0.0012241417980503166
6703.7457530335805,0.0012641261934729102
6703.746752805503,0.0013041362239888915
6703.747752577426,0.0013441613023507683
6703.748752349348,0.0013841908379991791
6703.749752121271,0.001424214240677483
6703.750751893194,0.001464220924034507
6703.751751665117,0.0015042003092139763
6703.75275143704,0.0015441418284292078
6703.753751208962,0.001584034928521681
6703.754750980885,0.0016238690745021501
6703.755750752807,0.0016636337530729877
6703.756750524731,0.00170331847613048
6703.757750296653,0.001742912784245802
6703.758750068576,0.0017824062501234136
6703.759749840498,0.0018217884820356087
6703.760749612421,0.0018610491272319214
6703.7617493843445,0.0019001778753220773
6703.762749156267,0.0019391644616311378
6703.76374892819,0.0019779986705254662
6703.764748700112,0.002016670338708123
6703.765748472035,0.002055169358482292
6703.766748243957,0.0020934856809813255
6703.767748015881,0.0021316093193640097
6703.768747787804,0.0021695303519736362
6703.769747559726,0.00220723892545949
6703.770747331649,0.0022447252578593623
6703.771747103571,0.0022819796416417484
6703.772746875495,0.0023189924467064225
6703.773746647417,0.002355754123342157
6703.77474641934,0.0023922552051404023
6703.775746191262,0.0024284863118638187
6703.776745963185,0.0024644381522686168
6703.7777457351085,0.0025001015268797163
6703.778745507031,0.0025354673307177947
6703.779745278954,0.0025705265559773506
6703.780745050876,0.002605270294654957
6703.781744822799,0.0026396897411269256
6703.782744594722,0.002673776194675638
6703.783744366645,0.0027075210619638326
6703.784744138568,0.0027409158594561525
6703.78574391049,0.002773952215787261
6703.786743682413,0.0028066218740758334
6703.787743454335,0.002838916694183735
6703.788743226259,0.002870828654919682
6703.789742998181,0.0029023498561866787
6703.790742770104,0.0029334725210725344
6703.791742542026,0.002964188997882757
6703.792742313949,0.002994491762115083
6703.7937420858725,0.0030243734183749223
6703.794741857795,0.003053826702230953
6703.795741629718,0.0030828444820101154
6703.79674140164,0.0031114197605312346
6703.797741173563,0.0031395456767765195
6703.798740945485,0.003167215507500216
6703.799740717409,0.003194422668773738
6703.800740489332,0.003221160717466667
6703.801740261254,0.0032474233526631232
6703.802740033177,0.003273204417013055
6703.803739805099,0.0032984978980181295
6703.804739577023,0.003323297929251969
6703.805739348945,0.0033475987915145794
6703.806739120868,0.0033713949139208598
6703.80773889279,0.0033946808749231584
6703.808738664713,0.003417451403267816
6703.8097384366365,0.003439701378885644
6703.810738208559,0.0034614258337162477
6703.811737980482,0.003482619952466066
6703.812737752404,0.0035032790732999683
6703.813737524327,0.00352339868846621
6703.81473729625,0.0035429744448545295
6703.815737068173,0.0035620021444871665
6703.816736840096,0.0035804777449425793
6703.817736612018,0.0035983973597116746
6703.818736383941,0.0036157572584863823
6703.819736155863,0.0036325538673804667
6703.820735927787,0.0036487837690825325
6703.821735699709,0.0036644437029412346
6703.822735471632,0.003679530564982758
6703.823735243554,0.003694041407860708
6703.824735015477,0.003707973440738598
6703.8257347874005,0.0037213240291052046
6703.826734559323,0.003734090694523121
6703.827734331246,0.00374627111431094
6703.828734103168,0.003757863121159585
6703.829733875091,0.0037688647026834264
6703.830733647014,0.003779274000906901
6703.831733418937,0.003789089311687499
6703.83273319086,0.0037983090840760583
6703.833732962782,0.0038069319196153855
6703.834732734705,0.003814956571578332
6703.835732506628,0.0038223819441465107
6703.836732278551,0.0038292070915309376
6703.837732050473,0.003835431217036009
6703.838731822396,0.003841053672068358
6703.839731594318,0.003846073955092295
6703.840731366241,0.0038504917105337145
6703.8417311381645,0.003854306727634503
6703.842730910087,0.0038575189392596166
6703.84373068201,0.003860128420659125
6703.844730453932,0.0038621353881875564
6703.845730225855,0.003863540197982883
6703.846729997778,0.003864343344607466
6703.847729769701,0.0038645454596531906
6703.848729541624,0.0038641473103129455
6703.849729313546,0.003863149797920493
6703.850729085469,0.003861553956460682
6703.851728857391,0.0038593609510518597
6703.852728629315,0.003856572076402209
6703.853728401237,0.003853188755241647
6703.85472817316,0.0038492125367307743
6703.855727945082,0.0038446450948482983
6703.856727717005,0.0038394882267582336
6703.8577274889285,0.0038337438511581133
6703.858727260851,0.0038274140066093493
6703.859727032774,0.0038205008498508122
6703.860726804696,0.0038130066540966265
6703.861726576619,0.0038049338073191242
6703.862726348542,0.0037962848105178373
6703.863726120465,0.0037870622759753835
6703.864725892388,0.003777268925501106
6703.86572566431,0.003766907588663331
6703.866725436233,0.0037559812010111563
6703.867725208156,0.0037444928022867165
6703.868724980079,0.003732445534628865
6703.869724752001,0.0037198426407692112
6703.870724523924,0.0037066874622214314
6703.871724295846,0.003692983437464714
6703.872724067769,0.0036787341001221717
6703.8737238396925,0.00366394307713501
6703.874723611615,0.0036486140869332207
6703.875723383538,0.003632750937603556
6703.87672315546,0.0036163575250555005
6703.877722927383,0.003599437831185909
6703.878722699306,0.0035819959220429057
6703.879722471229,0.003564035945989568
6703.880722243152,0.00354556213186787
6703.881722015074,0.0035265787871632897
6703.882721786997,0.0035070902961705204
6703.883721558919,0.0034871011181606976
6703.884721330843,0.003466615785550584
6703.885721102765,0.0034456389020741498
6703.886720874688,0.003424175140957001
6703.88772064661,0.0034022292430940944
6703.888720418534,0.0033798060152311713
6703.8897201904565,0.0033569103281503726
6703.890719962379,0.003333547114860508
6703.891719734302,0.0033097213687924855
6703.892719506224,0.003285438142000482
6703.893719278147,0.0032607025433695046
6703.89471905007,0.0032355197368301087
6703.895718821993,0.0032098949395811607
6703.896718593916,0.0031838334203216686
6703.897718365838,0.003157340497492846
6703.898718137761,0.0031304215375317066
6703.899717909684,0.0031030819531375747
6703.900717681607,0.0030753272015530122
6703.901717453529,0.0030471627828606842
6703.902717225452,0.0030185942382977213
6703.903716997374,0.00298962714858911
6703.904716769297,0.00296026713230157
6703.9057165412205,0.0029305198442192816
6703.906716313143,0.002900390973742755
6703.907716085066,0.00286988624331201
6703.908715856988,0.0028390114068551774
6703.909715628911,0.002807772248263524
6703.910715400834,0.0027761745798938063
6703.911715172757,0.0027442242410987516
6703.91271494468,0.0027119270967863518
6703.913714716602,0.00267928903600856
6703.914714488525,0.0026463159705799122
6703.915714260448,0.002613013833726514
6703.916714032371,0.002579388578765795
6703.917713804293,0.0025454461778174
6703.918713576216,0.002511192620545539
6703.919713348138,0.0024766339129330766
6703.920713120062,0.002441776076087566
6703.9217128919845,0.0024066251450793564
6703.922712663907,0.00237118716781182
6703.92371243583,0.0023354682039236603
6703.924712207752,0.0022994743237231973
6703.925711979675,0.0022632116071544567
6703.926711751598,0.0022266861427948574
6703.927711523521,0.0021899040268842525
6703.928711295444,0.002152871362385054
6703.929711067366,0.0021155942580731476
6703.930710839289,0.002078078827659291
6703.931710611212,0.0020403311889406607
6703.932710383135,0.002002357462982192
6703.933710155057,0.0019641637733273116
6703.93470992698,0.0019257562452376586
6703.935709698902,0.00188714100496134
6703.936709470825,0.0018483241790292805
6703.9377092427485,0.0018093118935792088
6703.938709014671,0.0017701102737068548
6703.939708786594,0.0017307254428439404
6703.940708558516,0.0016911635221625876
6703.941708330439,0.0016514306300057908
6703.942708102362,0.0016115328813436347
6703.943707874285,0.0015714763872549966
6703.944707646208,0.0015312672544345316
6703.94570741813,0.0014909115847248273
6703.946707190053,0.0014504154746737274
6703.947706961976,0.0014097850151169372
