Time,Filtered_EMG_Bicep,Filtered_EMG_Tricep
7034.350105245125,0.0062632241558702815,0.006201342108542639
7034.351105017339,0.0063895836800143095,0.006417611345946642
7034.352104789555,0.0064992977263835456,0.006626255167687519
7034.35310456177,0.00659111054231887,0.0068254039405726726
7034.354104333986,0.006664038434764969,0.00701330728412296
7034.355104106201,0.006717399698503596,0.0071883703091122795
7034.356103878416,0.0067508388608749055,0.007349187806648606
7034.357103650631,0.006764344376406039,0.007494575444377291
7034.358103422846,0.006758258977297035,0.007623597161001268
7034.359103195062,0.006733282051068607,0.007735588198509519
7034.360102967277,0.006690463818376816,0.007830173544720103
7034.361102739493,0.006631191647230761,0.007907281891156533
7034.362102511707,0.006557169306846803,0.00796715544858383
7034.363102283923,0.0064703901509282746,0.008010356048373385
7034.364102056138,0.006373105162255582,0.008037767902787403
7034.3651018283535,0.006267786647616713,0.008050597257772138
7034.366101600569,0.006157088283374375,0.008050369003242465
7034.367101372784,0.006043802239593276,0.008038920156207302
7034.368101144999,0.005930814221774521,0.008018390055789477
7034.369100917214,0.005821057359317636,0.00799120714109236
7034.37010068943,0.005717465859299692,0.007960072290999334
7034.371100461645,0.005622929247064149,0.007927938788081942
7034.372100233861,0.005540247894737057,0.007897988930652695
7034.373100006075,0.005472090430664093,0.007873607147272976
7034.374099778291,0.0054209535257138735,0.007858349234491038
7034.375099550506,0.005389124467712504,0.00785590713315587
7034.3760993227215,0.005378646876892021,0.007870068575923431
7034.377099094937,0.005391289879008759,0.007904671038818006
7034.378098867152,0.005428521001563523,0.007963549679434485
7034.379098639367,0.005491482951881679,0.008050479261550385
7034.380098411582,0.005580974270505699,0.00816911042840149
7034.381098183798,0.0056974336759279265,0.008322901092377244
7034.382097956013,0.005840927806265135,0.00851504406094202
7034.383097728229,0.006011142098451815,0.008748392199723344
7034.384097500443,0.006207374752855407,0.009025382471691835
7034.385097272659,0.006428534040237789,0.009347960231520815
7034.386097044874,0.0066731394734389545,0.009717505287254305
7034.3870968170895,0.006939327469030909,0.010134761447768178
7034.388096589304,0.007224862054205781,0.010599771513369218
7034.38909636152,0.007527151015191947,0.01111181991651557
7034.390096133735,0.007843267733871093,0.01166938541622867
7034.39109590595,0.008169978868606381,0.012270106287809996
7034.392095678166,0.00850377799301851,0.012910760285044155
7034.393095450381,0.008840925256461038,0.013587261333680014
7034.394095222597,0.009177492998757102,0.014294674499962745
7034.395094994811,0.009509417010493421,0.015027250294712993
7034.396094767027,0.00983255284729763,0.015778478863307775
7034.397094539242,0.010142736395879702,0.01654116412820874
7034.3980943114575,0.010435847781678297,0.017307517503391174
7034.399094083672,0.010707877609512846,0.018069270342646337
7034.400093855888,0.010954994334417508,0.01881780375253181
7034.401093628103,0.011173611279857082,0.019544293756557606
7034.402093400318,0.011360451588048753,0.0202398690628122
7034.403093172534,0.01151260935328211,0.020895777961862767
7034.404092944749,0.011627605389310796,0.02150356027836345
7034.405092716964,0.011703436380370342,0.02205521983875953
7034.406092489179,0.011738616353759487,0.022543392530164942
7034.407092261395,0.011732209394624559,0.022961504729836567
7034.40809203361,0.011683852405418136,0.023303916903598555
7034.4090918058255,0.011593766703715744,0.023566047716653837
7034.41009157804,0.011462757502020905,0.023744474919893524
7034.411091350255,0.011292200803272895,0.023837010119151902
7034.412091122471,0.011084017801635789,0.02384274506524737
7034.413090894686,0.010840637337339932,0.023762067580079465
7034.414090666902,0.010564947352911441,0.02359664610631522
7034.415090439117,0.01026023679189894,0.023349383268577415
7034.416090211332,0.009930129961430565,0.023024340434209017
7034.417089983547,0.009578515813388781,0.022626636561560123
7034.418089755763,0.00920947468833934,0.022162325384061043
7034.419089527978,0.008827204842370777,0.02163825537738017
7034.4200893001935,0.008435950708960709,0.021061917293197698
7034.421089072408,0.008039934471341836,0.020441284357851138
7034.422088844623,0.007643292184188501,0.01978465032692776
7034.423088616839,0.007250015387904489,0.01910047030544012
7034.424088389054,0.006863898891073732,0.018397208620268328
7034.42508816127,0.006488495144802619,0.017683197205086
7034.426087933485,0.0061270754102983665,0.016966507081525452
7034.4270877057,0.005782597765117566,0.016254834721838446
7034.428087477915,0.005457681912811,0.01555540440808281
7034.429087250131,0.005154590701972173,0.014874887122082906
7034.430087022346,0.004875218155632255,0.014219335966648547
7034.431086794561,0.0046210836606296974,0.013594137638891047
7034.432086566776,0.004393331855192264,0.01300397905432453
7034.433086338991,0.004192737763706097,0.012452827845901994
7034.434086111207,0.004019716834616596,0.011943925170253675
7034.435085883422,0.0038743396262475244,0.011479789098198868
7034.436085655638,0.003756350877240305,0.011062226858183014
7034.437085427853,0.0036651926105547342,0.010692354334408039
7034.438085200068,0.0036000308038176393,0.010370621496585086
7034.439084972283,0.0035597850364096975,0.010096842788574015
7034.440084744499,0.003543160399582644,0.009870231773301232
7034.441084516714,0.0035486808426429426,0.00968943940781239
7034.442084288929,0.0035747230455172503,0.00955259526802462
7034.443084061144,0.003619549886724797,0.009457351056665111
7034.444083833359,0.003681342658585145,0.009400925958237867
7034.445083605575,0.0037582313771320113,0.009380153806014773
7034.44608337779,0.003848322773380167,0.009391532397114355
7034.447083150006,0.003949725738849665,0.009431275447497776
7034.448082922221,0.0040605741058798465,0.009495367583874008
7034.449082694436,0.004179046719000566,0.009579622523149943
7034.450082466651,0.004303384831344042,0.009679744306338483
7034.451082238867,0.004431906933173044,0.009791391173334944
7034.452082011082,0.0045630211898283835,0.009910241359824866
7034.4530817832965,0.0046952357514112595,0.010032059733377433
7034.454081555512,0.004827167281831387,0.010152763792576732
7034.455081327727,0.004957548093695607,0.01026848725709174
7034.456081099943,0.005085232244508176,0.010375639429113327
7034.457080872158,0.005209200866176838,0.010470958728685425
7034.458080644374,0.00532856688487224,0.01055155912597095
7034.459080416589,0.0054425791459713395,0.010614968415149252
7034.460080188804,0.005550625795472273,0.010659157379379789
7034.461079961019,0.005652236606917533,0.010682559008322351
7034.4620797332345,0.0057470838033817735,0.010684077137826674
7034.46307950545,0.005834980818137031,0.01066308419979089
7034.4640792776645,0.005915878392589801,0.0106194081944234
7034.46507904988,0.005989857493955449,0.010553309476954003
7034.466078822095,0.0060571187913518705,0.01046544837440814
7034.467078594311,0.006117968774421699,0.010356844964942293
7034.468078366526,0.006172802861183633,0.010228832643352866
7034.469078138742,0.0062220859336184495,0.010083007421698249
7034.470077910956,0.006266330740896986,0.009921175172655826
7034.471077683172,0.006306074669483409,0.009745299059118369
7034.472077455387,0.00634185556512084,0.009557449168706433
7034.4730772276025,0.006374187537988348,0.009359755972876227
7034.474076999818,0.006403537853424028,0.009154368764713143
7034.4750767720325,0.006430306018048993,0.00894341977071836
7034.476076544248,0.006454806026600904,0.008728994236185176
7034.477076316463,0.006477252504618993,0.008513106496062944
7034.478076088679,0.00649775122636765,0.008297681855924001
7034.479075860894,0.006516294238643181,0.008084543961154555
7034.48007563311,0.006532759589861436,0.007875407198758289
7034.481075405324,0.0065469154589631465,0.0076718735895058435
7034.48207517754,0.006558428322855537,0.007475433597720161
7034.483074949755,0.006566874715500902,0.007287470253647513
7034.4840747219705,0.006571756106495058,0.007109265909640817
7034.485074494186,0.006572516417241863,0.006942010877221852
7034.4860742664005,0.0065685616545275265,0.006786813184145491
7034.487074038616,0.006559281070591909,0.00664470875543045
7034.488073810831,0.006544069186407869,0.0065166713935758125
7034.489073583047,0.006522347962240994,0.006403621959888507
7034.490073355262,0.0064935883559692825,0.006306436184116026
7034.491073127478,0.00645733046891691,0.006225950623995558
7034.492072899692,0.006413201490827698,0.006162966448599899
7034.493072671908,0.006360930794313693,0.006118250862575952
7034.494072444123,0.006300361788924714,0.0060925360864916836
7034.4950722163385,0.0062314604151981375,0.006086515863741566
7034.496071988554,0.006154320334797308,0.00610083949099836
7034.497071760768,0.006069164950253578,0.006136103395502663
7034.498071532984,0.005976346420075264,0.00619284034747089
7034.499071305199,0.005876341838293532,0.006271506514694401
7034.500071077415,0.005769746708322281,0.006372466700561194
7034.50107084963,0.0056572657974222245,0.0064959781883368005
7034.502070621846,0.005539701498110719,0.006642173605042351
7034.50307039406,0.0054179399778783765,0.006811043126249978
7034.504070166276,0.005292935586434623,0.007002416201254986
7034.505069938491,0.005165694095470133,0.007215942841525153
7034.5060697107065,0.005037255334877061,0.007451074463811264
7034.507069482922,0.0049086757167855835,0.007707044371431583
7034.508069255136,0.004781011069038847,0.007982848189201468
7034.509069027352,0.0046553001485133035,0.00827722489540178
7034.510068799567,0.004532549153540096,0.008588639456235043
7034.511068571783,0.004413717487264543,0.008915268375319276
7034.512068343998,0.004299704941359557,0.009254989635197074
7034.513068116214,0.004191340391483484,0.009605378492516676
7034.514067888428,0.004089372045120177,0.009963710409556245
7034.515067660644,0.003994459259300022,0.010326972109799942
7034.516067432859,0.00390716592778694,0.010691881393056797
7034.517067205074,0.0038279554166823515,0.011054915981314707
7034.518066977289,0.003757187028765478,0.011412351316187726
7034.519066749504,0.0036951140150554536,0.011760306914080275
7034.52006652172,0.003641883190030359,0.01209480062130363
7034.521066293935,0.003597536192234917,0.012411809882757393
7034.522066066151,0.0035620123649725377,0.012707338897989511
7034.523065838366,0.0035351531646217187,0.012977490261154273
7034.524065610582,0.0035167079741986115,0.013218539397570022
7034.525065382796,0.003506341188561924,0.013427009869015658
7034.526065155012,0.0035036404034317365,0.013599747441959692
7034.527064927227,0.0035081254732559934,0.013733990694951143
7034.528064699442,0.003519258130812634,0.013827435871962312
7034.529064471657,0.0035364518143371237,0.013878293649089483
7034.530064243872,0.0035590813390472195,0.013885335513225348
7034.531064016088,0.0035864920904751366,0.01384792771083108
7034.532063788303,0.0036180085225544344,0.013766051351577659
7034.533063560519,0.0036529419047855397,0.013640308132237587
7034.534063332734,0.0036905974322945074,0.013471911935057052
7034.535063104949,0.0037302809415830003,0.013262666994882558
7034.536062877164,0.003771305544008798,0.013014933489881177
7034.53706264938,0.003812998492093128,0.012731581554963109
7034.538062421595,0.0038547085245097183,0.01241593499387441
7034.53906219381,0.003895813803825443,0.01207170630556288
7034.540061966025,0.003935730397136103,0.011702924906455251
7034.54106173824,0.003973921088431405,0.01131386057076019
7034.542061510456,0.004009904180528654,0.010908944158839542
7034.543061282671,0.004043261861711584,0.010492687704500871
7034.544061054887,0.004073647675548852,0.010069605900279593
7034.545060827102,0.004100792616929162,0.009644140943562588
7034.546060599317,0.004124509371195164,0.0092205925636906
7034.547060371532,0.004144694247260815,0.008803054816551237
7034.548060143748,0.0041613264721801786,0.008395360899713626
7034.549059915963,0.004174464725444123,0.00800103683423076
7034.550059688178,0.004184241072410496,0.0076232644368271745
7034.551059460393,0.0041908527453460515,0.007264853638347049
7034.552059232608,0.004194552429083702,0.006928223938978213
7034.553059004824,0.004195637783693079,0.00661539461611985
7034.554058777039,0.004194440899216274,0.006327983162538478
7034.555058549255,0.004191318278699109,0.006067211295814293
7034.55605832147,0.004186641816181192,0.0058339177492513035
7034.557058093685,0.004180791084554026,0.005628576951176912
7034.5580578659,0.004174147086870515,0.005451322652005672
7034.559057638116,0.0041670874810515995,0.005301975575680074
7034.560057410331,0.004159983182042785,0.005180074213714925
7034.561057182546,0.0041531961686024485,0.005084907898099536
7034.562056954761,0.004147078254574996,0.005015551294823681
7034.563056726976,0.004141970526977687,0.004970899492933939
7034.564056499192,0.004138203115498165,0.004949702922722388
7034.565056271407,0.004136094927650226,0.00495060138878009
7034.566056043623,0.004135952936553223,0.004972156542634812
7034.567055815838,0.004138070563775534,0.005012882174068472
7034.568055588053,0.004142724742766679,0.005071271805770508
7034.569055360268,0.004150171452537498,0.005145823246788161
7034.570055132484,0.004160639833841492,0.0052350599756864884
7034.571054904699,0.004174325300308195,0.005337549437422978
7034.572054676914,0.004191382231272012,0.005451918496444609
7034.573054449129,0.004211916882064932,0.0055768663588989225
7034.574054221344,0.004235981110821122,0.005711175255598773
7034.57505399356,0.004263567417596474,0.005853719091321312
7034.576053765775,0.004294605635695471,0.006003470173189958
7034.577053537991,0.0043289614360487,0.006159504089375909
7034.578053310206,0.004366436638569983,0.0063210028143644015
7034.579053082421,0.004406771193777732,0.006487256101295273
7034.580052854636,0.004449646613410884,0.0066576611379270245
7034.581052626852,0.004494690592732493,0.006831720305265599
7034.582052399067,0.00454148257075779,0.007009036727067315
7034.583052171281,0.004589559991769682,0.0071893071758250835
7034.584051943497,0.004638425047714709,0.007372311862919522
7034.585051715712,0.0046875517205737655,0.007557900755600585
7034.586051487928,0.004736393027339373,0.007745976364010223
7034.587051260143,0.004784388461091377,0.007936473364270547
7034.588051032359,0.0048309716590306095,0.008129335832927657
7034.589050804574,0.004875578301021636,0.008324493170798062
7034.590050576789,0.004917654197672342,0.008521835982052695
7034.591050349004,0.004956663516745134,0.008721193245342195
7034.59205012122,0.004992097128359691,0.008922312040743502
7034.593049893435,0.005023481092961682,0.009124840887782787
7034.594049665649,0.005050385342838831,0.00932831747763395
7034.595049437865,0.005072432600988416,0.009532161331453595
7034.59604921008,0.0050893075218335125,0.009735671727141989
7034.597048982296,0.005100765921640779,0.009938031092386378
7034.598048754511,0.005106643816064241,0.010138313916470089
7034.599048526727,0.005106865827615528,0.010335501050685904
7034.600048298941,0.005101452393833181,0.010528499046154336
7034.601048071157,0.005090525146244033,0.010716163954658898
7034.602047843372,0.0050743098940108314,0.010897328840467546
7034.603047615588,0.00505313682207041,0.011070834118655514
7034.604047387803,0.005027437713784885,0.01123555967457186
7034.605047160017,0.00499774015963138,0.011390457470600513
7034.606046932233,0.004964658828735859,0.011534583073881633
7034.607046704448,0.00492888401731407,0.011667124405823449
7034.608046476664,0.004891167866929252,0.011787426153011584
7034.609046248879,0.004852308820516292,0.011895008667043702
7034.610046021095,0.004813134985562352,0.011989580616198928
7034.611045793309,0.0047744870618098185,0.012071044900701117
7034.612045565525,0.004737201384364852,0.012139497382419566
7034.61304533774,0.004702093497766959,0.012195218054891972
7034.614045109955,0.004669942569590892,0.012238654648996311
7034.615044882171,0.004641476872355986,0.012270399318031342
7034.616044654385,0.004617360474423147,0.012291159706128882
7034.617044426601,0.004598181181657392,0.012301726111678951
7034.618044198816,0.004584439707302472,0.012302936520527242
7034.619043971032,0.0045765400710561675,0.012295641067489033
7034.620043743247,0.004574781357460861,0.012280667138097242
7034.621043515463,0.004579351148568894,0.012258786014028559
7034.622043287677,0.004590321087307432,0.012230681819561435
7034.623043059893,0.004607645057506736,0.012196923569805734
7034.624042832108,0.004631160389154991,0.012157941280345424
7034.625042604323,0.004660592351460878,0.012114007247240781
7034.626042376539,0.004695562014613529,0.012065223633490808
7034.627042148753,0.004735597377509496,0.012011517348338696
7034.628041920969,0.004780147511245227,0.01195264289706252
7034.629041693184,0.004828599374323763,0.011888193474065676
7034.6300414654,0.004880296895966554,0.011817620127420398
7034.631041237615,0.0049345618705784544,0.011740258363659394
7034.632041009831,0.004990716158295313,0.011655361112331442
7034.633040782045,0.005048104650863303,0.011562136598169773
7034.6340405542605,0.0051061184167118055,0.011459789456247203
7034.635040326476,0.005164217354780222,0.011347563374777507
7034.636040098691,0.005221951572733858,0.011224783566850811
7034.637039870907,0.00527898060424621,0.011090897378806197
7034.638039643121,0.0053350895451451195,0.010945511369137993
7034.639039415337,0.005390201278480594,0.010788423320880395
7034.640039187552,0.005444384197323034,0.010619647927933235
7034.641038959768,0.005497855139904571,0.010439435312812917
7034.642038731983,0.005550977470914617,0.010248282014447543
7034.643038504199,0.005604254302757437,0.010046934477066439
7034.644038276413,0.005658316856839919,0.009836385253140081
7034.6450380486285,0.005713908105347476,0.009617862165651614
7034.646037820844,0.005771862177545881,0.009392810769357164
7034.647037593059,0.005833080424804363,0.009162870759626176
7034.648037365275,0.005898505302455367,0.008929847438819503
7034.649037137489,0.005969093246001808,0.008695679738968952
7034.650036909705,0.0060457875565014165,0.00846240642847735
7034.65103668192,0.006129492094293103,0.008232131992313438
7034.652036454136,0.006221046403463413,0.008006993393186194
7034.653036226351,0.006321202766231841,0.007789128616895001
7034.654035998567,0.006430605584944238,0.007580647637361414
7034.655035770781,0.0065497733917384,0.007383606210807734
7034.6560355429965,0.006679083712856249,0.0071999827039032505
7034.657035315212,0.006818760994413539,0.007031657971217946
7034.658035087427,0.006968867816030371,0.006880398144226149
7034.659034859642,0.007129299613710065,0.006747840093174041
7034.660034631857,0.0072997830441328525,0.006635479265616842
7034.661034404073,0.0074798779529322325,0.006544659582794286
7034.662034176288,0.00766898271161347,0.0064765650912633485
7034.663033948504,0.007866342504586458,0.006432213126521747
7034.664033720719,0.008071060002998176,0.006412448849345333
7034.665033492934,0.008282107794750802,0.006417941143885643
7034.666033265149,0.00849834198961948,0.006449179949433306
7034.6670330373645,0.008718516560973525,0.006506475063057374
7034.66803280958,0.0089412981530599,0.006589956311902024
7034.669032581795,0.009165281253797909,0.006699574853568435
7034.67003235401,0.00938900382657291,0.006835105321369096
7034.671032126225,0.009610963669755281,0.006996148608948409
7034.672031898441,0.009829635824664121,0.0071821352190464816
7034.673031670656,0.010043491231130816,0.0073923291848507705
7034.674031442872,0.010251016607463713,0.007625832552345739
7034.675031215087,0.010450735337706617,0.007881590310892788
7034.676030987302,0.010641229052099436,0.008158395545774064
7034.677030759517,0.010821159538666605,0.008454894511325292
7034.6780305317325,0.010989290525492575,0.008769591295318617
7034.679030303948,0.011144508700998113,0.009100851756875661
7034.680030076163,0.011285843171202684,0.009446906481891499
7034.681029848378,0.011412482462626397,0.009805852645492313
7034.682029620593,0.011523788191965818,0.010175654918486626
7034.683029392809,0.01161930468238182,0.010554145861942893
7034.684029165024,0.011698764150059967,0.01093902651785664
7034.68502893724,0.011762087519874034,0.011327868007775955
7034.686028709455,0.011809381264508022,0.011718114857430234
7034.68702848167,0.011840930812791597,0.012107090582676151
7034.688028253885,0.011857191113009728,0.012492005961526264
7034.6890280261005,0.011858774934059407,0.012869970404879787
7034.690027798316,0.011846439427713079,0.013238006802948185
7034.691027570531,0.011821071376025529,0.013593070083413605
7034.692027342746,0.011783671515044818,0.013932069550225617
7034.693027114961,0.011735338419775298,0.014251895018032925
7034.694026887177,0.011677252560708779,0.014549446839544884
7034.695026659392,0.011610661144437453,0.014821670019810936
7034.696026431608,0.011536864171113175,0.015065592589689454
7034.697026203823,0.011457201843121448,0.01527836823969152
7034.698025976038,0.011373043149696187,0.01545732295221876
7034.699025748253,0.011285775203150343,0.015600005078958012
7034.700025520468,0.011196792725172164,0.015704237995976107
7034.701025292684,0.011107486982754374,0.01576817408813159
7034.702025064899,0.01101923351154601,0.015790348361113652
7034.703024837114,0.01093337818333314,0.01576972954015032
7034.704024609329,0.010851221496221385,0.01570576620675245
7034.705024381545,0.010774001235843477,0.015598425403090312
7034.70602415376,0.010702873781136655,0.015448221189287936
7034.707023925976,0.010638894334817297,0.015256230896210646
7034.708023698191,0.010582996354621696,0.015024097365724898
7034.709023470406,0.010535970567950538,0.014754016334402157
7034.710023242621,0.010498444198217495,0.014448709120578182
7034.711023014836,0.01047086129393889,0.014111381654562737
7034.712022787052,0.010453465169231024,0.013745671525571896
7034.713022559267,0.010446283892612965,0.013355585169164222
7034.714022331482,0.010449119569422948,0.01294542765717923
7034.715022103697,0.010461541926095969,0.012519727741753193
7034.716021875913,0.010482886472206972,0.012083160781963156
7034.717021648128,0.010512257355579176,0.011640471973524693
7034.718021420344,0.010548535004296944,0.011196402021470953
7034.719021192559,0.010590388752016927,0.0107556171384836
7034.7200209647735,0.010636294739278202,0.010322645021654989
7034.721020736989,0.010684559321826307,0.009901818194205452
7034.722020509204,0.01073334795648913,0.009497225740877432
7034.72302028142,0.010780719167605798,0.009112674017663606
7034.724020053634,0.010824662854216216,0.008751656430727532
7034.72501982585,0.010863141967957091,0.008417331924924103
7034.726019598065,0.010894136493430628,0.008112511455314645
7034.727019370281,0.01091568864514498,0.007839651465117002
7034.728019142496,0.010925948153391962,0.007600853258183634
7034.729018914712,0.010923216362725516,0.0073978671049019125
7034.730018686926,0.01090598764881084,0.0072320999155972435
7034.7310184591415,0.010872986545490243,0.0071046253101233
7034.732018231357,0.01082319914131944,0.00701619488521866
7034.733018003572,0.010755897764595733,0.006967249472180829
7034.734017775788,0.010670658541982344,0.00695792926994457
7034.735017548002,0.010567371837819065,0.0069880819766301415
7034.736017320218,0.01044624571386894,0.007057268375036312
7034.737017092433,0.010307802449386342,0.007164765158330211
7034.738016864649,0.010152868052378116,0.007309565081099247
7034.739016636864,0.009982554799876281,0.007490374855987224
7034.74001640908,0.00979823722277451,0.007705611626793917
7034.741016181294,0.009601522458798622,0.007953399225734644
7034.7420159535095,0.009394216330739148,0.008231565610635837
7034.743015725725,0.009178286733833248,0.008537642862118899
7034.74401549794,0.008955825903870805,0.008868871003435188
7034.745015270156,0.008729012918038785,0.009222206746856757
7034.74601504237,0.008500077426586166,0.009594338056372225
7034.747014814586,0.008271265223232635,0.009981705151354617
7034.748014586801,0.008044805934257488,0.010380528311172959
7034.749014359017,0.00782288292093615,0.010786842607532258
7034.750014131232,0.007607605489317776,0.011196539473255157
7034.751013903448,0.00740098364396184,0.011605414790843706
7034.752013675662,0.0072049057712868176,0.012009222932671312
7034.7530134478775,0.007021119649433057,0.01240373587584243
7034.754013220093,0.006851217016387902,0.012784806151883458
7034.755012992308,0.00669662165645688,0.013148432057443064
7034.756012764524,0.0065585806785445205,0.013490823328543466
7034.757012536738,0.006438158419929902,0.013808465338225212
7034.758012308954,0.006336232260099156,0.014098179733362371
7034.759012081169,0.006253489601107112,0.014357179308910254
7034.760011853385,0.00619042536850855,0.01458311498492911
7034.7610116256,0.006147339602356002,0.01477411310614808
7034.762011397816,0.0061243350228686036,0.014928801812594678
7034.76301117003,0.006121314801968434,0.015046325715421386
7034.7640109422455,0.006137981038168341,0.015126348493804514
7034.765010714461,0.006173834542971307,0.015169043420063144
7034.766010486676,0.006228176507422648,0.015175072259272407
7034.767010258892,0.006300112478552233,0.01514555336044021
7034.768010031106,0.006388558889664378,0.015082020013895168
7034.769009803322,0.006492252199300347,0.0149863704398602
7034.770009575537,0.0066097605381562185,0.014860811211054186
7034.771009347753,0.006739497663904951,0.014707796364022934
7034.772009119968,0.0068797389811425524,0.014529964662926356
7034.773008892184,0.007028639388347368,0.014330077334781598
7034.774008664398,0.0071842527511913655,0.014110958200113804
7034.7750084366135,0.00734455283363974,0.013875437674995305
7034.776008208829,0.007507455509584871,0.013626301788624345
7034.777007981044,0.0076708420570626825,0.01336624721038999
7034.77800775326,0.0078325833715002,0.013097843244669357
7034.779007525474,0.007990565025127547,0.01282350168618285
7034.78000729769,0.008142713159302522,0.01254545521875686
7034.781007069905,0.008287021141166102,0.012265744667639985
7034.782006842121,0.008421576738159065,0.011986214950257156
7034.783006614336,0.008544589316755741,0.011708519111770654
7034.784006386552,0.008654416333122644,0.011434129458333936
7034.785006158766,0.008749588250116918,0.011164354561133917
7034.786005930981,0.008828831074868591,0.010900360802911874
7034.787005703197,0.008891085949049821,0.010643197105657897
7034.788005475412,0.008935525475534176,0.010393821409953524
7034.789005247627,0.008961566549642235,0.010153127349823226
7034.790005019842,0.008968879370543791,0.009921969483767177
7034.791004792058,0.008957392197411875,0.009701185531154314
7034.792004564273,0.008927291436218586,0.009491614335429518
7034.793004336489,0.00887901681482576,0.009294108604029143
7034.794004108704,0.00881325163995583,0.009109541736753914
7034.795003880919,0.00873090832803705,0.00893880827678987
7034.796003653134,0.00863310951095042,0.00878281783157275
7034.797003425349,0.00852116506855445,0.008642482760844011
7034.798003197565,0.008396545522365495,0.008518700393115846
7034.79900296978,0.00826085238677666,0.008412330852474715
7034.800002741995,0.008115786251403762,0.008324171748171088
7034.80100251421,0.00796311345906073,0.008254931106522746
7034.802002286426,0.007804632232448967,0.008205200035475839
7034.803002058641,0.007642139048549716,0.008175426611078927
7034.804001830857,0.007477395993201199,0.008165892286548848
7034.805001603072,0.007312099732158675,0.008176691777987763
7034.806001375287,0.007147852626577299,0.008207716965033838
7034.807001147502,0.006986136470248852,0.008258644957415366
7034.808000919717,0.006828289355828344,0.00832893020551511
7034.809000691933,0.0066754862038215365,0.008417800419561708
7034.810000464148,0.00652872341006122,0.008524256094761816
7034.811000236363,0.006388807881160655,0.00864707356098381
7034.812000008578,0.006256350515317157,0.00878481160424433
7034.812999780794,0.006131764024338429,0.008935821769088867
7034.813999553009,0.006015264904771337,0.009098262418918063
7034.814999325225,0.0059068793322671845,0.009270116537101516
7034.81599909744,0.005806452739171114,0.009449213162342636
7034.816998869655,0.005713662813447447,0.0096332523224799
7034.81799864187,0.0056280356166029805,0.009819833347478974
7034.818998414085,0.0055489644631294445,0.01000648642456813
7034.819998186301,0.005475731148904719,0.010190707154423708
7034.820997958516,0.005407529072163664,0.010369993708238458
7034.821997730731,0.005343487748734898,0.010541886011728362
7034.822997502946,0.00528269816184304,0.010704006170381683
7034.823997275162,0.005224238300026086,0.010854099073247834
7034.824997047377,0.005167198154300356,0.010990071842178343
7034.825996819593,0.005110703433168129,0.011110030684595689
7034.826996591808,0.005053937370585877,0.011212313853923652
7034.827996364023,0.004996160226129183,0.011295519744062685
7034.828996136238,0.004936726302394609,0.011358529469665741
7034.829995908453,0.004875098445939621,0.011400523527528971
7034.830995680669,0.004810860056873446,0.011420992344425328
7034.831995452884,0.00474372464581635,0.011419740744260849
7034.832995225099,0.004673542960684292,0.011396886570097232
7034.833994997314,0.004600307671959684,0.01135285379158795
7034.83499476953,0.00452415557844709,0.011288360389858861
7034.835994541745,0.004445367282362549,0.011204401199533686
7034.8369943139605,0.004364364260387729,0.011102225813220306
7034.837994086176,0.004281703214359747,0.01098331172064485
7034.838993858391,0.004198067557812534,0.010849333087440599
7034.839993630606,0.004114255950011595,0.01070212589100424
7034.840993402821,0.004031167963832499,0.010543650379451429
7034.841993175037,0.003949787225306139,0.010375951922527873
7034.842992947252,0.0038711625894350767,0.010201121335499969
7034.843992719467,0.003796388030527949,0.01002125579278136
7034.844992491682,0.003726581904139649,0.009838421519932822
7034.845992263898,0.0036628661208364666,0.009654619455111006
7034.846992036113,0.0036063456178861385,0.009471754929965352
7034.8479918083285,0.003558088369343793,0.009291612179930114
7034.848991580544,0.003519106065998484,0.009115834246806074
7034.849991352759,0.0034903355475378963,0.008945908624127672
7034.850991124974,0.0034726210980340717,0.008783158797780905
7034.851990897189,0.0034666978051526402,0.008628741620010295
7034.852990669405,0.0034731762695434905,0.008483650219714587
7034.853990441619,0.0034925289725831997,0.008348721913489225
7034.854990213835,0.0035250785605831438,0.008224650360181935
7034.85598998605,0.0035709882163996267,0.008112000998556974
7034.856989758266,0.0036302542063044625,0.008011228609168568
7034.857989530481,0.003702700646190739,0.0079226956616698
7034.8589893026965,0.003787976541257823,0.007846690020325979
7034.859989074911,0.0038855551941912037,0.007783440661867711
7034.860988847127,0.003994736111714815,0.007733130304990348
7034.861988619342,0.004114649552173606,0.0076959041625317155
7034.862988391557,0.0042442638419248535,0.0076718743067137486
7034.863988163773,0.004382395538229165,0.00766111938127188
7034.864987935987,0.004527722441592284,0.007663679693589167
7034.865987708203,0.00467879938643501,0.007679548121715102
7034.866987480418,0.004834076670418403,0.007708657662023883
7034.867987252634,0.004991920899050728,0.00775086666015726
7034.868987024849,0.0051506379082677,0.007805942788085082
7034.8699867970645,0.005308497299536667,0.007873546763882716
7034.870986569279,0.0054637580270261235,0.007953216748106591
7034.871986341494,0.00561469446263269,0.008044354301835357
7034.87298611371,0.005759622432099863,0.008146212747579082
7034.873985885925,0.005896924799675675,0.008257888729059071
7034.874985658141,0.006025076207652909,0.008378317677091632
7034.875985430355,0.0061426665440669145,0.008506273703414818
7034.876985202571,0.006248422659198203,0.008640374173996823
7034.877984974786,0.006341227793606272,0.00877908892365698
7034.878984747002,0.006420138112386821,0.008920753808809538
7034.879984519217,0.006484395722858366,0.009063588072939303
7034.8809842914325,0.006533437692528987,0.009205714861949377
7034.881984063647,0.0065669008932668265,0.00934518422718338
7034.882983835862,0.006584622837037366,0.00947999808170288
7034.883983608078,0.006586638871315742,0.009608136720434897
7034.884983380293,0.006573176123204282,0.00972758654279894
7034.885983152509,0.00654464450469513,0.00983636849255965
7034.886982924723,0.006501625025759473,0.0099325665556533
7034.887982696939,0.006444855658495403,0.010014355579762867
7034.888982469154,0.006375215047151944,0.01008002777375869
7034.88998224137,0.006293704430662541,0.010128017466947132
7034.890982013585,0.006201428200769844,0.010156923941501922
7034.8919817858,0.006099573546141372,0.010165532305235024
7034.892981558015,0.005989389640554513,0.010152832436064154
7034.89398133023,0.005872166825504127,0.010118036026369065
7034.894981102446,0.005749216205057619,0.010060591666235685
7034.895980874661,0.00562185002114845,0.009980197704829828
7034.896980646877,0.005491363140427622,0.009876812380850164
7034.897980419091,0.005359015969627052,0.009750660552349058
7034.898980191307,0.005226019099001444,0.009602236372795182
7034.899979963522,0.005093519925840132,0.00943230141520038
7034.900979735738,0.004962591436617797,0.009241877913582077
7034.901979507953,0.00483422325310671,0.009032236884802808
7034.902979280168,0.004709314994981798,0.008804880964911188
7034.903979052383,0.0045886719821945894,0.008561521981737815
7034.904978824598,0.004473003288980636,0.008304053657604733
7034.905978596814,0.00436292215867478,0.008034520304646742
7034.906978369029,0.004258948772424995,0.007755082769841799
7034.907978141245,0.004161515303210494,0.007467983080065625
7034.908977913459,0.00407097306989442,0.007175509207522127
7034.909977685675,0.0039876014720741215,0.006879961184458019
7034.91097745789,0.003911618296648679,0.006583619525221304
7034.911977230106,0.0038431909768668914,0.006288716619572821
7034.912977002321,0.003782448435734571,0.005997411471899291
7034.913976774536,0.0037294932032888926,0.005711767896761906
7034.914976546751,0.0036844135256074153,0.005433736063926853
7034.915976318966,0.0036472952044244223,0.0051651371419569984
7034.916976091182,0.003618232960738569,0.004907650744147831
7034.917975863397,0.003597341189803722,0.004662804924951
7034.918975635612,0.003584764001190578,0.004431968546867123
7034.919975407827,0.003580684371248457,0.004216345877092707
7034.920975180043,0.003585332093873077,0.004016973273641706
7034.921974952258,0.003598990049864658,0.003834717797957601
7034.9229747244735,0.0036219981709513095,0.0036702775487061387
7034.923974496689,0.003654754378105213,0.003524183458974851
7034.924974268904,0.003697711739351523,0.003396802255731531
7034.925974041119,0.0037513711483378653,0.003288340255753955
7034.926973813334,0.0038162690203268177,0.0031988476769730856
7034.92797358555,0.0038929598487893384,0.00312822320237779
7034.928973357765,0.003981993883626409,0.0030762186480588183
7034.92997312998,0.004083890557238408,0.003042443710370835
7034.930972902195,0.004199108528733729,0.0030263708439522818
7034.931972674411,0.004328013356483248,0.003027340343232654
7034.932972446626,0.0044708439047921305,0.003044565695157465
7034.9339722188415,0.0046276786973105935,0.0030771392719419303
7034.934971991057,0.0047984035597747575,0.0031240384550003174
7034.935971763272,0.0049826819948042495,0.0031841323191896223
7034.936971535487,0.0051799297275084335,0.0032561890393947037
7034.937971307702,0.005389294732450445,0.0033388841970198838
7034.938971079918,0.00560964384590021,0.0034308101714455317
7034.939970852133,0.005839556838164494,0.0035304868086166335
7034.940970624348,0.006077328592050585,0.003636373551834369
7034.941970396563,0.006320979800246578,0.0037468831829937286
7034.942970168779,0.006568276346973559,0.0038603972582200636
7034.943969940994,0.006816757277093073,0.0039752832358740985
7034.9449697132095,0.007063770991193134,0.004089913187327015
7034.945969485425,0.007306519055830027,0.004202683865689219
7034.94696925764,0.007542106788394834,0.004312037813215766
7034.947969029855,0.007767599550247792,0.004416485118382905
7034.94896880207,0.007980083442601116,0.004514625353792425
7034.949968574286,0.0081767288464931,0.004605169111454906
7034.950968346501,0.008354854999777376,0.004686958436047795
7034.951968118716,0.008511993596667024,0.004758985408944005
7034.952967890931,0.00864594927197664,0.004820408196859755
7034.953967663147,0.008754854819695294,0.004870564024561635
7034.954967435362,0.00883721909884239,0.0049089786884452015
7034.9559672075775,0.00889196579260384,0.004935372323838834
7034.956966979793,0.00891846148405528,0.0049496611555594604
7034.957966752007,0.008916531855301712,0.004951954963636762
7034.958966524223,0.008886465226979676,0.004942550091158386
7034.959966296438,0.00882900322836809,0.00492191806147881
7034.960966068654,0.008745319150142627,0.004890690194389512
7034.961965840869,0.008636985314560829,0.004849638879865523
7034.962965613084,0.008505931360903135,0.004799656286438085
7034.963965385299,0.008354395574822428,0.004741731261570676
7034.964965157515,0.008184871336931184,0.004676925114246285
7034.96596492973,0.008000050545017394,0.004606346929245248
7034.9669647019455,0.00780276559487919,0.004531129055063679
7034.967964474161,0.007595931274694834,0.004452403403565149
7034.968964246375,0.007382487760019624,0.004371279172095949
7034.969964018591,0.0071653457604369565,0.004288822532652879
7034.970963790806,0.006947334744892328,0.004206038736505669
7034.971963563022,0.00673115507810776,0.004123856986106936
7034.972963335237,0.006519334844617891,0.004043118343277901
7034.973963107452,0.006314192090953154,0.003964566861966405
7034.974962879667,0.006117803139584083,0.0038888440487682948
7034.975962651883,0.005931977501397472,0.0038164866705563557
7034.976962424098,0.005758239745689583,0.0037479278452425212
7034.9779621963135,0.005597818500514901,0.003683501263598239
7034.978961968529,0.005451642567299463,0.003623448298640584
7034.979961740743,0.005320343941315796,0.0035679276700186
7034.980961512959,0.005204267325584269,0.0035170272530892855
7034.981961285174,0.005103485512605916,0.003470777569339113
7034.98296105739,0.005017819817430587,0.0034291664727603565
7034.983960829604,0.004946864631840857,0.003392154546209797
7034.98496060182,0.004890015168029325,0.0033596907229848684
7034.985960374035,0.004846497540588638,0.003331727634613771
7034.986960146251,0.004815400415588739,0.0033082361578708245
7034.987959918466,0.004795707471507345,0.0032892186133586425
7034.988959690681,0.004786329870468787,0.003274720072927122
7034.989959462896,0.004786137869828844,0.003264837272416091
7034.990959235111,0.0047939906416208915,0.0032597247048820584
7034.991959007327,0.004808763324066508,0.003259597573039992
7034.992958779542,0.004829370349060829,0.0032647313736687256
7034.993958551758,0.004854784251050562,0.003275457964250998
7034.994958323972,0.004884049492712274,0.0032921580646083446
7034.995958096188,0.004916291249251425,0.003315250317195456
7034.996957868403,0.004950719433808892,0.003345177264971455
7034.997957640619,0.00498662844392687,0.0033823888459754378
7034.998957412834,0.00502339317655634,0.0034273241688879946
7034.999957185049,0.005060461856173495,0.0034803923849552427
7035.000956957264,0.005097346209319491,0.003541953436330279
7035.001956729479,0.005133609538019051,0.003612299389988266
7035.002956501695,0.005168853304850679,0.0036916369863885636
7035.00395627391,0.005202702942274329,0.003780071946987409
7035.004956046126,0.00523479372568474,0.003877595496953268
7035.00595581834,0.005264757658986378,0.003984073474409165
7035.006955590556,0.005292212345446869,0.004099238321352309
7035.007955362771,0.005316752717104804,0.00422268419344552
7035.0089551349865,0.0053379462946256655,0.00435386539553772
7035.009954907202,0.005355332399981843,0.0044920983407566294
7035.010954679417,0.005368425491805201,0.004636567211404186
7035.011954451632,0.005376722558893397,0.004786333432858101
7035.012954223847,0.005379714294417539,0.0049403489521068255
7035.013953996063,0.0053768995779354,0.00509747317052042
7035.014953768278,0.005367802610785456,0.005256493244396194
7035.015953540494,0.005351991887668942,0.0054161473374726215
7035.016953312708,0.00532910006645168,0.005575150271864455
7035.017953084924,0.005298843754720444,0.0057322208674894575
7035.018952857139,0.0052610422801942745,0.005886110089536202
7035.0199526293545,0.005215634622240648,0.006035628961922792
7035.02095240157,0.005162693794558998,0.006179675094224064
7035.021952173785,0.00510243803788128,0.006317256668305346
7035.022951946,0.005035238203900821,0.00644751287757878
7035.023951718215,0.004961620742073469,0.0065697300585119255
7035.024951490431,0.0048822658259136415,0.00668335298122971
7035.025951262646,0.004798000417532132,0.00678799091583284
7035.026951034862,0.004709786405040458,0.006883418229812742
7035.027950807076,0.0046187042348584725,0.006969569478647153
7035.028950579292,0.004525932633186111,0.007046529210075451
7035.029950351507,0.00443272509059836,0.00711451695041625
7035.0309501237225,0.004340383821024648,0.007173868071993048
7035.031949895938,0.004250231935022636,0.007225011493662331
7035.032949668153,0.004163584603748009,0.007268445432775567
7035.033949440368,0.004081720028662476,0.007304712619828037
7035.034949212583,0.004005851050651223,0.007334376414884638
7035.035948984799,0.003937098220312748,0.007357999108642129
7035.036948757014,0.003876465114233317,0.007376123413530176
7035.03794852923,0.0038248166168476355,0.007389257850404333
7035.038948301444,0.0037828607792735505,0.0073978664823915645
7035.03994807366,0.0037511347132332213,0.007402363234116871
7035.040947845875,0.0037299947971209486,0.007403110812603168
7035.0419476180905,0.003719611282675918,0.007400423992640597
7035.042947390306,0.00371996721074061,0.007394576767839057
7035.043947162521,0.003730861390755982,0.007385812626681439
7035.044946934736,0.0037519150849684977,0.007374356996697752
7035.045946706951,0.0037825819636935127,0.007360430722182284
7035.046946479167,0.0038221608514962843,0.007344263344851808
7035.047946251382,0.0038698107576332066,0.007326104979359505
7035.048946023597,0.003924567666899222,0.0073062356984784586
7035.049945795812,0.0039853625451437905,0.007284971504999899
7035.050945568028,0.004051039991122193,0.007262666129410378
7035.051945340243,0.004120376966330043,0.007239708087470379
7035.0529451124585,0.004192101071698762,0.007216512738872416
7035.053944884674,0.004264907920822702,0.0071935095315621735
7035.054944656888,0.004337477305471678,0.007171125102985656
7035.055944429104,0.004408488070206957,0.007149763285331559
7035.056944201319,0.004476631852318433,0.007129783225488608
7035.057943973535,0.004540626008752322,0.007111476798940118
7035.05894374575,0.004599226105289153,0.00709504638456384
7035.059943517965,0.0046512383148146425,0.00708058399762999
7035.06094329018,0.004695532001615643,0.007068052786788312
7035.061943062396,0.004731052682773611,0.007057271920072837
7035.062942834611,0.004756835469371062,0.007047905829784744
7035.0639426068265,0.004772018994000306,0.0070394586341363365
7035.064942379042,0.0047758597110731564,0.007031274337643782
7035.065942151256,0.004767746311413674,0.007022543172935628
7035.066941923472,0.004747213842113202,0.007012314208455683
7035.067941695687,0.004713956995970336,0.006999514116773789
7035.068941467903,0.0046678419602006254,0.006982971776423076
7035.069941240118,0.0046089162049553906,0.006961448168878484
7035.070941012333,0.004537415645600181,0.006933670829813672
7035.071940784548,0.004453768728386889,0.006898371905878936
7035.072940556764,0.004358597168175959,0.006854328647910669
7035.073940328979,0.00425271327942627,0.006800404963934787
7035.074940101194,0.0041371140231063015,0.006735592515089474
7035.07593987341,0.004012971983790496,0.006659049826904694
7035.076939645624,0.0038816234773835882,0.006570138039566597
7035.07793941784,0.0037445539070390353,0.006468452182406679
7035.078939190055,0.003603380404255239,0.006353847099699476
7035.079938962271,0.0034598317825797415,0.0062264572824606845
7035.080938734486,0.0033157259241413987,0.00608670991759431
7035.081938506701,0.0031729448932020666,0.005935330590078441
7035.082938278916,0.0030334082597084314,0.00577334136354881
7035.083938051132,0.002899045247226466,0.005602051379977138
7035.084937823347,0.0027717663626742905,0.0054230405112074545
7035.085937595562,0.002653435133438211,0.005238136833574493
7035.086937367778,0.0025458404998422043,0.00504938876497787
7035.087937139992,0.002450670317700907,0.004859032680457911
7035.088936912208,0.002369486345430208,0.004669456805153667
7035.089936684423,0.0023037010406866377,0.004483162222757523
7035.090936456639,0.002254556470250141,0.004302721911022459
7035.091936228854,0.0022231056246757044,0.004130738761479583
7035.092936001069,0.0022101964080619785,0.003969803517880635
7035.093935773284,0.0022164585382445923,0.003822453482724658
7035.0949355455,0.0022422935461484275,0.0036911327174131425
7035.095935317715,0.002287868008710433,0.003578154316118618
7035.09693508993,0.002353110093670999,0.003485665185287227
7035.097934862146,0.002437709437491872,0.003415613637492389
7035.09893463436,0.00254112031085629,0.0033697200292986925
7035.099934406576,0.002662567949191566,0.003349450635940591
7035.100934178791,0.0028010578659296292,0.0033559949488625716
7035.101933951007,0.0029553879598252287,0.0033902465959627145
7035.102933723222,0.003124163271774406,0.003452788106901228
7035.103933495437,0.0033058132895285247,0.0035438797589637363
7035.104933267652,0.0034986116894056506,0.003663452732686901
7035.105933039868,0.003700698336695587,0.003811106783240378
7035.106932812083,0.003910103270758285,0.003986112586460525
7035.107932584298,0.004124772310401597,0.004187418831082041
7035.108932356514,0.004342593852960252,0.004413664010409626
7035.109932128728,0.004561426415329845,0.004663192753958325
7035.110931900944,0.004779126463286876,0.004934076451870563
7035.111931673159,0.004993576065036688,0.005224137844650864
7035.112931445375,0.00520270987235418,0.005530979148718751
7035.113931217589,0.005404540909573237,0.005852013158912667
7035.114930989805,0.005597184684127958,0.0061844966514443735
7035.11593076202,0.005778881232756828,0.006525565361619504
7035.116930534236,0.0059480148452631665,0.006872269837149597
7035.117930306451,0.0061031312998805825,0.007221611523722317
7035.118930078666,0.0062429524602127025,0.007570578508918617
7035.119929850881,0.006366388045396016,0.007916180477455022
7035.120929623096,0.006472544365975258,0.008255482632575641
7035.121929395312,0.0065607298783192025,0.008585638543757736
7035.122929167527,0.006630457548308395,0.008903921984415742
7035.123928939743,0.006681444176090375,0.009207757782185461
7035.124928711957,0.006713606952388394,0.009494751562043607
7035.125928484173,0.006727057558679754,0.009762718084556463
7035.126928256388,0.006722094116496304,0.010009707698763167
7035.127928028604,0.00669919130828166,0.010234030247653216
7035.128927800819,0.006658989074080049,0.010434275588923583
7035.129927573034,0.006602280391849675,0.010609329750310273
7035.130927345249,0.006529998696556291,0.010758385718257078
7035.131927117464,0.006443205448297404,0.010880948073734574
7035.13292688968,0.0063430782362968886,0.010976831099043573
7035.133926661895,0.006230899633038349,0.011046150365131091
7035.134926434111,0.006108046820264202,0.011089308029666095
7035.135926206325,0.005975981815359104,0.011106972224298172
7035.136925978541,0.005836241929924154,0.011100051114725952
7035.137925750756,0.005690429890366034,0.011069662444177031
7035.138925522972,0.005540202889556091,0.01101709951117698
7035.139925295187,0.005387259807132147,0.010943794582379839
7035.140925067402,0.005233325984323882,0.010851280784626757
7035.141924839617,0.005080135233562372,0.010741153583400258
7035.142924611832,0.004929409135603894,0.010615032978369101
7035.143924384048,0.004782834067645179,0.010474527511703862
7035.144924156263,0.0046420367399135215,0.010321201161804818
7035.145923928479,0.004508559218071537,0.010156544215164683
7035.146923700693,0.004383834453767284,0.00998194918020426
7035.147923472909,0.0042691632708545,0.009798692633187552
7035.148923245124,0.004165693605333522,0.009607923601739383
7035.14992301734,0.004074402613144185,0.009410658810588453
7035.150922789555,0.003996082073762165,0.009207784892582754
7035.15192256177,0.003931327343211934,0.00900006746280674
7035.152922333985,0.0038805299573613293,0.008788166707835774
7035.1539221062,0.003843873883283655,0.00857265885723927
7035.154921878416,0.003821335392987528,0.008354062610421984
7035.155921650631,0.0038126865755469456,0.00813286930838793
7035.156921422847,0.003817502541209714,0.00790957541437891
7035.157921195061,0.0038351723344958156,0.007684715780879219
7035.158920967277,0.0038649134506338304,0.007458896251555636
7035.159920739492,0.0039057896792793452,0.007232824290259812
7035.160920511707,0.003956731822822483,0.007007336461636015
7035.161920283923,0.004016560679343663,0.006783421711597458
7035.162920056138,0.004084011565794531,0.006562239551263103
7035.163919828353,0.00415775961519074,0.006345132433183197
7035.164919600568,0.0042364451388959045,0.006133631778891895
7035.165919372784,0.004318698503300543,0.005929457248323465
7035.166919144999,0.004403164185084709,0.005734508966070331
7035.167918917215,0.004488523854785761,0.0055508525812454764
7035.168918689429,0.004573518417859847,0.005380697251222076
7035.169918461645,0.004656968902869044,0.005226366893180173
7035.17091823386,0.004737795975974135,0.005090265313748805
7035.171918006075,0.004815037745540082,0.004974836075334835
7035.172917778291,0.004887865452653447,0.004882518170421376
7035.173917550506,0.0049555966483862375,0.004815698741582813
7035.174917322721,0.005017705527977135,0.004776664190475073
7035.175917094936,0.005073830190813785,0.004767551048801371
7035.176916867152,0.005123776692827859,0.004790297934850041
7035.177916639367,0.005167519844700075,0.004846599814148122
7035.178916411582,0.005205200775147101,0.0049378656673249345
7035.179916183797,0.005237121309561601,0.005065180574392549
7035.1809159560125,0.005263735224750838,0.005229273149319869
7035.181915728228,0.005285636470709075,0.0054304891772323045
7035.182915500443,0.005303544518536196,0.005668772193762347
7035.183915272659,0.00531828708594344,0.005943651587924932
7035.184915044873,0.0053307805968841205,0.006254238606109198
7035.185914817089,0.0053420088421793285,0.0065992303967831786
7035.186914589304,0.005353000388845572,0.006976921981114345
7035.18791436152,0.005364805290315269,0.00738522578215468
7035.188914133735,0.005378471578979604,0.00782169810954915
7035.18991390595,0.005395021940719837,0.00828357178499818
7035.190913678165,0.005415430946593691,0.008767793902664755
7035.1919134503805,0.005440603256523498,0.009271067549102409
7035.192913222596,0.005471353253708018,0.009789896179047906
7035.193912994811,0.005508386547809084,0.010320629280777803
7035.194912767027,0.00555228368757829,0.010859507969624396
7035.195912539241,0.005603486293666913,0.011402709202596282
7035.196912311457,0.005662285695989086,0.011946387405590545
7035.197912083672,0.005728814028578367,0.012486712490189605
7035.198911855888,0.005803037588239586,0.013019903591056212
7035.199911628103,0.005884752141554409,0.013542258399201564
7035.200911400318,0.005973579839909718,0.014050178548427607
7035.201911172533,0.006068967514472642,0.014540191872594754
7035.2029109447485,0.0061701863440695335,0.015008972371924134
7035.203910716964,0.006276333138187701,0.015453358539151259
7035.204910489179,0.006386333668670127,0.015870370492946716
7035.205910261395,0.006498948570333852,0.016257226195243106
7035.206910033609,0.006612782321705988,0.016611356839828735
7035.207909805825,0.006726295746384138,0.016930421295722857
7035.20890957804,0.006837822356259198,0.017212319358835267
7035.209909350256,0.006945588680595142,0.017455203575212255
7035.210909122471,0.007047738499240675,0.017657489499428497
7035.211908894686,0.007142360680322056,0.017817864314655013
7035.212908666901,0.007227520186643603,0.017935293680673158
7035.2139084391165,0.007301291778796195,0.018009026507555224
7035.214908211332,0.007361795933470533,0.018038597161118733
7035.215907983547,0.007407236410190731,0.018023824512290346
7035.216907755763,0.007435938699230727,0.01796480734804497
7035.217907527977,0.007446388319824178,0.0178619159303608
7035.218907300193,0.00743726771596542,0.017715779733866118
7035.219907072408,0.007407490403272432,0.017527271492960326
7035.220906844624,0.007356231056980297,0.0172974877685588
7035.221906616839,0.007282950340394984,0.017027726518010503
7035.222906389054,0.007187413442459706,0.01671946264245291
7035.223906161269,0.0070697015876265345,0.01637432296522777
7035.2249059334845,0.006930216237535783,0.015994062293795786
7035.2259057057,0.006769676229304944,0.015580542084006605
7035.226905477915,0.0065891085090308355,0.015135712960864548
7035.227905250131,0.006389833291522824,0.014661602166610133
7035.228905022345,0.006173444426703859,0.014160306897585408
7035.229904794561,0.005941785625913772,0.013633994288090671
7035.230904566776,0.00569692315258086,0.013084908399944705
7035.231904338992,0.005441115652868569,0.012515384052214064
7035.232904111207,0.005176781914660211,0.01192786685020841
7035.233903883422,0.004906467405374265,0.01132493846789366
7035.234903655637,0.004632810417877301,0.01070934606417238
7035.2359034278525,0.0043585085563083775,0.010084034522607019
7035.236903200068,0.004086286139486031,0.00945217989920564
7035.237902972283,0.0038188629242924214,0.008817222082572658
7035.238902744499,0.003558924395777727,0.008182894343215206
7035.239902516713,0.00330909375132263,0.007553247315147392
7035.240902288929,0.0030719056111341387,0.006932665110523121
7035.241902061144,0.0028497814062576642,0.006325871714653162
7035.24290183336,0.002645006343397111,0.005737926416198205
7035.243901605574,0.002459707850165165,0.005174207610279309
7035.24490137779,0.002295835467581427,0.0046403847571413045
7035.245901150005,0.0021551422381229117,0.004142378592028935
7035.24690092222,0.0020391676821321864,0.003686309920824688
7035.247900694436,0.0019492224464888084,0.0032784375438716464
7035.248900466651,0.0018863746771286196,0.002925086051672736
7035.249900238866,0.0018514381407423834,0.002632564442676901
7035.250900011081,0.0018449621052657654,0.002407076719905028
7035.251899783297,0.0018672229855760515,0.0022546258124883428
7035.252899555512,0.0019182177832150296,0.002180912316454985
7035.253899327728,0.0019976594040951186,0.002191229631128131
7035.254899099942,0.002104974013117027,0.0022903570826703786
7035.255898872158,0.0022393006515621593,0.0024824526174542327
7035.256898644373,0.0023994933757607254,0.002770946672703072
7035.257898416588,0.0025841261692678154,0.0031584389157877316
7035.258898188804,0.0027915008572830624,0.003646599671051818
7035.259897961019,0.003019658236518086,0.004236078001516304
7035.260897733234,0.003266392627910168,0.004926418578081444
7035.261897505449,0.0035292700423242775,0.005715989637965206
7035.262897277665,0.0038056501016767406,0.006601924452492896
7035.26389704988,0.004092711781396601,0.007580078729117479
7035.264896822096,0.004387482951857969,0.008645006253956047
7035.26589659431,0.004686873609865515,0.009789954879717873
7035.2668963665255,0.004987712602087011,0.011006884711691828
7035.267896138741,0.0052867875328661855,0.012286510037779806
7035.268895910956,0.005580887405109992,0.01361836617922408
7035.269895683172,0.005866847362997271,0.01499090201790719
7035.270895455387,0.006141594702807468,0.01639159848974841
7035.271895227602,0.0064021951306283305,0.017807112797035615
7035.272894999817,0.006645898123174837,0.019223447449360744
7035.273894772033,0.006870180217053468,0.020626142481390518
7035.274894544248,0.007072785101178214,0.022000488334879536
7035.275894316464,0.007251759491066726,0.023331755952924624
7035.276894088678,0.0074054838976707945,0.024605439620930758
7035.2778938608935,0.007532697536275507,0.025807507034577813
7035.278893633109,0.007632516725847867,0.02692465012471539
7035.279893405324,0.007704446218092183,0.027944529581747406
7035.28089317754,0.007748383036682286,0.028856006027635047
7035.281892949755,0.007764612676971645,0.029649351377278768
7035.28289272197,0.007753797900389695,0.03031643478915543
7035.283892494185,0.007716960716680708,0.03085087826499945
7035.284892266401,0.007655458330194564,0.031248177209111334
7035.285892038616,0.007570953816337218,0.03150578140271898
7035.286891810832,0.0074653822147004575,0.03162313249903323
7035.287891583046,0.007340912720626248,0.03160165569074549
7035.2888913552615,0.007199907783484473,0.0314447054627874
7035.289891127477,0.007044880122845934,0.03115746766450538
7035.290890899692,0.00687844883475929,0.030746821831171074
7035.291890671908,0.006703295778543047,0.030221168527645646
7035.292890444123,0.0065221232870206446,0.029590226841950572
7035.293890216338,0.00633761398873869,0.02886480759158447
7035.294889988553,0.006152393265760334,0.028056568575597962
7035.295889760769,0.005968994670647619,0.027177759116723595
7035.296889532984,0.005789828504511058,0.02624096178601727
7035.2978893052,0.005617153670544304,0.02525883926094807
7035.298889077414,0.0054530528194312875,0.02424389365630751
7035.2998888496295,0.005299410704882112,0.02320824456240451
7035.300888621845,0.005157895621246366,0.02216343070756714
7035.30188839406,0.005029943819026051,0.021120238834183444
7035.302888166276,0.004916746837667908,0.020088562114253646
7035.303887938491,0.004819241696378367,0.01907728924395614
7035.304887710706,0.0047381038425458235,0.018094224261778515
7035.305887482921,0.004673742739222042,0.017146036168783203
7035.306887255137,0.004626300049619301,0.016238236638508194
7035.307887027352,0.004595650549602912,0.015375183522139842
7035.308886799567,0.004581406080292699,0.014560107494999527
7035.309886571782,0.0045829229401741205,0.013795159030928905
7035.3108863439975,0.004599313083495018,0.013081472856050769
7035.311886116213,0.004629459380721487,0.012419247006484394
7035.312885888428,0.004672035048392073,0.011807833514394555
7035.313885660644,0.004725527184213572,0.01124583762010379
7035.314885432858,0.004788264153659313,0.010731222416239033
7035.315885205074,0.0048584463719964265,0.01026141608987911
7035.316884977289,0.004934179819105271,0.009833419379575796
7035.317884749505,0.005013511433462646,0.009443911306910377
7035.31888452172,0.005094465382761575,0.009089351490070154
7035.319884293935,0.005175079120688751,0.008766077364573237
7035.32088406615,0.005253438131885176,0.008470394579862128
7035.3218838383655,0.0053277083784349965,0.008198658947587895
7035.322883610581,0.005396165713669805,0.007947348722699732
7035.323883382796,0.005457221854849713,0.007713126617238725
7035.324883155012,0.005509446757803872,0.007492891515655842
7035.325882927226,0.005551587315706789,0.007283820140424803
7035.326882699442,0.005582582255944362,0.00708339889868069
7035.327882471657,0.005601573055602079,0.0068894460306805905
7035.328882243873,0.0056079107033000005,0.006700124190288425
7035.329882016088,0.005601158192128435,0.006513943780987321
7035.330881788303,0.005581088741961072,0.006329757692715239
7035.331881560518,0.005547679962534383,0.006146748443365055
7035.332881332733,0.005501104450441963,0.005964409024008707
7035.333881104949,0.0054417175232046745,0.005782518888688133
7035.334880877164,0.005370042817635551,0.005601116487916913
7035.33588064938,0.005286756342693119,0.0054204695672941195
7035.336880421594,0.00519266939759351,0.005241044220074157
7035.33788019381,0.005088710656010981,0.005063473464476038
7035.338879966025,0.004975907726138497,0.004888525952987918
7035.339879738241,0.004855368593841761,0.004717075312625457
7035.340879510456,0.004728263454958167,0.0045500705276653374
7035.341879282671,0.004595807464899506,0.0043885076825115835
7035.342879054886,0.004459244859292439,0.00423340329772136
7035.343878827101,0.004319834753623444,0.0040857694466298645
7035.344878599317,0.004178838747840078,0.003946590830058796
7035.345878371532,0.0040375102776630065,0.00381680397744146
7035.346878143748,0.003897085499336767,0.003697278697692914
7035.347877915962,0.0037587753914787724,0.0035888018135458986
7035.348877688178,0.0036237587217486313,0.003492063123337569
7035.349877460393,0.003493175558102286,0.0034076435159751143
7035.350877232609,0.0033681210726811506,0.003336005234436365
7035.351877004824,0.003249639444589994,0.0032774843714487205
7035.352876777039,0.0031387177088559033,0.0032322857118118747
7035.353876549254,0.0030362794597303382,0.0032004800049161173
7035.354876321469,0.0029431784181952695,0.0031820037005277487
7035.355876093685,0.0028601919868581683,0.0031766611300548327
7035.3568758659,0.002788014993436316,0.003184129049580428
7035.357875638116,0.0027272538473083192,0.003203963366020699
7035.35887541033,0.0026784213168976616,0.0032356077462932947
7035.359875182546,0.0026419321016563396,0.003278403677689737
7035.360874954761,0.002618099332615777,0.0033316014435555404
7035.361874726977,0.0026071320935418807,0.003394371454896808
7035.362874499192,0.0026091340112314476,0.0034658154578808406
7035.363874271407,0.0026241029140704458,0.003544977281098628
7035.364874043622,0.002651931499656346,0.003630852936063713
7035.365873815837,0.0026924088970317196,0.003722400012358684
7035.366873588053,0.002745222985030764,0.0038185464188347385
7035.367873360268,0.002809963357239058,0.0039181986216128215
7035.368873132484,0.002886124893068132,0.004020249607507593
7035.369872904698,0.0029731119599797707,0.004123586828631444
7035.370872676914,0.0030702433035470706,0.0042271003457924235
7035.371872449129,0.0031767576886003015,0.0043296913067799305
7035.372872221345,0.0032918203561173136,0.004430280802380084
7035.373871993559,0.0034145303522799797,0.004527819057243011
7035.374871765775,0.003543928746544134,0.0046212948515913016
7035.37587153799,0.0036790076777979104,0.004709745042603715
7035.376871310205,0.003818720075476669,0.004792264043818505
7035.377871082421,0.00396198983587641,0.0048680131009201984
7035.378870854636,0.004107722215570516,0.004936229176971419
7035.379870626852,0.004254814215178695,0.004996233264261131
7035.380870399066,0.004402164721845196,0.0050474379964159195
7035.381870171282,0.004548684133745146,0.005089354525309589
7035.382869943497,0.00469330314342138,0.005121598706968879
7035.3838697157125,0.0048349803848160965,0.0051438966677225615
7035.384869487927,0.004972708780740522,0.005156089785805112
7035.385869260143,0.005105520602277612,0.00515813904775572
7035.386869032358,0.005232491382388331,0.005150128653785712
7035.387868804573,0.005352742895208387,0.005132268676057747
7035.388868576789,0.005465445474780274,0.00510489655295913
7035.389868349004,0.005569820038909526,0.005068477269414105
7035.390868121219,0.0056651402691091386,0.005023602230666393
7035.391867893434,0.0057507354182068215,0.004970987035130009
7035.39286766565,0.005825994160857626,0.004911468514328358
7035.393867437865,0.005890369796219133,0.004846001470978634
7035.3948672100805,0.005943386979218592,0.004775655493602905
7035.395866982295,0.0059846499948252585,0.004701612094110938
7035.396866754511,0.00601385238555666,0.004625162260555349
7035.397866526726,0.0060307875015416495,0.004547704380036586
7035.398866298941,0.006035359301777013,0.0044707423692389
7035.399866071157,0.0060275925577333205,0.004395883725734972
7035.400865843372,0.0060076415725954,0.004324837064618145
7035.401865615587,0.005975796679020603,0.004259408557369147
7035.402865387802,0.005932488070321564,0.004201496591000667
7035.403865160018,0.005878286819453978,0.004153083936080103
7035.404864932233,0.005813903122372899,0.004116226728139864
7035.4058647044485,0.005740181831752688,0.004093039597734175
7035.406864476663,0.005658095259674816,0.004085676349980992
7035.407864248879,0.005568733096595039,0.004096305760196411
7035.408864021094,0.00547328923029524,0.0041270823426781825
7035.409863793309,0.005373045366107789,0.004180112295052004
7035.410863565525,0.005269351661442613,0.004257415122203599
7035.41186333774,0.0051636049584534655,0.004360881675220032
7035.412863109955,0.005057225447311339,0.0044922295531692295
7035.41386288217,0.004951632645904503,0.004652957040878904
7035.414862654386,0.0048482215089780244,0.004844296939949231
7035.415862426601,0.004748339385610046,0.005067171716777311
7035.4168621988165,0.0046532644625947245,0.005322151340803967
7035.417861971031,0.004564186227245265,0.0056094150802569265
7035.418861743246,0.004482188325034953,0.005928718398161066
7035.419861515462,0.004408233998753261,0.006279365942549331
7035.420861287677,0.0043431541404044625,0.00666019145493688
7035.421861059893,0.004287637917520163,0.0070695452651857605
7035.422860832108,0.004242225950325968,0.007505289930401196
7035.423860604323,0.0042073060621223715,0.007964804497382426
7035.424860376538,0.004183111645645017,0.008444997767856012
7035.425860148754,0.004169722666701425,0.008942330777453126
7035.426859920969,0.004167069279942338,0.009452848475450588
7035.4278596931845,0.004174937973860747,0.009972220378857635
7035.428859465399,0.004192980092548874,0.010495789832637865
7035.429859237614,0.00422072250215125,0.011018631431797841
7035.43085900983,0.004257580088325081,0.011535616075203231
7035.431858782045,0.004302869693341635,0.01204148294536252
7035.432858554261,0.004355825035481553,0.012530917422761944
7035.433858326476,0.0044156121118545085,0.012998633590468912
7035.434858098691,0.004481344574217914,0.013439459628939682
7035.435857870906,0.00455209858300658,0.013848424085115942
7035.436857643122,0.004626926698470311,0.014220840744422002
7035.437857415337,0.004704870485250841,0.01455238969676717
7035.438857187552,0.004784971690115002,0.014839192288877262
7035.439856959767,0.004866282054717245,0.015077878049327467
7035.440856731982,0.004947871974027288,0.015265642193043452
7035.441856504198,0.005028838257066472,0.015400292682491134
7035.442856276413,0.005108311192256965,0.015480285957287747
7035.443856048629,0.00518546101236202,0.015504750522401191
7035.444855820844,0.005259503752640332,0.015473497815344593
7035.445855593059,0.005329706435799036,0.01538702018704042
7035.446855365274,0.005395391503429746,0.015246476317488966
7035.44785513749,0.00545594044615454,0.015053664801830822
7035.448854909705,0.005510796672784063,0.014810986864960149
7035.44985468192,0.005559467791786411,0.0145213991664386
7035.450854454135,0.00560152760275507,0.014188357580871802
7035.45185422635,0.005636618144667873,0.013815752904090178
7035.452853998566,0.005664452094156812,0.013407839739310154
7035.453853770781,0.0056848156757844945,0.012969160251062841
7035.454853542997,0.0056975720810147545,0.01250446484329728
7035.455853315211,0.005702665224185738,0.012018631986850848
7035.456853087427,0.005700123516746549,0.011516589363451265
7035.457852859642,0.005690063253792875,0.011003238256696182
7035.458852631858,0.005672691226086193,0.010483382769506219
7035.459852404073,0.0056483063072837545,0.009961665029677338
7035.460852176288,0.0056172999534644386,0.009442507106963847
7035.461851948503,0.0055801556749062375,0.008930059979719714
7035.462851720718,0.00553744753276705,0.008428159632532944
7035.463851492934,0.005489837608790328,0.007940290259393658
7035.464851265149,0.005438072267917609,0.007469554548616442
7035.465851037365,0.005382976934816299,0.007018651083344042
7035.466850809579,0.005325449068202511,0.0065898589578416815
7035.467850581795,0.005266449052052179,0.006185029722932465
7035.46885035401,0.00520698880808305,0.005805586688950328
7035.4698501262255,0.005148118044661053,0.00545253145947421
7035.470849898441,0.005090908202667335,0.0051264574155601116
7035.471849670656,0.005036434354193574,0.004827569757610387
7035.472849442871,0.004985755523344975,0.004555711630983703
7035.473849215086,0.0049398940642355164,0.004310395782284207
7035.474848987302,0.0048998148189046955,0.0040908410897950815
7035.475848759517,0.004866404805633189,0.003896013182512336
7035.476848531733,0.004840454167649133,0.00372466823505399
7035.477848303947,0.00482263903013756,0.0035753989270406014
7035.478848076163,0.004813506766408021,0.0034466814884563705
7035.479847848378,0.004813463982542208,0.0033369227096978677
7035.4808476205935,0.00482276732951601,0.0032445057825092423
7035.481847392809,0.004841517094304574,0.003167833871611886
7035.482847165024,0.004869653460703332,0.003105370396218262
7035.483846937239,0.0049069553804917355,0.0030556751139355306
7035.484846709454,0.00495304210515898,0.003017435261956252
7035.48584648167,0.005007377511486018,0.0029894912474747576
7035.486846253885,0.005069277348715922,0.002970856656820895
7035.487846026101,0.005137919438713676,0.0029607325862862598
7035.488845798315,0.005212356718133957,0.002958516441913053
7035.489845570531,0.005291532870977671,0.0029638054332168065
7035.490845342746,0.005374300181304567,0.002976395036715736
7035.4918451149615,0.005459439138482511,0.0029962727481622218
7035.492844887177,0.005545679247936909,0.0030236074734900005
7035.493844659392,0.0056317204390362655,0.0030587349187108297
7035.494844431607,0.005716254431093486,0.003102139339882813
7035.495844203822,0.0057979854507339435,0.00315443203395922
7035.496843976038,0.005875649810907605,0.0032163270005521392
7035.497843748253,0.005948034033735092,0.003288614269390237
7035.498843520469,0.006013991353683427,0.003372131450465536
7035.499843292683,0.0060724565182024215,0.0034677341034310537
7035.500843064899,0.006122458822223706,0.0035762655188873544
7035.501842837114,0.00616313333182283,0.0036985264613391775
7035.5028426093295,0.0061937303037925195,0.003835245374759087
7035.503842381544,0.006213622875634312,0.0039870495208572995
7035.50484215376,0.006222313172152686,0.004154437500495336
7035.505841925975,0.0062194370513817265,0.004337753580024649
7035.50684169819,0.006204767766219174,0.0045371642002183625
7035.507841470406,0.0061782188039483776,0.004752637004269001
7035.508841242621,0.006139846076074677,0.004983922712156434
7035.509841014837,0.006089849501068286,0.005230540198387407
7035.510840787051,0.006028573892132235,0.00549176516422758
7035.511840559267,0.005956508954457713,0.005766622784582877
7035.512840331482,0.005874288123832973,0.0060538846367222095
7035.5138401036975,0.0057826859378353026,0.006352070106688515
7035.514839875912,0.005682613603507438,0.006659452348012795
7035.515839648127,0.005575112407394323,0.006974068755582463
7035.516839420343,0.005461344638488877,0.007293735852100969
7035.517839192558,0.005342581799084791,0.007616068516480448
7035.518838964774,0.005220190049081542,0.007938503607257336
7035.519838736989,0.005095613001165753,0.00825832814236692
7035.520838509204,0.004970352100281218,0.008572712156109037
7035.521838281419,0.004845944884950887,0.008878746126730175
7035.522838053635,0.0047239414946886995,0.009173482529747848
7035.52383782585,0.004605879893508752,0.009453980738411947
7035.5248375980655,0.004493260402154973,0.009717354256609283
7035.52583737028,0.0043875202244366435,0.009960819174593358
7035.526837142495,0.004290008692805313,0.010181742755266265
7035.527836914711,0.0042019639467810645,0.010377691094857481
7035.528836686926,0.004124491697966186,0.010546474777578621
7035.529836459142,0.004058546625670314,0.010686191384872997
7035.530836231357,0.004004916800884263,0.0107952637272497
7035.531836003572,0.003964211389163353,0.010872472780298952
7035.532835775787,0.003936851762076758,0.010916984466526624
7035.533835548003,0.003923066042577504,0.010928369586031175
7035.534835320218,0.003922886998632957,0.010906616382903024
7035.535835092433,0.00393615308738809,0.01085213544135473
7035.536834864648,0.0039625123709229005,0.01076575677943589
7035.537834636863,0.004001428989128658,0.010648719108105078
7035.538834409079,0.004052191867481331,0.01050265126987358
7035.539834181294,0.004113925344110925,0.010329545919454444
7035.54083395351,0.004185601439549584,0.010131725634204652
7035.541833725725,0.0042660535852069,0.009911801928348712
7035.54283349794,0.004353991759392256,0.009672628091957515
7035.543833270155,0.004448019104463694,0.00941724722860004
7035.544833042371,0.004546650166520633,0.009148837141758846
7035.545832814586,0.0046483308965539405,0.008870653787508063
7035.546832586801,0.004751460499665835,0.0085859749527902
7035.547832359016,0.004854415133841643,0.008298045686995513
7035.548832131231,0.004955573341517832,0.008010026810913486
7035.549831903447,0.005053342949779063,0.007724947561004365
7035.550831675662,0.005146189012264364,0.007445663129090491
7035.551831447878,0.00523266219878665,0.007174817574241785
7035.552831220093,0.005311426874856749,0.006914812367026192
7035.553830992308,0.005381287959292416,0.006667780702685777
7035.554830764523,0.005441215512013436,0.006435567679350721
7035.5558305367385,0.0054903659170955875,0.006219716452262179
7035.556830308954,0.00552809855010099,0.006021460499252401
7035.557830081169,0.005553987004095815,0.005841722107081066
7035.558829853384,0.005567824290079158,0.0056811170774761005
7035.559829625599,0.005569621860040448,0.00553996546830743
7035.560829397815,0.005559602720691596,0.005418307973733147
7035.56182917003,0.005538189220337114,0.005315927356311433
7035.562828942246,0.005505986285963378,0.005232374200506759
7035.563828714461,0.005463761018687792,0.005166996149204368
7035.564828486676,0.0054124196591025025,0.0051189696781627015
7035.565828258891,0.005352982979812582,0.005087333344142684
7035.5668280311065,0.005286561109041702,0.005071021354583635
7035.567827803322,0.0052143286396031255,0.005068896326308058
7035.5688275755365,0.005137500668550091,0.00507978025524147
7035.569827347752,0.005057310187592167,0.005102482946296225
7035.570827119967,0.004974987049330213,0.0051358273578768375
7035.571826892183,0.004891738604995099,0.005178671454755759
7035.572826664398,0.004808732040575643,0.005229926255793891
7035.573826436614,0.004727078396318184,0.005288569848629331
7035.574826208829,0.004647818233480416,0.0053536572507125475
7035.575825981044,0.004571908947443003,0.005424326133202702
7035.576825753259,0.004500213831709004,0.005499798571204633
7035.5778255254745,0.004433493119136756,0.005579379112393482
7035.57882529769,0.004372397286630239,0.005662449565864468
7035.5798250699045,0.004317462872129608,0.005748461017174806
7035.58082484212,0.004269110938651983,0.005836923663411109
7035.581824614335,0.004227648173632807,0.005927395112124518
7035.582824386551,0.004193270467639773,0.006019467790585257
7035.583824158766,0.004166068688405451,0.00611275605893707
7035.584823930982,0.004146036253672876,0.00620688351472786
7035.585823703196,0.004133078008390779,0.006301470856062094
7035.586823475412,0.0041270198446448966,0.006396124588421487
7035.587823247627,0.004127618509573447,0.006490426836945407
7035.5888230198425,0.004134571166094332,0.006583926549542348
7035.589822792058,0.004147524478341813,0.006676132412704358
7035.5908225642725,0.004166083192031704,0.006766507802279228
7035.591822336488,0.004189818282512324,0.0068544680280028915
7035.592822108703,0.004218274745208424,0.006939380028260857
7035.593821880919,0.004250979060313587,0.007020564579765495
7035.594821653134,0.00428744632760793,0.0070973010322316
7035.59582142535,0.00432718705713217,0.0071688345495448825
7035.596821197564,0.004369713608756566,0.007234385804334174
7035.59782096978,0.004414546281751156,0.007293163019241093
7035.598820741995,0.004461219057571563,0.0073443761993947304
7035.5998205142105,0.004509284988697247,0.00738725337151023
7035.600820286426,0.004558321184150926,0.007421058601249965
7035.60182005864,0.004607933267866737,0.007445111458703429
7035.602819830856,0.004657759123330761,0.007458807444191917
7035.603819603071,0.0047074717251968665,0.007461638706237415
7035.604819375287,0.004756780872270921,0.0074532142117099106
7035.605819147502,0.004805433630499191,0.007433278412210456
7035.606818919718,0.004853213280517967,0.007401727461339843
7035.607818691932,0.004899936602064993,0.007358622195620738
7035.608818464148,0.0049454494519560075,0.007304197315840572
7035.609818236363,0.00498962078795231,0.007238866388307953
7035.6108180085785,0.005032335518887638,0.007163222400663932
7035.611817780794,0.005073486765218963,0.007078033708057212
7035.612817553008,0.005112968220668274,0.00698423535838565
7035.613817325224,0.005150667273382373,0.0068829160166382075
7035.614817097439,0.005186459405378618,0.006775300978536393
7035.615816869655,0.005220204210651652,0.006662731978953375
7035.61681664187,0.005251743199170925,0.006546644583320226
7035.617816414086,0.0052808993988524245,0.006428543904687861
7035.6188161863,0.0053074786398303,0.00630997928524733
7035.619815958516,0.005331272310486036,0.0061925184794947505
7035.620815730731,0.0053520613028157325,0.00607772178995742
7035.621815502946,0.005369620817289241,0.00596711653447842
7035.622815275162,0.005383725709796752,0.005862172188154818
7035.623815047376,0.005394156155593637,0.0057642765653772516
7035.624814819592,0.005400703529781597,0.0056747134667654445
7035.625814591807,0.0054031764926270025,0.005594642259699178
7035.626814364023,0.005401407301875179,0.005525079862206859
7035.627814136238,0.005395258362627971,0.005466885565565452
7035.628813908454,0.005384628959765959,0.005420749059761784
7035.629813680668,0.005369461988780369,0.005387181897094291
7035.630813452884,0.005349750335064295,0.005366512447449758
7035.631813225099,0.00532554241407614,0.00535888422905427
7035.632812997314,0.005296946348723235,0.005364257431956414
7035.633812769529,0.00526413235762941,0.005382413520338341
7035.634812541744,0.005227333107544133,0.005412962929081754
7035.63581231396,0.005186841941393764,0.0054553559367751196
7035.636812086175,0.005143008974024454,0.005508896737233853
7035.637811858391,0.005096235092331175,0.005572760570482278
7035.638811630606,0.005046963974618202,0.005646013570769558
7035.639811402822,0.0049956723638407115,0.005727634785276849
7035.640811175036,0.0049428589444492806,0.005816539638730496
7035.641810947252,0.004889032245619249,0.005911603987559781
7035.642810719467,0.0048346980287532195,0.006011687835636215
7035.643810491682,0.00478034664125127,0.006115657770680224
7035.644810263897,0.00472644084219888,0.006222407215151399
7035.645810036112,0.0046734046049542385,0.0063308736780352095
7035.646809808328,0.004621613346791385,0.00644005239682998
7035.647809580543,0.004571385937451991,0.006549006101726143
7035.648809352759,0.00452297874647738,0.006656871033089757
7035.649809124974,0.004476581932763916,0.006762859652114578
7035.650808897189,0.004432318132267739,0.006866260639733204
7035.651808669404,0.004390243619134592,0.0069664368296396845
7035.65280844162,0.004350351897893066,0.007062821722675351
7035.653808213835,0.004312579562696567,0.007154915189018232
7035.65480798605,0.004276814161400902,0.00724227888149479
7035.655807758265,0.004242903723134247,0.007324531767904107
7035.65680753048,0.0042106675348324045,0.007401346045739216
7035.657807302696,0.004179907696381179,0.007472443547100861
7035.658807074911,0.004150420966492815,0.007537592626924466
7035.659806847127,0.00412201042794005,0.007596605485840033
7035.660806619342,0.004094496528491158,0.007649335871242949
7035.661806391557,0.004067727086963901,0.007695677072764283
7035.662806163772,0.004041585914743746,0.007735560089360402
7035.663805935988,0.004015999813117879,0.007768951826331568
7035.664805708203,0.003990943848755226,0.007795853169776983
7035.665805480418,0.003966444931558006,0.007816296773024633
7035.666805252633,0.003942583777530903,0.007830344420835838
7035.667805024848,0.003919495332995173,0.007838083942732358
7035.668804797064,0.003897367696052563,0.007839625766341082
7035.669804569279,0.0038764395295748984,0.007835099260702728
7035.670804341495,0.0038569959439144976,0.007824649031000372
7035.67180411371,0.0038393628587321507,0.007808431345256476
7035.672803885925,0.003823899928338083,0.007786610894035235
7035.67380365814,0.0038109921951428923,0.007759358058336769
7035.674803430356,0.0038010406834782,0.007726846797040943
7035.675803202571,0.0037944521594985786,0.0076892532204433026
7035.676802974786,0.003791628284416959,0.007646754891552118
7035.677802747001,0.0037929543944713482,0.007599530819516988
7035.678802519216,0.0037987881490284614,0.007547761938439516
7035.679802291432,0.003809448278980613,0.007491631656857839
7035.680802063647,0.003825203628785006,0.0074313259368811255
7035.681801835863,0.003846262637190974,0.007367032424118157
7035.682801608078,0.003872763380156924,0.007298938419728631
7035.683801380293,0.0039047643183177045,0.00722722785418459
7035.684801152508,0.003942235938202497,0.0071520777125809835
7035.685800924724,0.003985053528852229,0.007073654457564889
7035.686800696939,0.004032991361758048,0.006992110903435528
7035.687800469154,0.004085718512061639,0.006907583802328991
7035.688800241369,0.004142796475502664,0.0068201922090605
7035.689800013584,0.004203678645485152,0.00673003656076107
7035.6907997858,0.004267711681141471,0.006637198373046705
7035.691799558015,0.004334138852587758,0.006541740515458346
7035.692799330231,0.004402105562204194,0.006443708138633081
7035.693799102446,0.004470667331912536,0.006343130400317616
7035.694798874661,0.004538800547989055,0.006240023108250033
7035.695798646876,0.004605416154652772,0.006134392270248903
7035.696798419092,0.0046693763233685666,0.006026238395805267
7035.697798191307,0.004729513947534294,0.005915561313512
7035.698797963521,0.004784654654126517,0.005802365271382326
7035.699797735737,0.0048336408883928915,0.0056866641228667195
7035.700797507952,0.004875357500639102,0.005568486416492075
7035.701797280168,0.0049087581282808886,0.005447880200268034
7035.702797052383,0.004932891510296872,0.00532491737105681
7035.703796824599,0.0049469267069603895,0.005199697473438879
7035.704796596814,0.0049501760767261815,0.005072350942306931
7035.705796369029,0.0049421148582802065,0.004943041824026124
7035.706796141244,0.004922396368083694,0.004811969998276337
7035.707795913459,0.004890862131651659,0.004679372913132493
7035.708795685675,0.004847546623522648,0.004545526875196316
7035.709795457889,0.004792676589193356,0.004410747977509113
7035.710795230105,0.0047266651375724045,0.004275392752505788
7035.71179500232,0.00465010098070774,0.004139858588258468
7035.712794774536,0.004563733391246175,0.004004583866161933
7035.713794546751,0.004468453603017598,0.0038700477076893873
7035.714794318967,0.004365273443909947,0.003736769189119435
7035.715794091181,0.00425530197484172,0.003605305903844756
7035.716793863397,0.004139720865717608,0.0034762518072497385
7035.717793635612,0.004019759201291397,0.0033502343504957467
7035.718793407827,0.0038966683817940645,0.0032279109893445395
7035.719793180043,0.0037716977574688807,0.0031099652354366343
7035.720792952257,0.0036460715957869912,0.0029971024752313375
7035.721792724473,0.0035209679126771945,0.0028900457845012994
7035.722792496688,0.003397499615106995,0.002789531908633536
7035.723792268904,0.0032766983197043413,0.00269630749250183
7035.724792041119,0.0031595011298255014,0.0026111255683866643
7035.725791813335,0.0030467405596981117,0.0025347422583541328
7035.726791585549,0.00293913768630434,0.002467913601988653
7035.7277913577645,0.002837298493828165,0.0024113923718775874
7035.72879112998,0.0027417132649066615,0.002365924702309764
7035.729790902195,0.0026527587868453713,0.0023322463444515823
7035.730790674411,0.002570703086892236,0.002311078366903219
7035.731790446625,0.0024957123747509848,0.0023031221324857206
7035.732790218841,0.0024278598391082595,0.002309053397805025
7035.733789991056,0.0023671359192450774,0.0023295154022440093
7035.734789763272,0.002313459653961893,0.002365110838546447
7035.735789535487,0.0022666906934433154,0.002416392630729357
7035.736789307703,0.0022266415536705067,0.0024838534858712975
7035.737789079917,0.00219308971877377,0.0025679142286392257
7035.7387888521325,0.0021657892570268594,0.0026689109689814927
7035.739788624348,0.0021444816857324597,0.0027870812057584882
7035.740788396563,0.002128905876513448,0.002922549054363236
7035.741788168779,0.002118806836811724,0.003075309910289362
7035.742787940993,0.002113943249761467,0.003245214994427618
7035.743787713209,0.002114093712174803,0.003431956333075243
7035.744787485424,0.0021190616726449387,0.003635052792702455
7035.74578725764,0.0021286791175061945,0.0038538378167711747
7035.746787029855,0.0021428090645365483,0.004087449497168192
7035.747786802071,0.002161346908471919,0.004334823558140114
7035.748786574285,0.0021842206379680635,0.004594689747250796
7035.7497863465005,0.0022113899182669944,0.004865572026551949
7035.750786118716,0.0022428440017906413,0.00514579284191097
7035.751785890931,0.0022785983955783055,0.0054334816193991236
7035.752785663147,0.0023186902011918626,0.0057265874970362
7035.753785435361,0.0023631720622808807,0.006022896163331294
7035.754785207577,0.0024121047041628578,0.006320050570301992
7035.755784979792,0.0024655481248543336,0.006615575233892664
7035.756784752008,0.0025235515942953787,0.0069069038153245
7035.757784524223,0.002586142723602038,0.007191409683046576
7035.758784296439,0.002653315961273588,0.007466439197913468
7035.759784068653,0.002725020949336467,0.007729347533525595
7035.7607838408685,0.002801151223948427,0.00797753689023633
7035.761783613084,0.0028815337641958827,0.008208496940965359
7035.762783385299,0.0029659198787882557,0.008419847242313492
7035.763783157514,0.0030539778830902782,0.00860938115684621
7035.764782929729,0.003145287966668604,0.00877511058532498
7035.765782701945,0.0032393395853198043,0.008915310537154428
7035.76678247416,0.003335531632235987,0.009028562310658255
7035.767782246376,0.0034331755488500914,0.009113793877161422
7035.768782018591,0.0035315014192179926,0.00917031605145289
7035.769781790807,0.0036296669554649803,0.00919785320772026
7035.770781563021,0.0037267691559221094,0.00919656756708267
7035.7717813352365,0.0038218583400254965,0.009167076295499647
7035.772781107452,0.003913954239829633,0.009110460729770172
7035.773780879667,0.004002063819939445,0.009028267023703662
7035.774780651882,0.004085200463066027,0.008922497479167941
7035.775780424097,0.004162404086403853,0.008795591915632518
7035.776780196313,0.004232761668199571,0.008650398719218983
7035.777779968528,0.004295427601227567,0.008490135689997902
7035.778779740744,0.004349643282026474,0.008318341345732906
7035.779779512959,0.004394755405194797,0.008138817763627852
7035.780779285174,0.004430232541750872,0.007955566261208956
7035.781779057389,0.004455679689604334,0.007772717288108957
7035.7827788296045,0.004470850545706332,0.0075944559402980295
7035.78377860182,0.004475657252894962,0.007424944601467546
7035.784778374035,0.004470177345778652,0.007268244370941897
7035.78577814625,0.004454657601558612,0.007128237088796433
7035.786777918465,0.004429514526811724,0.007008549824628623
7035.787777690681,0.004395331282111698,0.006912483603835851
7035.788777462896,0.004352850940032482,0.006842947924204838
7035.789777235112,0.004302966074516496,0.006802402335477318
7035.790777007327,0.004246704804263786,0.0067928060796359525
7035.791776779542,0.004185213578429445,0.006815576543641225
7035.792776551757,0.004119737183372802,0.006871557055631505
7035.793776323972,0.004051596607503385,0.006960994362291478
7035.794776096188,0.003982165481198038,0.007083525970351783
7035.795775868403,0.003912845815989136,0.007238177417048096
7035.796775640618,0.0038450437284183007,0.007423369437877796
7035.797775412833,0.003780145757139134,0.007636934924652658
7035.798775185049,0.003719496268717618,0.007876145529599362
7035.799774957264,0.003664376313579281,0.008137747768308534
7035.80077472948,0.003615984162673439,0.008418008458224773
7035.801774501695,0.003575417653607838,0.008712769241713707
7035.80277427391,0.0035436584261473105,0.009017509762755858
7035.803774046125,0.00352155813420673,0.009327418820100216
7035.80477381834,0.00350982675187626,0.009637472554558343
7035.805773590556,0.0035090230965406847,0.009942518490315334
7035.806773362771,0.0035195476498055362,0.010237364072715683
7035.807773134986,0.003541637684620895,0.010516868223991133
7035.808772907201,0.0035753646460536114,0.01077603431672424
7035.809772679417,0.003620633713581881,0.011010102766960272
7035.810772451632,0.003677185483139843,0.011214641146757116
7035.811772223848,0.0037445997036413526,0.011385629374311352
7035.812771996063,0.0038223009628526026,0.011519537318372589
7035.813771768278,0.003909566172354782,0.011613392230654454
7035.814771540493,0.0040055336912519545,0.011664833840106583
7035.815771312708,0.004109213945898282,0.01167215555337692
7035.816771084924,0.0042195014151684895,0.011634330810511467
7035.817770857139,0.004335187857796044,0.01155102419962667
7035.818770629354,0.004454976687685651,0.011422587522337047
7035.819770401569,0.0045774984502552005,0.011250041644511292
7035.820770173785,0.0047013273659019285,0.011035045527771898
7035.821769946,0.00482499884584751,0.010779854127511968
7035.822769718216,0.004947027777104779,0.010487266809821922
7035.823769490431,0.005065927292273294,0.01016056774490532
7035.8247692626455,0.005180227751596497,0.009803459642084279
7035.825769034861,0.005288495778998998,0.009419992342130734
7035.826768807076,0.005389353354188875,0.009014488070812225
7035.827768579292,0.0054814970774775375,0.008591465350635055
7035.828768351506,0.005563717725961043,0.00815556353952122
7035.829768123722,0.005634920110049527,0.007711469773181043
7035.830767895937,0.005694143070941941,0.007263849844026107
7035.831767668153,0.005740579286613397,0.006817284290408935
7035.832767440368,0.005773594407053468,0.006376210670864876
7035.833767212584,0.005792744936841967,0.005944872648998171
7035.834766984799,0.005797794226286134,0.005527276146979442
7035.8357667570135,0.005788725890440278,0.005127152490153366
7035.836766529229,0.005765753914760739,0.004747928212934408
7035.837766301444,0.00572932865387585,0.004392701062640334
7035.83876607366,0.005680137974042235,0.004064221720647803
7035.839765845874,0.005619102991885689,0.0037648808139606723
7035.84076561809,0.0055473681863339305,0.00349670085747599
7035.841765390305,0.005466285999928671,0.003261332811685875
7035.842765162521,0.005377396301293347,0.0030600569526850305
7035.843764934736,0.005282401225141115,0.0028937877375990826
7035.844764706952,0.005183135988902582,0.002763082323606759
7035.845764479166,0.005081536377685895,0.00266815237580398
7035.8467642513815,0.004979603721658539,0.0026088787803121693
7035.847764023597,0.00487936832598535,0.0025848288598281973
7035.848763795812,0.004782852383934949,0.0025952756672151613
7035.849763568028,0.004692033366598165,0.002639218910261018
7035.850763340242,0.004608808754815676,0.002715407043011476
7035.851763112458,0.004534962817122064,0.0028223600499389964
7035.852762884673,0.00447213599609064,0.0029583924431847695
7035.853762656889,0.004421797364822743,0.003121635991544302
7035.854762429104,0.004385220537634657,0.0033100617269369807
7035.85576220132,0.004363463329976731,0.00352150085312952
7035.856761973534,0.004357351341762882,0.0037536643019599842
7035.8577617457495,0.004367465496948004,0.00400416080720053
7035.858761517965,0.0043941334472851245,0.004270513469719734
7035.85976129018,0.004437424670072328,0.00455017487468116
7035.860761062396,0.0044971490495793265,0.004840540904696915
7035.86176083461,0.004572858693593595,0.0051389634637974396
7035.862760606826,0.0046638526870408144,0.005442762373333029
7035.863760379041,0.004769184454660535,0.0057492367389805265
7035.864760151257,0.004887671438373957,0.006055676138450847
7035.865759923472,0.005017906918066931,0.006359372016489462
7035.866759695688,0.005158274008700905,0.006657629651326923
7035.867759467902,0.005306962093932743,0.006947780979846109
7035.8687592401175,0.00546198611296594,0.00722719849333376
7035.869759012333,0.005621209133270663,0.0074933103818820065
7035.870758784548,0.005782368516706598,0.007743617093280049
7035.871758556764,0.00594310577807186,0.007975709422068683
7035.872758328978,0.006101000015257869,0.008187288117998945
7035.873758101194,0.006253604598716562,0.008376184816413518
7035.874757873409,0.006398486630913918,0.008540383893751887
7035.875757645625,0.006533268491317326,0.008678044698788545
7035.87675741784,0.006655670570321638,0.008787523581848264
7035.877757190056,0.006763554099726325,0.008867395293341062
7035.87875696227,0.006854962840529646,0.008916473585178214
7035.879756734485,0.006928162321688462,0.008933831052682015
7035.880756506701,0.006981675372043662,0.008918818278142207
7035.881756278916,0.007014312862969881,0.008871082202427445
7035.882756051132,0.0070251988371406214,0.008790583443634736
7035.883755823346,0.007013789452078911,0.008677612049271343
7035.884755595562,0.006979885336006778,0.008532800932800835
7035.885755367777,0.006923637023208161,0.008357136053773471
7035.886755139993,0.006845543180308954,0.008151962324052558
7035.887754912208,0.006746441474270303,0.007918984315199298
7035.888754684424,0.0066274922404356675,0.0076602610929447975
7035.889754456638,0.006490155522125634,0.007378194821670201
7035.890754228853,0.006336162397452828,0.007075513060975688
7035.891754001069,0.006167481645500866,0.006755244891076866
7035.892753773284,0.005986282746884451,0.006420691198560097
7035.893753545499,0.0057948960931367335,0.0060753896703502645
7035.894753317714,0.005595771218737629,0.005723075269261538
7035.89575308993,0.005391433904974092,0.005367637136848898
7035.896752862145,0.005184443087734816,0.005013072926664005
7035.897752634361,0.004977348551361077,0.004663441506634318
7035.898752406576,0.004772650348769585,0.00432281482990241
7035.899752178792,0.004572760741785889,0.0039952296150424695
7035.900751951006,0.004379969237597566,0.003684639338827974
7035.901751723221,0.004196411068966368,0.0033948669568137895
7035.902751495437,0.00402403929218705,0.003129558747671936
7035.903751267652,0.003864600593183338,0.002892139715945674
7035.904751039867,0.0037196148817735934,0.002685771040845595
7035.905750812082,0.0035903587622666613,0.002513310080458746
7035.906750584298,0.0034778529468184223,0.002377273415984722
7035.907750356513,0.0033828536195890766,0.0022798033623664406
7035.908750128729,0.0033058477016398745,0.002222638298657103
7035.909749900944,0.0032470519545250193,0.0022070870913812267
7035.910749673159,0.003206415898574768,0.0022340077987953676
7035.911749445374,0.0031836285609659716,0.0023037907696490637
7035.912749217589,0.0031781290559978062,0.002416346218034383
7035.913748989805,0.003189120928403703,0.0025710963802741864
7035.91474876202,0.0032155900919941366,0.002766972422039023
7035.915748534235,0.003256326098450688,0.0030024163395944896
7035.91674830645,0.003309946378343347,0.0032753881718754958
7035.917748078666,0.0033749230083881744,0.0035833788839690355
7035.918747850881,0.003449611492559766,0.00392342927086761
7035.919747623097,0.0035322810180119387,0.004292155166534416
7035.920747395312,0.003621145651434996,0.004685779150558208
7035.921747167527,0.0037143959498340227,0.0051001688316214405
7035.922746939742,0.003810230460021627,0.005530881649624671
7035.923746711957,0.0039068865925975995,0.005973215984889946
7035.924746484173,0.0040026704037326765,0.006422268216095382
7035.925746256388,0.004095984894496188,0.006872995241670524
7035.926746028603,0.00418535649872442,0.007320281857939494
7035.927745800818,0.004269459435646305,0.007759012243645215
7035.928745573034,0.004347137553076901,0.00818414462966273
7035.929745345249,0.004417423214469875,0.00859078806481045
7035.9307451174645,0.004479552723650938,0.008974280052175442
7035.93174488968,0.00453297776292834,0.009330263705859074
7035.932744661895,0.004577372366416898,0.009654762907766
7035.93374443411,0.004612635052747732,0.009944253701211965
7035.934744206325,0.004638885849097641,0.010195729906014377
7035.935743978541,0.0046564580214004635,0.010406760822865306
7035.936743750756,0.004665884439434196,0.01057553904661273
7035.937743522971,0.004667878736370284,0.010700916818556713
7035.938743295186,0.004663311763169488,0.010782429852338132
7035.939743067402,0.004653184167565071,0.010820308027201995
7035.940742839617,0.0046385961158502895,0.010815472766822255
7035.9417426118325,0.004620715185497221,0.010769521357266106
7035.942742384048,0.004600743350835032,0.01068469884978353
7035.943742156263,0.004579883865410043,0.01056385844067474
7035.944741928478,0.004559308778647252,0.01041041129113699
7035.945741700693,0.004540127806426194,0.010228266722319192
7035.946741472909,0.004523359266018637,0.010021763742658486
7035.947741245124,0.004509903762808525,0.009795595057773155
7035.948741017339,0.004500521280467408,0.009554725044624637
7035.949740789554,0.004495812277897352,0.009304303449223705
7035.95074056177,0.004496203321218929,0.009049576628340604
7035.951740333985,0.0045019376617609266,0.008795798015867284
7035.9527401062005,0.004513071015122014,0.008548139273390631
7035.953739878416,0.0045294726272113815,0.008311603376091051
7035.954739650631,0.004550831554872815,0.008090940734622949
7035.955739422846,0.0045766679448394736,0.007890569368164973
7035.956739195061,0.004606348955067861,0.007714500096141019
7035.957738967277,0.004639108822733566,0.0075662676910860545
7035.958738739491,0.004674072451736872,0.0074488689483876115
7035.959738511707,0.004710281777187734,0.007364708667629503
7035.960738283922,0.0047467240670708835,0.007315554547646469
7035.961738056138,0.004782361258203099,0.0073025019386718645
7035.962737828353,0.0048161594257867925,0.0073259492860903285
7035.9637376005685,0.004847117556006636,0.007385584961142797
7035.964737372784,0.004874294881254424,0.007480386002797758
7035.965737144999,0.00489683609411757,0.007608629097716593
7035.966736917214,0.004913993765741408,0.0077679139345333235
7035.967736689429,0.004925147281220119,0.007955198908580638
7035.968736461645,0.004929817627783032,0.008166848998902226
7035.969736233859,0.004927677511423225,0.008398695443843635
7035.970736006075,0.004918556561461204,0.008646106591781201
7035.97173577829,0.004902441720022041,0.008904069021164649
7035.972735550506,0.0048794731673026115,0.009167277726304586
7035.973735322721,0.004849936246977001,0.009430233856702977
7035.9747350949365,0.00481424986631703,0.009687348183330216
7035.975734867151,0.0047729518047585325,0.009933048148969911
7035.976734639366,0.004726681311930206,0.010161886044276472
7035.977734411582,0.004676159368226878,0.010368645569315594
7035.978734183797,0.004622167076183688,0.01054844389271541
7035.979733956013,0.004565522841433583,0.010696826435655026
7035.980733728227,0.004507059194995807,0.010809851997701809
7035.981733500443,0.004447600196280679,0.010884166325654676
7035.982733272658,0.004387940299211837,0.010917062598311805
7035.983733044874,0.004328825402176401,0.010906527555374072
7035.984732817089,0.004270936601876896,0.010851272308060893
7035.9857325893045,0.00421487697799574,0.010750747344581943
7035.986732361519,0.004161161575214892,0.010605141826219107
7035.987732133734,0.0041102106373739076,0.010415367820522934
7035.98873190595,0.004062346082739676,0.010183030529293079
7035.989731678165,0.004017791158728102,0.00991038580447819
7035.990731450381,0.0039766731436789915,0.009600286359127385
7035.991731222595,0.003939028862953642,0.009256118193106481
7035.992730994811,0.0039048126716478013,0.008881728949222744
7035.993730767026,0.0038739064504447114,0.00848135016959832
7035.994730539242,0.003846131084510134,0.008059515633817014
7035.995730311457,0.003821258852415742,0.007620978028225424
7035.996730083672,0.0037990261430190866,0.007170626072443185
7035.997729855887,0.0037791459603592876,0.006713403951885045
7035.998729628102,0.003761319785816839,0.006254234572134673
7035.999729400318,0.003745248516846733,0.005797947847465178
7036.000729172533,0.003730642331914895,0.0053492149862298
7036.001728944749,0.0037172294020460083,0.004912489520914005
7036.002728716963,0.0037047633916860246,0.004491955626961876
7036.003728489179,0.003693029697913122,0.004091484074600032
7036.004728261394,0.0036818503850923686,0.0037145959672491517
7036.00572803361,0.0036710877887285226,0.0033644342446947626
7036.006727805825,0.0036606467967085637,0.00304374276621037
7036.00772757804,0.003650475867920012,0.0027548526337463903
7036.008727350255,0.0036405668955038187,0.002499675278341288
7036.00972712247,0.003630954040140309,0.0022797017384297443
7036.010726894686,0.0036217116508817956,0.0020960075228499348
7036.011726666901,0.00361295138401808,0.0019492624624830072
7036.012726439117,0.0036048186345133313,0.001839744979512406
7036.013726211331,0.0035974883882133567,0.0017673602164787329
7036.014725983547,0.0035911605720941194,0.0017316614661066158
7036.015725755762,0.003586054943267445,0.0017318743350202676
7036.0167255279775,0.0035824055365134303,0.001766923068222165
7036.017725300193,0.003580454684706316,0.0018354584698709036
7036.018725072408,0.003580446635144688,0.0019358868886534342
7036.019724844623,0.0035826208085862786,0.002066399784056565
7036.020724616838,0.00358720476869625,0.002225003439110999
7036.021724389054,0.0035944069651233316,0.002409548436150843
7036.022724161269,0.003604409299759202,0.0026177585697568975
7036.023723933484,0.0036173595957037273,0.0028472589290245323
7036.024723705699,0.0036333641494743266,0.003095602933133649
7036.025723477915,0.003652480675618202,0.003360298151489324
7036.02672325013,0.0036747120323263782,0.003638830777417282
7036.0277230223455,0.003700001110115841,0.003928688643605205
7036.028722794561,0.0037282271926374418,0.004227382678736913
7036.029722566776,0.0037592040013035137,0.004532466734062557
7036.030722338991,0.00379267955420671,0.004841555770231379
7036.031722111206,0.0038283379268952886,0.005152342478378426
7036.032721883422,0.003865802985131974,0.005462612484645174
7036.033721655637,0.003904644135296792,0.005770258320520919
7036.034721427852,0.0039443840925738076,0.00607329231791118
7036.035721200067,0.003984508613383132,0.006369858512411998
7036.036720972283,0.004024478089104605,0.006658243530726564
7036.037720744498,0.004063740843068228,0.0069368863431208145
7036.0387205167135,0.004101747888762891,0.007204386723789286
7036.039720288929,0.0041379687845558314,0.007459512267828104
7036.040720061144,0.004171908076884002,0.007701203800690728
7036.041719833359,0.004203121693861747,0.007928578952739018
7036.042719605574,0.004231232567014457,0.008140933593850527
7036.04371937779,0.004255944742414638,0.00833774078463664
7036.044719150005,0.004277055297077117,0.008518646912875488
7036.04571892222,0.004294463484740489,0.008683464734145805
7036.046718694435,0.004308176674609773,0.008832163157847527
7036.047718466651,0.004318312803443138,0.008964853871577489
7036.048718238866,0.0043250992284999635,0.009081775239331805
7036.0497180110815,0.004328868036919589,0.00918327418584407
7036.050717783297,0.004330048020301125,0.009269786862778023
7036.051717555512,0.004329153647270801,0.009341818790874057
7036.052717327727,0.004326771453756893,0.009399924979233537
7036.053717099942,0.0043235443159501934,0.009444690330130226
7036.054716872158,0.004320154080386111,0.009476710507324489
7036.055716644373,0.0043173030161200564,0.009496573411920263
7036.056716416588,0.0043156945354853316,0.009504841474274908
7036.057716188803,0.004316013610061423,0.009502035106624188
7036.058715961019,0.0043189073099015665,0.009488617833139678
7036.059715733234,0.0043249659338956345,0.00946498379222515
7036.0607155054495,0.0043347052629037555,0.00943144845709942
7036.061715277665,0.004348550519618027,0.009388243494610553
7036.062715049879,0.004366822621971139,0.009335516622129789
7036.063714822095,0.00438972724400365,0.009273337100761699
7036.06471459431,0.004417347057277155,0.00920170714783758
7036.065714366526,0.004449637362311772,0.009120579137351356
7036.066714138741,0.0044864251828168585,0.00902987805767553
7036.067713910956,0.004527411803805568,0.008929528332570302
7036.068713683171,0.004572178669528987,0.008819483761163342
7036.069713455387,0.004620196489036655,0.008699759003105573
7036.070713227602,0.004670837315815901,0.008570460808695774
7036.0717129998175,0.004723389294649558,0.00843181717122971
7036.072712772033,0.004777073738457778,0.008284202777905753
7036.073712544247,0.0048310642155098334,0.008128159452753326
7036.074712316463,0.004884507346011589,0.007964410583487659
7036.075712088678,0.004936544967445217,0.0077938687691643084
7036.076711860894,0.004986337216808359,0.007617636198641985
7036.077711633109,0.00503308593175383,0.007436997645506802
7036.078711405324,0.005076057632158409,0.007253406409421584
7036.079711177539,0.005114605222794523,0.007068463923135133
7036.080710949755,0.005148187471992022,0.006883893957208566
7036.08171072197,0.005176385332032888,0.006701512365228788
7036.082710494185,0.0051989143512862195,0.006523193229066909
7036.083710266401,0.005215632777229206,0.006350832258728095
7036.084710038615,0.005226545332978349,0.0061863084539993006
7036.085709810831,0.00523180291257305,0.006031445246969764
7036.086709583046,0.00523169852984416,0.005887972445684975
7036.087709355262,0.005226659840431025,0.005757490217726558
7036.088709127476,0.005217238530823752,0.00564143614499112
7036.089708899692,0.005204096875695268,0.0055410561417387726
7036.090708671907,0.00518799181081539,0.005457379819196357
7036.091708444123,0.005169756954298242,0.0053912007208782795
7036.092708216338,0.005150283116604917,0.0053430617288962815
7036.093707988553,0.0051304979210068285,0.005313245821620594
7036.094707760769,0.005111345163118926,0.00530177222287562
7036.095707532983,0.005093764459858153,0.005308397821406928
7036.096707305199,0.005078671602456989,0.005332623579374251
7036.097707077414,0.005066939879025146,0.005373705520788956
7036.09870684963,0.005059382502302159,0.00543066981546035
7036.099706621844,0.00505673617387261,0.005502331458171626
7036.10070639406,0.005059645735898843,0.005587316075344189
7036.101706166275,0.00506864982997074,0.005684084430978021
7036.1027059384905,0.005084167547332891,0.005790959202318323
7036.103705710706,0.005106486233426363,0.005906153546185177
7036.104705482921,0.00513575084356538,0.006027800913963567
7036.105705255136,0.005171955424321236,0.006153985542244239
7036.106705027351,0.00521493733621153,0.0062827730857788165
7036.107704799567,0.005264374741057312,0.006412240970837771
7036.108704571782,0.005319787714384306,0.0065405081569018956
7036.109704343998,0.005380543169585004,0.006665764003361212
7036.110704116212,0.005445863620188568,0.006786295824819975
7036.111703888428,0.0055148396605940245,0.00690051455964301
7036.112703660643,0.005586445913529358,0.007006977868636417
7036.1137034328585,0.005659560064671323,0.007104409982354467
7036.114703205074,0.005732984455283532,0.0071917177239016385
7036.115702977289,0.005805469526181838,0.007268002284166433
7036.116702749504,0.005875738259073533,0.007332566442377738
7036.117702521719,0.005942510741041677,0.007384917011265271
7036.118702293935,0.006004528123988392,0.007424762432910458
7036.11970206615,0.006060575487941748,0.0074520057015375896
7036.120701838366,0.006109503312294437,0.007466733045824998
7036.12170161058,0.006150247330550729,0.007469198941822827
7036.122701382796,0.006181846515636131,0.0074598080669278964
7036.123701155011,0.006203458905715637,0.007439094868748911
7036.1247009272265,0.006214375003673629,0.007407701547097654
7036.125700699442,0.006214028563285702,0.007366355330026356
7036.126700471657,0.00620200468342855,0.007315845865694442
7036.127700243872,0.006178045272676734,0.0072570033719040845
7036.128700016087,0.00614205211708732,0.007190677994744052
7036.129699788303,0.006094087915597737,0.007117720723447281
7036.130699560518,0.006034375659298252,0.007038966197709636
7036.131699332734,0.005963296623111992,0.006955217748020965
7036.132699104948,0.005881387080094676,0.0068672349515990164
7036.133698877164,0.0057893336914558585,0.006775723868820911
7036.134698649379,0.005687967390934297,0.006681330004159636
7036.1356984215945,0.005578255513740812,0.006584633939091218
7036.13669819381,0.005461291968020829,0.006486149487977763
7036.137697966025,0.005338285394346014,0.00638632411007777
7036.13869773824,0.00521054542609668,0.006285541201259753
7036.139697510455,0.005079467285557283,0.00618412384239798
7036.140697282671,0.004946515012774066,0.00608233960826172
7036.141697054886,0.004813203635118518,0.005980406083403911
7036.142696827102,0.00468108055801586,0.005878496720860577
7036.143696599316,0.004551706425443634,0.005776746618651928
7036.144696371532,0.0044266357200495555,0.005675257771797223
7036.145696143747,0.004307397476907649,0.0055741034737742
7036.1466959159625,0.004195476619474958,0.005473331765592575
7036.147695688178,0.004092296491247493,0.005372968042250107
7036.148695460393,0.003999203104064309,0.005273017043792053
7036.149695232608,0.003917451492659446,0.00517346450636865
7036.150695004823,0.0038481944202321244,0.005074278788065371
7036.151694777039,0.003792473554322596,0.0049754128281749785
7036.152694549254,0.0037512131248479126,0.004876806814844482
7036.153694321469,0.0037252159760958626,0.004778391891085254
7036.154694093684,0.00371516182422731,0.004680095119495488
7036.1556938659,0.0037216074262461677,0.004581845784624685
7036.156693638115,0.003744988255437135,0.0044835829783985304
7036.1576934103305,0.003785621176925194,0.004385264292819659
7036.158693182546,0.003843707552301179,0.00428687531156651
7036.159692954761,0.003919336190871524,0.00418843945093093
7036.160692726976,0.004012485608894035,0.0040900276019058355
7036.161692499191,0.004123025163054649,0.0039917670221685676
7036.162692271407,0.004250714790619685,0.0038938490208134577
7036.163692043622,0.004395203283612747,0.003796535124428837
7036.164691815837,0.004556025199404641,0.0037001615593096056
7036.165691588052,0.004732596636674463,0.003605141996517233
7036.166691360268,0.004924210178238092,0.003511968565425423
7036.167691132483,0.005130029332866299,0.0034212111526733115
7036.168690904698,0.005349082835786365,0.0033335150062244155
7036.169690676914,0.0055802592440684015,0.003249596704917308
7036.170690449128,0.005822302406311266,0.003170238636043197
7036.171690221344,0.00607380855074122,0.003096282203570806
7036.172689993559,0.006333225840779905,0.003028620025422605
7036.173689765775,0.0065988572328026405,0.002968187359056584
7036.17468953799,0.006868867337487461,0.0029159529330134164
7036.175689310205,0.0071412937818685724,0.0028729092775231294
7036.17668908242,0.00741406334756842,0.0028400625560521223
7036.177688854636,0.007685012956524141,0.0028184218205821007
7036.178688626851,0.007951915398018539,0.0028089875779761637
7036.179688399066,0.008212509515078176,0.002812739584505388
7036.180688171282,0.008464534355116083,0.002830623857270874
7036.181687943496,0.008705766528787328,0.0028635389537263476
7036.182687715712,0.008934059736600206,0.0029123215969511997
7036.183687487927,0.009147385150288208,0.002977731727945009
7036.184687260143,0.009343871118773715,0.003060437071757432
7036.185687032358,0.009521840560761208,0.003160997327820867
7036.186686804573,0.009679844459822347,0.003279848151347633
7036.187686576788,0.00981669012035949,0.003417285192646311
7036.188686349004,0.009931463228479466,0.003573448581493353
7036.189686121219,0.010023543141400304,0.0037483083277973757
7036.190685893434,0.010092611033228205,0.003941651120932005
7036.19168566565,0.01013865052674585,0.004153068960708178
7036.192685437864,0.01016194040813482,0.004381949973019504
7036.19368521008,0.010163039183360078,0.004627471673149314
7036.194684982295,0.01014276169935876,0.004888596859948142
7036.195684754511,0.010102148726150492,0.005164072278903026
7036.196684526726,0.010042431034569171,0.005452430196612315
7036.197684298941,0.009964989868658446,0.005751993079062436
7036.198684071156,0.009871315716385932,0.006060881628122121
7036.199683843372,0.009762967020190663,0.006377026446266969
7036.200683615587,0.009641530106653962,0.006698183520924575
7036.201683387802,0.00950858128745373,0.007021953545200678
7036.202683160018,0.009365651862960253,0.007345804871164695
7036.203682932232,0.009214196655607371,0.007667099714876873
7036.204682704448,0.009055566672578345,0.007983123185216781
7036.205682476663,0.008890986489378794,0.008291114804189634
7036.206682248879,0.008721536917848329,0.00858830234213037
7036.207682021094,0.00854814344828312,0.008871937895518166
7036.208681793309,0.008371570811001611,0.009139336130631419
7036.209681565524,0.0081924237853902,0.009387914519247309
7036.21068133774,0.008011154128487583,0.009615235250258517
7036.211681109955,0.007828073237026873,0.009819048338411672
7036.21268088217,0.007643369901344352,0.00999733525913183
7036.213680654386,0.0074571322515623,0.010148352214076136
7036.2146804266,0.007269372762918456,0.010270671906303205
7036.215680198816,0.007080055033101462,0.010363222506663182
7036.216679971031,0.006889121009188086,0.010425322334148383
7036.217679743247,0.0066965174249858294,0.0104567086733757
7036.218679515461,0.006502220377251648,0.010457559137283771
7036.219679287677,0.006306257158165077,0.010428504048481443
7036.220679059892,0.006108724612471518,0.010370628476162507
7036.221678832108,0.0059098034177726445,0.010285462929692202
7036.222678604323,0.005709767882196905,0.010174962361239626
7036.223678376538,0.005508991147438172,0.010041473959571919
7036.224678148754,0.005307945991551729,0.00988769493799541
7036.225677920968,0.005107201642975997,0.009716621897414216
7036.226677693184,0.004907417126994293,0.00953149337962494
7036.227677465399,0.004709331697704528,0.00933572710634962
7036.228677237615,0.00451375287527846,0.009132853338978055
7036.229677009829,0.00432154252835794,0.00892644589448423
7036.230676782045,0.004133601370377854,0.008720052567577102
7036.23167655426,0.003950852227543002,0.008517126893909363
7036.232676326476,0.003774222483907653,0.008320963209666202
7036.233676098691,0.0036046261751721594,0.008134636777703616
7036.234675870906,0.003442946246600957,0.007960950412231741
7036.235675643121,0.003290017489737491,0.007802388632156247
7036.236675415336,0.00314661062568131,0.0076610799823142554
7036.237675187552,0.0030134179227500803,0.007538767831916678
7036.238674959767,0.002891040640445603,0.007436789725171885
7036.239674731983,0.0027799784920279924,0.007356065226562341
7036.240674504197,0.0026806212248318448,0.007297092135309946
7036.241674276413,0.0025932423463835134,0.0072599508900576875
7036.242674048628,0.0025179949894499117,0.007244316917385523
7036.243673820844,0.0024549099043544164,0.007249480576666545
7036.244673593059,0.0024038955668231926,0.0072743742003965476
7036.245673365274,0.002364740374703584,0.007317605534910921
7036.246673137489,0.0023371168774335618,0.007377496695637006
7036.247672909704,0.002320587944539525,0.007452127603417043
7036.24867268192,0.002314614734271427,0.00753938276892604
7036.249672454135,0.00231856627274376,0.007637000214706945
7036.250672226351,0.002331730405844751,0.007742621241265164
7036.251671998565,0.0023533258472845783,0.007853839648518844
7036.252671770781,0.0023825150192306422,0.007968248940995716
7036.253671542996,0.002418417376100937,0.008083486043983993
7036.254671315211,0.0024601229343585176,0.008197270228306873
7036.255671087427,0.0025067058048781794,0.008307436304349734
7036.256670859642,0.002557237610019431,0.008411961602492402
7036.257670631857,0.0026108007220511705,0.008508986664231473
7036.258670404072,0.0026665012653659986,0.008596829859445295
7036.259670176288,0.002723481796721557,0.008673996353581601
7036.260669948503,0.0027809335395918367,0.008739182027577905
7036.261669720719,0.0028381080179817504,0.008791273116604496
7036.262669492933,0.0028943279186608474,0.008829342465670012
7036.263669265149,0.0029489970007220306,0.00885264337463538
7036.264669037364,0.003001608851808305,0.00886060198871466
7036.265668809579,0.003051754257885242,0.008852809067447754
7036.266668581795,0.0030991269213552913,0.00882901176150554
7036.26766835401,0.0031435272464932495,0.008789105788672409
7036.268668126225,0.003184863925168455,0.008733128167452617
7036.26966789844,0.003223153112249391,0.00866125047705859
7036.270667670656,0.003258515082780412,0.008573772496784798
7036.271667442871,0.0032911684001547415,0.008471116030881869
7036.272667215087,0.0033214217756041917,0.008353818713027246
7036.273666987301,0.0033496639475364414,0.008222527595921885
7036.274666759517,0.003376352039663818,0.008077992392777752
7036.275666531732,0.00340199894395147,0.007921058342498268
7036.276666303947,0.0034271602900458773,0.0077526587332885375
7036.277666076163,0.0034524215035439576,0.007573807071767749
7036.278665848378,0.003478385347563554,0.0073855887938264085
7036.279665620593,0.0035056602195386185,0.007189152412328807
7036.280665392808,0.0035348493583790427,0.006985700107703238
7036.281665165024,0.0035665410062420966,0.006776477884091905
7036.282664937239,0.0036012994581069353,0.006562765455611969
7036.283664709454,0.0036396568308912853,0.0063458660259097365
7036.284664481669,0.0036821053125999413,0.006127096135152443
7036.2856642538845,0.003729089620092823,0.005907775758883881
7036.2866640261,0.0037809994057569087,0.005689218803718954
7036.287663798315,0.0038381614291521783,0.005472724044899685
7036.288663570531,0.0039008314630005333,0.005259566432446422
7036.289663342746,0.0039691860907887875,0.005050988609464546
7036.290663114961,0.004043314691659353,0.004848192462131063
7036.291662887176,0.0041232119532719404,0.004652330560225162
7036.292662659392,0.004208771233707955,0.004464497457311726
7036.293662431607,0.004299779051740434,0.004285720983058689
7036.294662203822,0.004395910929197884,0.00411695381032394
7036.295661976037,0.004496728742718815,0.003959065656490889
7036.2966617482525,0.0046016796974863525,0.0038128364833529206
7036.297661520468,0.00471009704956216,0.003678951027114903
7036.298661292683,0.0048212027738716795,0.0035579949369919307
7036.299661064899,0.004934112454138348,0.0034504527278546634
7036.300660837113,0.005047842693417848,0.0033567076653402334
7036.301660609329,0.005161321264584272,0.0032770436138681684
7036.302660381544,0.005273400051334333,0.0032116488001079136
7036.30366015376,0.00538287064252427,0.0031606213803768235
7036.304659925975,0.005488482314530159,0.0031239766420264187
7036.30565969819,0.0055889620933617995,0.003101655598361086
7036.306659470405,0.005683036595181427,0.003093534643348
7036.3076592426205,0.005769455350849926,0.0030994358268177447
7036.308659014836,0.0058470152974142,0.003119137219128953
7036.309658787051,0.005914586053605121,0.0031523827823424716
7036.310658559267,0.005971135481774818,0.003198891167617235
7036.311658331481,0.0060157548769144194,0.003258362912478466
7036.312658103697,0.006047682924834932,0.0033304855934301564
7036.313657875912,0.006066327370668011,0.003414936570772853
7036.314657648128,0.0060712832101105525,0.0035113830339540512
7036.315657420343,0.0060623462527136076,0.0036194791313471928
7036.316657192558,0.006039521161096308,0.0037388600720871883
7036.317656964773,0.0060030234953559825,0.003869133241158613
7036.3186567369885,0.005953275750825135,0.004009866582458824
7036.319656509204,0.005890897739289376,0.00416057476421691
7036.320656281419,0.0058166918892683305,0.004320703897669083
7036.321656053635,0.00573162415692821,0.004489615766146432
7036.322655825849,0.005636801285992878,0.004666572602999438
7036.323655598065,0.005533445184445953,0.0048507234485116926
7036.32465537028,0.005422865244580089,0.0050410930450210875
7036.325655142496,0.0053064295135277955,0.005236574110934164
7036.326654914711,0.005185535667474244,0.005435923688837576
7036.327654686926,0.00506158270986408,0.0056377641178822924
7036.328654459141,0.004935944203518068,0.005840589043347136
7036.3296542313565,0.0048099436942884,0.00604277472611048
7036.330654003572,0.004684832832006762,0.006242596728700731
7036.331653775787,0.004561772567421186,0.006438251831741424
7036.332653548003,0.004441817701389607,0.006627884792410256
7036.333653320217,0.0043259049703219185,0.006809619312463014
7036.334653092433,0.004214844751178948,0.006981592352353001
7036.335652864648,0.004109316348549039,0.007141990742769047
7036.336652636864,0.004009866694109597,0.00728908895615358
7036.337652409079,0.003916912172914281,0.007421286915790189
7036.338652181294,0.003830743220844534,0.007537146750115884
7036.339651953509,0.0037515313280654977,0.007635427327392834
7036.3406517257245,0.003679338123042412,0.0077151152240075
7036.34165149794,0.003614126259171117,0.007775450634377979
7036.342651270155,0.0035557718340791596,0.007815946799900232
7036.343651042371,0.003504078033598008,0.007836401862545
7036.344650814585,0.0034587896539077256,0.007836902506636132
