Time,Filtered_EMG_Bicep,Filtered_EMG_Tricep
6740.493369826205,0.0030619051222215785,0.003725519020912562
6740.494369598127,0.00303940997256832,0.0037217177046128345
6740.49536937005,0.0030159363820954107,0.003718633345029894
6740.496369141973,0.002991722198563293,0.0037161474615347773
6740.497368913896,0.002967030487477262,0.003714112438926454
6740.498368685819,0.0029421459994335673,0.003712353499287183
6740.499368457741,0.002917370766244072,0.003710671875725765
6740.500368229664,0.0028930188753133693,0.0037088491867090243
6740.501368001587,0.0028694105274545594,0.003706652935366811
6740.50236777351,0.002846865523607776,0.003703842978324775
6740.503367545432,0.0028256963566332355,0.0037001787273656605
6740.504367317355,0.002806201118922682,0.0036954267851305837
6740.505367089278,0.002788656474012666,0.0036893686817279572
6740.506366861201,0.002773310968839972,0.003681808361538586
6740.507366633124,0.002760378966814393,0.003672579062820281
6740.508366405046,0.002750035448437858,0.003661549243668435
6740.509366176969,0.002742411864189537,0.0036486272454591857
6740.510365948891,0.002737593159751578,0.0036337644573469535
6740.511365720815,0.0027356160466368755,0.0036169568503603656
6740.512365492737,0.002736468565039041,0.003598244864261736
6740.51336526466,0.0027400909677515223,0.003577711728558133
6740.514365036583,0.0027463779217156937,0.0035554803712933435
6740.515364808505,0.002755181964005244,0.0035317091190467794
6740.516364580428,0.002766318078028997,0.0035065864279518557
6740.517364352351,0.0027795692044394822,0.0034803249139801116
6740.518364124274,0.002794692481018373,0.0034531549618234017
6740.519363896196,0.0028114260046724097,0.0034253181749301486
6740.520363668119,0.0028294959146609976,0.0033970608970370023
6740.521363440042,0.002848623603501961,0.003368628008625651
6740.522363211965,0.002868532862345018,0.003340257179493425
6740.523362983888,0.0028889567573990907,0.003312173729106419
6740.52436275581,0.002909644025918933,0.0032845862102110815
6740.525362527733,0.002930364792812718,0.003257682794618244
6740.526362299655,0.0029509154470550576,0.003231628501586776
6740.527362071578,0.002971122565706666,0.003206563267709113
6740.528361843501,0.0029908458073971186,0.0031826008208174833
6740.529361615424,0.003009979705975092,0.0031598282969167763
6740.530361387347,0.0030284542991458555,0.003138306526003
6740.531361159269,0.003046234556039647,0.0031180709034812977
6740.532360931192,0.0030633186228928707,0.0030991327558488684
6740.533360703115,0.0030797349607477533,0.003081481100758384
6740.534360475038,0.0030955384844121555,0.0030650846961423747
6740.53536024696,0.0031108058330529,0.003049894284822537
6740.536360018883,0.003125629923229003,0.0030358449740895826
6740.537359790806,0.003140113960096204,0.003022858720847226
6740.538359562729,0.003154365105505566,0.003010846905020224
6740.539359334652,0.003168488013246491,0.002999712987412772
6740.540359106574,0.0031825784431274155,0.002989355281753099
6740.541358878497,0.0031967171688501313,0.002979669898831098
6740.542358650419,0.003210964406461526,0.002970553903773372
6740.543358422343,0.0032253550027846966,0.002961908658524517
6740.544358194265,0.003239894618052292,0.002953643227293465
6740.545357966188,0.0032545570986653926,0.002945677641692907
6740.546357738111,0.0032692831681438144,0.0029379457832509883
6740.547357510033,0.003283980485916853,0.002930397647525238
6740.548357281956,0.0032985250498388306,0.0029230007948728696
6740.549357053879,0.003312763853498612,0.002915740860129568
6740.550356825802,0.0033265186537006753,0.0029086210772731255
6740.551356597724,0.0033395906584637526,0.0029016608603543975
6740.552356369647,0.0033517659205598584,0.002894893561626183
6740.55335614157,0.003362821228903227,0.0028883635998259664
6740.554355913493,0.003372530321460583,0.0028821232042402782
6740.555355685416,0.0033806702653783036,0.002876229041280231
6740.556355457338,0.003387027847200285,0.0028707389807505327
6740.557355229261,0.0033914058084924745,0.002865709223870205
6740.558355001183,0.003393628763110578,0.002861191954879258
6740.559354773107,0.0033935486272899033,0.0028572335987351338
6740.560354545029,0.00339104937799213,0.0028538736876416878
6740.561354316952,0.003386050950501389,0.002851144281290749
6740.562354088875,0.003378512106878153,0.0028490698635940236
6740.563353860797,0.00336843213839807,0.002847667648815876
6740.564353632721,0.0033558512914708244,0.0028469482504435433
6740.565353404643,0.0033408498341725122,0.0028469166733719395
6740.566353176566,0.0033235457258651282,0.002847573576784287
6740.567352948488,0.00330409091767983,0.0028489167253782097
6740.568352720411,0.0032826663878803616,0.0028509425079583095
6740.569352492334,0.0032594760998524578,0.0028536473754340037
6740.570352264257,0.003234740158036592,0.0028570290629917486
6740.57135203618,0.003208687511524834,0.0028610875176788113
6740.572351808102,0.0031815485970680883,0.0028658255191273624
6740.573351580025,0.0031535483193141705,0.002871249014193987
6740.574351351947,0.003124899746584808,0.002877367171588048
6740.575351123871,0.0030957988648670958,0.0028841921276337836
6740.576350895793,0.0030664206781643197,0.002891738384636804
6740.577350667716,0.003036916859109895,0.0029000218607096707
6740.578350439639,0.003007415038455557,0.002909058651678223
6740.579350211561,0.0029780196914600725,0.002918863607122782
6740.580349983484,0.0029488144523557424,0.0029294488178230283
6740.581349755407,0.00291986557394046,0.002940822069856483
6740.58234952733,0.0028912261531735426,0.002952985269982091
6740.583349299252,0.002862940681909251,0.0029659328185460535
6740.584349071175,0.002835049485007074,0.00297964992236037
6740.585348843098,0.002807592697667651,0.0029941108956022715
6740.586348615021,0.002780613587456265,0.003009277550476686
6740.587348386944,0.0027541611769813677,0.00302509779249276
6740.588348158866,0.002728292211675888,0.003041504519262608
6740.589347930789,0.002703072539614178,0.0030584149189679067
6740.590347702711,0.0026785779625109335,0.0030757302842925028
6740.591347474635,0.0026548946065450673,0.003093336463722361
6740.592347246557,0.0026321188504796157,0.0031111050342094676
6740.59334701848,0.0026103568328927893,0.0031288952038419065
6740.594346790403,0.0025897235438638875,0.0031465563645013293
6740.595346562325,0.002570341495293489,0.0031639311375649326
6740.596346334249,0.0025523389691483275,0.0031808587189541197
6740.597346106171,0.0025358478795069607,0.003197178346098334
6740.598345878094,0.002521001344746739,0.003212732753487579
6740.599345650016,0.0025079311086717653,0.0032273715166115944
6740.600345421939,0.002496764939597517,0.003240954192450148
6740.601345193862,0.0024876240873274724,0.003253353157920517
6740.602344965785,0.0024806208303086827,0.0032644560388641083
6740.603344737708,0.0024758561257129685,0.0032741676271180286
6740.60434450963,0.0024734173837994596,0.003282411223822082
6740.605344281553,0.0024733764085721607,0.00328912943070574
6740.606344053475,0.002475787559535888,0.003294284506273025
6740.607343825399,0.0024806861816644575,0.0032978584570282432
6740.608343597321,0.002488087324394954,0.0032998530176725108
6740.609343369244,0.002497984738303884,0.003300289607853939
6740.610343141167,0.0025103501136343976,0.0032992092769144215
6740.611342913089,0.002525132519063798,0.003296672589455906
6740.612342685012,0.00254225802071685,0.0032927593683760034
6740.613342456935,0.0025616295062442017,0.0032875681921616805
6740.614342228858,0.002583126783441513,0.00328121553324164
6740.61534200078,0.002606607043527664,0.0032738344225794066
6740.616341772703,0.0026319057706139064,0.003265572543113301
6740.6173415446265,0.0026588381478456448,0.0032565897084264254
6740.618341316549,0.0026872009643739234,0.0032470547695992455
6740.619341088472,0.0027167749765611635,0.0032371420778425173
6740.620340860394,0.0027473276403070326,0.003227027679057345
6740.621340632317,0.0027786161260702725,0.00321688542652167
6740.622340404239,0.002810390550889167,0.0032068831886219048
6740.623340176163,0.002842397382924956,0.003197179310290087
6740.624339948085,0.002874382960125718,0.0031879194530676693
6740.625339720008,0.002906097012672272,0.003179233884189738
6740.626339491931,0.002937296026309265,0.0031712352229187613
6740.627339263853,0.002967746274431873,0.003164016608998259
6740.628339035777,0.00299722638935541,0.0031576502448534397
6740.629338807699,0.0030255294100815845,0.0031521862612602417
6740.630338579622,0.0030524643044199575,0.0031476518480300585
6740.631338351544,0.003077857003326394,0.0031440505902525498
6740.632338123467,0.0031015510043603317,0.003141361977066423
6740.63333789539,0.003123407605721969,0.003139541100879228
6740.634337667313,0.003143305829629759,0.0031385186268970597
6740.635337439236,0.0031611420885850187,0.003138201174944998
6740.636337211158,0.0031768296468033946,0.0031384722989399876
6740.637336983081,0.003190297940154272,0.003139194250065861
6740.638336755003,0.0032014918398080914,0.0031402106598049312
6740.639336526927,0.003210370960863316,0.003141350190829711
6740.640336298849,0.003216909111025631,0.0031424310974579556
6740.641336070772,0.003221093946633194,0.0031432665318862443
6740.642335842695,0.0032229268685452623,0.00314367034227844
6740.643335614617,0.003222423158919103,0.0031434630443570263
6740.644335386541,0.0032196123306404314,0.0031424776177892857
6740.645335158463,0.003214538634771941,0.003140564788765151
6740.646334930386,0.003207261659333098,0.0031375975102662292
6740.647334702308,0.0031978569643094814,0.0031334744288475445
6740.648334474231,0.0031864167214406738,0.003128122214249519
6740.6493342461545,0.003173050332756248,0.0031214967183050214
6740.650334018077,0.003157884965656305,0.00311358301559709
6740.65133379,0.003141065875905367,0.0031043944397474406
6740.652333561922,0.003122756337565995,0.003093970751579568
6740.653333333845,0.0031031369957376796,0.003082375575089504
6740.654333105767,0.0030824044941726108,0.0030696932433453474
6740.655332877691,0.0030607692750813597,0.0030560252167214533
6740.656332649613,0.003038452499131191,0.003041486254276265
6740.657332421536,0.0030156821095738413,0.003026200519123222
6740.658332193459,0.0029926881691073885,0.003010297780446905
6740.659331965381,0.002969697704824464,0.002993909851280731
6740.660331737305,0.0029469293686285683,0.002977167380292624
6740.661331509227,0.0029245882377566057,0.002960197095035768
6740.66233128115,0.0029028610529741373,0.0029431195708723135
6740.663331053072,0.002881912145505847,0.0029260475738010507
6740.664330824995,0.0028618802480526325,0.0029090849937077673
6740.665330596918,0.0028428763176877618,0.002892326347378481
6740.666330368841,0.0028249824275981524,0.002875856793916777
6740.667330140764,0.0028082517297672756,0.0028597525692192344
6740.668329912686,0.0027927094580476467,0.0028440817074983672
6740.669329684609,0.002778354913141945,0.0028289048883961944
6740.670329456531,0.002765164321464107,0.002814276255346316
6740.671329228455,0.0027530943821485803,0.0028002441106982807
6740.672329000377,0.0027420862383812383,0.0027868514872337246
6740.6733287723,0.0027320695706043816,0.0027741366751315778
6740.674328544223,0.002722966525709606,0.0027621338017616228
6740.675328316145,0.00271469525286269,0.0027508735122316386
6740.676328088069,0.00270717288640105,0.0027403837187433477
6740.677327859991,0.0027003178783966517,0.002730690325489996
6740.678327631914,0.0026940516346057783,0.0027218178251528294
6740.679327403836,0.002688299458919625,0.0027137897117002134
6740.680327175759,0.0026829908651046248,0.0027066287405553015
6740.6813269476825,0.0026780593551721473,0.0027003571407378723
6740.682326719605,0.002673441782757908,0.002694996900129675
6740.683326491528,0.0026690774308001917,0.002690570203881435
6740.68432626345,0.0026649069510893187,0.0026871000402422726
6740.685326035373,0.002660871333080894,0.0026846109247174762
6740.686325807295,0.0026569110700241662,0.0026831296380516656
6740.687325579219,0.002652965662891439,0.002682685828466834
6740.688325351141,0.0026489735590726955,0.002683312302991069
6740.689325123064,0.0026448725798886947,0.002685044833190751
6740.690324894987,0.002640600852591649,0.0026879213317589534
6740.691324666909,0.002636098222474165,0.0026919803238558736
6740.692324438833,0.002631308076777467,0.002697258730859403
6740.693324210755,0.0026261794769623895,0.002703789074699509
6740.694323982678,0.0026206694901094217,0.0027115962785033347
6740.6953237546,0.0026147456341084822,0.002720694285686059
6740.696323526523,0.002608388372760081,0.002731082742126414
6740.697323298447,0.0026015935840434062,0.002742743972900024
6740.698323070369,0.002594374881928679,0.002755640445313987
6740.699322842292,0.002586765630024309,0.002769712870657569
6740.700322614214,0.002578820467306171,0.002784879062413296
6740.701322386137,0.0025706161735427396,0.0028010336178397196
6740.70232215806,0.002562251725269345,0.00281804841882491
6740.703321929983,0.0025538474281510556,0.0028357738812499617
6740.704321701905,0.002545543063684271,0.002854040840587794
6740.705321473828,0.002537495060178486,0.0028726629444636637
6740.706321245751,0.0025298727770692534,0.002891439424874738
6740.707321017673,0.0025228540567575853,0.0029101581463237243
6740.708320789597,0.0025166202381422674,0.0029285988694334195
6740.709320561519,0.0025113508420368663,0.0029465367102560944
6740.710320333442,0.0025072181382791133,0.0029637457810221144
6740.711320105364,0.0025043818011395865,0.0029800029592810975
6740.712319877287,0.0025029838635115824,0.002995091681056453
6740.7133196492105,0.002503144184400254,0.0030088056343418454
6740.714319421133,0.0025049566340913194,0.003020952249954564
6740.715319193056,0.0025084861705395507,0.003031355912735109
6740.716318964978,0.0025137669298054845,0.0030398608185607536
6740.717318736901,0.0025208013883121303,0.003046333392283493
6740.718318508823,0.002529560584700302,0.0030506641846699593
6740.719318280747,0.002539985323831439,0.0030527691874353514
6740.720318052669,0.0025519882364906403,0.0030525905319868573
6740.721317824592,0.0025654565460795985,0.0030500965673464883
6740.722317596515,0.0025802553920782,0.0030452813510787806
6740.723317368437,0.0025962315563653146,0.003038163624191181
6740.724317140361,0.0026132174191195396,0.003028785365085478
6740.725316912283,0.0026310349491775143,0.003017210038201254
6740.726316684206,0.002649499533691276,0.0030035206778279387
6740.727316456128,0.0026684234818987636,0.0029878179569511882
6740.728316228051,0.0026876190831827905,0.0029702183690317866
6740.729315999975,0.0027069011417134767,0.0029508526161045015
6740.730315771897,0.0027260889459513236,0.0029298642710109514
6740.73131554382,0.0027450076706841573,0.0029074087538538576
6740.732315315742,0.0027634892562622185,0.002883652615294948
6740.733315087665,0.0027813728588677675,0.002858773066379609
6740.734314859588,0.0027985050116064777,0.0028329576641580707
6740.735314631511,0.0028147396705407194,0.0028064040538274566
6740.736314403433,0.0028299383210369086,0.0027793196593745104
6740.737314175356,0.0028439702698725656,0.0027519211998632406
6740.738313947279,0.0028567131643387348,0.002724433897784217
6740.739313719201,0.0028680537094109794,0.0026970902476725826
6740.740313491125,0.0028778885332362424,0.002670128240161295
6740.741313263047,0.0028861251701382245,0.002643788998808284
6740.74231303497,0.002892683152451355,0.0026183138655379496
6740.743312806892,0.002897495201659494,0.002593941030884473
6740.744312578815,0.002900508482816251,0.0025709018354322026
6740.7453123507385,0.0029016858482004307,0.0025494168781486537
6740.746312122661,0.002901006972171782,0.002529692064687995
6740.747311894584,0.0028984692911389184,0.002511914723874212
6740.748311666506,0.0028940887041087405,0.002496249924588929
6740.749311438429,0.002887900026104869,0.002482837137039199
6740.750311210351,0.0028799571918019613,0.0024717873890782002
6740.751310982275,0.002870333189688894,0.002463181060967754
6740.752310754197,0.002859119701386712,0.0024570664392844
6740.75331052612,0.0028464264458504616,0.002453459114971002
6740.754310298043,0.00283238026983215,0.00245234227029193
6740.755310069965,0.002817124052371552,0.0024536678650679375
6740.756309841889,0.002800815484765042,0.0024573587049655436
6740.757309613811,0.0027836257564763955,0.0024633113459088377
6740.758309385734,0.0027657381384016415,0.0024713997552074677
6740.759309157656,0.0027473464216223272,0.0024814796224274685
6740.760308929579,0.0027286531577234182,0.0024933932092453715
6740.761308701503,0.0027098676644829074,0.0025069746453224863
6740.762308473425,0.0026912037948315913,0.002522055583835977
6740.763308245348,0.0026728774940879873,0.002538471098411244
6740.76430801727,0.0026551041830383585,0.002556065644021865
6740.765307789193,0.0026380960129796203,0.0025746988475167615
6740.766307561116,0.002622059053809348,0.0025942508539356732
6740.767307333039,0.0026071904959496304,0.0026146269357377487
6740.768307104961,0.002593675961247575,0.0026357610792706156
6740.769306876884,0.0025816870185301167,0.00265761830221484
6740.770306648807,0.0025713789851315423,0.0026801955225299297
6740.771306420729,0.0025628890708011324,0.0027035208755136477
6740.772306192653,0.002556334889507607,0.0027276514428253833
6740.773305964575,0.0025518133334748276,0.002752669414229294
6740.774305736498,0.00254939978132864,0.002778676761503634
6740.77530550842,0.0025491476048138356,0.0028057885753411203
6740.776305280343,0.0025510879453792446,0.0028341253014743145
6740.7773050522665,0.002555229746719693,0.0028638041937020997
6740.778304824189,0.002561560039731116,0.0028949303441438844
6740.779304596112,0.002570044470907221,0.0029275876407145757
6740.780304368034,0.0025806280477822063,0.002961829971137565
6740.781304139957,0.0025932360591416894,0.002997672984526975
6740.78230391188,0.0026077751183850423,0.0030350867363307787
6740.783303683803,0.002624134276062683,0.0030739895473664036
6740.784303455725,0.002642186160967998,0.0031142433846086436
6740.785303227648,0.0026617881434016595,0.0031556510266028594
6740.786302999571,0.0026827835560150268,0.003197955210877881
6740.787302771494,0.002705003035686946,0.0032408398643650445
6740.788302543417,0.002728266051506124,0.0032839333956389285
6740.789302315339,0.00275238266020722,0.003326813909843224
6740.790302087262,0.0027771554946301744,0.003369016121278648
6740.791301859184,0.0028023819598897476,0.003410039682362324
6740.792301631107,0.0028278565943396787,0.003449358605737564
6740.793301403031,0.00285337354128141,0.0034864314395286226
6740.794301174953,0.002878729055337653,0.003520711889417338
6740.795300946876,0.00290372392544136,0.003551659653892343
6740.796300718798,0.0029281656526417097,0.0035787512983604585
6740.797300490721,0.0029518702120130995,0.0036014910026494515
6740.798300262644,0.00297466327410005,0.003619420986307736
6740.799300034567,0.0029963808464116386,0.0036321313758239607
6740.800299806489,0.0030168693871004864,0.003639269237310523
6740.801299578412,0.0030359855224803525,0.003640546465517781
6740.802299350335,0.0030535955625892214,0.0036357462269241613
6740.803299122257,0.00306957504375509,0.0036247277250854074
6740.804298894181,0.0030838085167679066,0.00360742916956106
6740.805298666103,0.0030961897428262966,0.0035838689471726047
6740.806298438026,0.0031066223817921585,0.0035541450976793753
6740.807298209948,0.003115021189127302,0.0035184332737593672
6740.808297981871,0.0031213136940212473,0.0034769834037225774
6740.809297753794,0.0031254423100382073,0.0034301152836287534
6740.810297525717,0.003127366822433408,0.0033782133326183787
6740.81129729764,0.0031270671893605198,0.003321720758559107
6740.812297069562,0.0031245465666931067,0.003261133372972482
6740.813296841485,0.0031198344032885256,0.003196993241384379
6740.814296613408,0.003112989372266092,0.0031298822727730178
6740.815296385331,0.0031041018534828176,0.003060415778481457
6740.816296157253,0.003093295702140182,0.002989235991065203
6740.817295929176,0.0030807291181374733,0.002917005520584608
6740.818295701099,0.003066594522975517,0.0028444007193013593
6740.819295473022,0.0030511174195477185,0.002772104916872703
6740.820295244945,0.0030345542559715617,0.002700801489735565
6740.821295016867,0.0030171893541350832,0.0026311667588625317
6740.82229478879,0.0029993309986621006,0.002563862765170609
6740.823294560712,0.00298130680287735,0.0024995300191910917
6740.824294332635,0.002963458474333944,0.0024387803339238
6740.825294104558,0.0029461361037469895,0.0023821898354575146
6740.826293876481,0.00292969210679674,0.002330292235471793
6740.827293648404,0.002914474958514412,0.0022835724621295458
6740.828293420326,0.0029008228644342615,0.0022424607763253833
6740.829293192249,0.0028890574993517986,0.0022073275300998783
6740.830292964172,0.0028794779186100032,0.0021784787356491637
6740.831292736095,0.00287235472887478,0.002156152600986316
6740.832292508017,0.002867924601560957,0.002140517156750282
6740.83329227994,0.00286638520471396,0.002131669053166781
6740.834292051863,0.002867890608946878,0.002129633547848132
6740.835291823786,0.0028725472117014025,0.002134365635030815
6740.836291595709,0.002880410246774026,0.002145752193655917
6740.837291367631,0.0028914809952536274,0.002163614976407023
6740.838291139554,0.0029057048585232237,0.0021877142475184128
6740.839290911476,0.0029229704702751617,0.0022177529057249754
6740.8402906834,0.0029431100028249183,0.0022533809732073
6740.841290455322,0.0029659007589877325,0.0022942003613510933
6740.842290227245,0.0029910680444459443,0.002339769834955122
6740.843289999168,0.0030182892189948227,0.002389610105164337
6740.84428977109,0.00304719876062956,0.0024432089983135326
6740.845289543013,0.0030773941520800085,0.0025000266653571776
6740.846289314936,0.003108442405764938,0.002559500806853201
6740.847289086859,0.003139887071223032,0.0026210518997111056
6740.848288858781,0.003171255606690327,0.002684088434933237
6740.849288630704,0.003202067021232578,0.0027480122047346847
6740.850288402627,0.003231839689222619,0.00281222369674595
6740.85128817455,0.0032600992126846414,0.0028761276519412623
6740.852287946473,0.0032863861817073194,0.0029391388199584037
6740.853287718395,0.003310263674419977,0.003000687908019276
6740.854287490318,0.003331324347292095,0.0030602276832530024
6740.85528726224,0.0033491969855224957,0.0031172391636288257
6740.856287034163,0.003363552399915835,0.0031712378127221933
6740.857286806086,0.0033741085607004724,0.0032217796240550842
6740.858286578009,0.0033806348482473213,0.0032684669433010022
6740.859286349932,0.003382955286963216,0.003310953846517703
6740.860286121854,0.0033809506362985965,0.0033489508814169644
6740.861285893777,0.0033745592671368166,0.0033822289953348837
6740.8622856657,0.0033637768545218064,0.0034106225280985058
6740.863285437623,0.0033486550329997877,0.003434031231525607
6740.864285209545,0.003329299236467618,0.0034524213496197062
6740.865284981468,0.003305865949116081,0.003465825814815293
6740.866284753391,0.0032785595347971583,0.0034743435854370794
6740.867284525314,0.003247628726168775,0.0034781381012078502
6740.868284297237,0.0032133627899597235,0.0034774348009967036
6740.869284069159,0.003176087371812838,0.003472517646836119
6740.870283841082,0.0031361600569577513,0.0034637246316105
6740.871283613004,0.0030939657231193103,0.0034514423023342443
6740.872283384928,0.0030499117740859817,0.0034360993830254674
6740.87328315685,0.003004423325567065,0.003418159606752797
6740.874282928773,0.002957938396067051,0.0033981138572230763
6740.875282700696,0.002910903153610526,0.0033764716922153617
6740.876282472618,0.0028637672794007644,0.003353752307051992
6740.877282244541,0.002816979514502234,0.0033304750266583472
6740.878282016464,0.0027709834395295294,0.003307149495044325
6740.879281788387,0.002726213496161314,0.0032842658323464892
6740.880281560309,0.0026830912080170323,0.0032622851099418193
6740.881281332232,0.0026420215205710477,0.003241630531709927
6740.882281104155,0.0026033891695631597,0.003222679705670456
6740.883280876078,0.0025675550088807,0.0032057583452791633
6740.884280648001,0.002534852279959943,0.0031911356482399633
6740.885280419923,0.002505582866850371,0.0031790214749201
6740.886280191846,0.0024800136215135157,0.0031695653232692747
6740.887279963768,0.002458372848003284,0.003162857000595138
6740.888279735691,0.002440847022901628,0.003158928825378966
6740.889279507614,0.002427577831120379,0.0031577591485805303
6740.890279279537,0.00241865961556574,0.0031592769723054505
6740.89127905146,0.0024141373602064703,0.0031633674642742083
6740.892278823382,0.002414005328297046,0.0031698781849707758
6740.893278595305,0.002418206450503643,0.003178625825572535
6740.894278367228,0.002426632514156527,0.0031894032109473633
6740.895278139151,0.0024391251702369017,0.003201986296419297
6740.896277911073,0.002455477758162463,0.003216140902007001
6740.897277682996,0.0024754379391281793,0.003231628973395067
6740.898277454919,0.00249871111968376,0.0032482142127733477
6740.899277226842,0.0025249646430987424,0.0032656669598856527
6740.900276998765,0.0025538327261971955,0.003283768212520778
6740.901276770687,0.002584922108771078,0.0033023126831542102
6740.90227654261,0.0026178183472979322,0.0033211108359331313
6740.903276314532,0.0026520926282847437,0.0033399899293828778
6740.904276086456,0.0026873089175372877,0.003358794150818928
6740.905275858378,0.002723031220054086,0.0033773839339595007
6740.906275630301,0.0027588307183277327,0.0033956345201142718
6740.907275402224,0.0027942925936017497,0.0034134338017321026
6740.908275174146,0.0028290223990925763,0.003430679517071829
6740.909274946069,0.002862651903411306,0.0034472759525325733
6740.910274717992,0.0028948443216446867,0.003463130406060727
6740.911274489915,0.0029252988113059285,0.0034781497093735246
6740.912274261837,0.0029537540738146287,0.003492237090919975
6740.91327403376,0.002979990898596773,0.0035052896256976473
6740.914273805683,0.0030038335174690173,0.003517196483637049
6740.915273577606,0.0030251496992545783,0.003527838137774933
6740.916273349529,0.00304384960772717,0.00353708661193745
6740.917273121451,0.003059883552047709,0.003544806748640924
6740.918272893374,0.0030732388475044367,0.003550858388346341
6740.919272665296,0.003083936054706932,0.0035550992899486293
6740.92027243722,0.003092024870988203,0.0035573885941297552
6740.921272209142,0.003097579914977403,0.003557590632618814
6740.922271981065,0.0031006965955692276,0.0035555789087437085
6740.923271752988,0.0031014872130597873,0.003551240103795008
6740.92427152491,0.003100077405826142,0.003544477991718837
6740.925271296834,0.0030966030162600925,0.003535217173391313
6740.926271068756,0.0030912073971286033,0.003523406566120101
6740.927270840679,0.0030840391237815395,0.003509022591250243
6740.928270612601,0.003075250036974875,0.003492071991342341
6740.929270384524,0.0030649935289991112,0.0034725941886305845
6740.930270156447,0.003053423003130427,0.0034506630779369985
6740.93126992837,0.0030406904736110154,0.003426388139457538
6740.932269700293,0.0030269453164012182,0.0033999147720411207
6740.933269472215,0.0030123332166960477,0.0033714237925174186
6740.934269244138,0.0029969953799193977,0.0033411301128162905
6740.93526901606,0.002981068071518146,0.003309280668996938
6740.936268787984,0.002964682516712756,0.003276151705897843
6740.937268559906,0.0029479651271104045,0.0032420455057036177
6740.938268331829,0.0029310379553864428,0.00320728660158561
6740.939268103752,0.002914019240082231,0.00317221746776005
6740.940267875674,0.002897023888546147,0.0031371936559559496
6740.941267647597,0.002880163744462872,0.00310257837669461
6740.94226741952,0.0028635475024392306,0.003068736597254902
6740.943267191443,0.002847280176903916,0.003036028809083157
6740.944266963365,0.0028314620987576157,0.003004804659009122
6740.945266735288,0.0028161874804777994,0.0029753966238033635
6740.946266507211,0.0028015426440955358,0.002948113860279564
6740.947266279134,0.0027876040438437385,0.0029232363243558213
6740.948266051057,0.002774436241577999,0.002901009248110385
6740.949265822979,0.0027620900106912604,0.0028816380871997255
6740.950265594902,0.002750600743799703,0.002865284073636029
6740.951265366824,0.0027399873092798363,0.002852060511298418
6740.952265138748,0.0027302514465060465,0.0028420299358409007
6740.95326491067,0.002721377733973001,0.002835202237610295
6740.954264682593,0.0027133341351515488,0.002831533828350976
6740.955264454516,0.0027060731283997928,0.002830927933293974
6740.956264226438,0.002699533436715324,0.002833236106539553
6740.957263998362,0.00269364236411609,0.002838261069147064
6740.958263770284,0.002688318710792318,0.002845760924050152
6740.959263542207,0.0026834761881338325,0.002855454708688637
6740.960263314129,0.0026790271992409714,0.0028670291354260203
6740.961263086052,0.0026748868008873226,0.0028801462797187717
6740.962262857975,0.0026709766282632702,0.0028944519306722868
6740.963262629898,0.0026672285485557358,0.002909584315452174
6740.964262401821,0.0026635878123512395,0.0029251829235185244
6740.965262173743,0.0026600154914134455,0.0029408971650094124
6740.966261945666,0.0026564900282099613,0.0029563945921637926
6740.967261717588,0.0026530077800071836,0.0029713684005634204
6740.968261489512,0.002649582521826837,0.0029855439295008524
6740.969261261434,0.0026462439687600474,0.002998683923378099
6740.970261033357,0.002643035463601002,0.003010592398135499
6740.97126080528,0.0026400110326088235,0.0030211170430074763
6740.972260577202,0.0026372320462530467,0.0030301501433256414
6740.973260349125,0.0026347637425459865,0.003037628034907915
6740.974260121048,0.002632671872278069,0.003043529128101789
6740.975259892971,0.002631019699499414,0.0030478706035017944
6740.976259664893,0.002629865540816623,0.003050703981117514
6740.977259436816,0.0026292609651602803,0.003052109861953648
6740.97825920874,0.0026292497107123715,0.0030521921931897103
6740.979258980662,0.0026298673131928308,0.00305107240202532
6740.980258752585,0.002631141384877581,0.0030488836967974653
6740.981258524507,0.002633092438819113,0.003045765775130484
6740.98225829643,0.0026357351140716668,0.003041860119810578
6740.983258068352,0.002639079624458371,0.003037305996238507
6740.984257840276,0.002643133237138183,0.0030322371894718394
6740.985257612198,0.0026479016024593444,0.0030267794540902704
6740.986257384121,0.0026533898055939964,0.003021048611465921
6740.987257156044,0.0026596030816790493,0.0030151492029361106
6740.988256927966,0.00266654720683964,0.0030091735763579626
6740.98925669989,0.002674228619530361,0.003003201258175923
6740.990256471812,0.0026826543261372735,0.002997298466964584
6740.991256243735,0.0026918316125802313,0.0029915176615474483
6740.992256015657,0.0027017675419676174,0.0029858970716403746
6740.99325578758,0.0027124681880532583,0.0029804602140000276
6740.994255559503,0.0027239375513614973,0.002975215440622942
6740.995255331426,0.002736176131603612,0.0029701555920928664
6740.996255103349,0.002749179173680723,0.002965257839203445
6740.997254875271,0.0027629346524052924,0.002960483793146392
6740.998254647194,0.002777421104757766,0.002955779952017706
6740.999254419116,0.0027926054482977324,0.0029510785335941578
6741.00025419104,0.002808440934315865,0.0029462987241140643
6741.001253962962,0.0028248653755161292,0.002941348340162156
6741.002253734885,0.0028417997637396305,0.002936125843517388
6741.003253506808,0.002859147362739385,0.002930522584123466
6741.00425327873,0.002876793337014367,0.002924425117209228
6741.005253050654,0.002894604957700715,0.00291771747135914
6741.006252822576,0.00291243239268625,0.002910283314267441
6741.007252594499,0.0029301100346817593,0.0029020080227806543
6741.008252366421,0.002947458271536485,0.002892780675168696
6741.009252138344,0.002964285592895105,0.002882495952234908
6741.010251910268,0.002980390962979213,0.002871055902907555
6741.01125168219,0.002995566436189894,0.002858371534155823
6741.012251454113,0.003009600015965125,0.002844364222837364
6741.013251226035,0.0030222787594494692,0.0028289669914173025
6741.014250997958,0.003033392131712912,0.002812125711358272
6741.01525076988,0.0030427356243106665,0.002793800288299027
6741.016250541804,0.0030501146667872027,0.0027739658595519498
6741.017250313726,0.0030553488565300234,0.002752614017203657
6741.018250085649,0.0030582764954622883,0.0027297540602682227
6741.019249857572,0.003058759353793959,0.0027054142710924087
6741.020249629494,0.0030566875067302266,0.0026796432071465753
6741.021249401418,0.003051984047685563,0.002652511001010953
6741.02224917334,0.0030446094909019196,0.0026241106580145624
6741.023248945263,0.0030345657087769676,0.0025945593209060636
6741.024248717185,0.003021899250885904,0.002563999440523176
6741.025248489108,0.003006703847477393,0.002532599767578886
6741.026248261031,0.002989121852657069,0.002500556064325758
6741.027248032954,0.002969344380609815,0.0024680914145376923
6741.028247804877,0.0029476099414339164,0.002435455992968299
6741.029247576799,0.002924201472695304,0.002402926165694732
6741.030247348722,0.00289944177137165,0.002370802838094593
6741.031247120644,0.00287368744504435,0.0023394090289236037
6741.032246892568,0.002847321604172894,0.002309086704464192
6741.03324666449,0.00282074559363382,0.002280192942377823
6741.034246436413,0.002794370102632988,0.00225309550590042
6741.035246208336,0.0027686059969768005,0.002228167902909101
6741.036245980258,0.0027438551978328936,0.00220578399832241
6741.037245752182,0.0027205019043150236,0.0021863122544012775
6741.038245524104,0.0026989044300263845,0.0021701096910856374
6741.039245296027,0.0026793878867348835,0.0021575156803340656
6741.040245067949,0.002662237896571954,0.0021488457071012464
6741.041244839872,0.002647695461921109,0.0021443852388811587
6741.042244611796,0.002635953085191568,0.002144383844169747
6741.043244383718,0.0026271522000387293,0.00214904969357157
6741.044244155641,0.002621381929697571,0.0021585445723560975
6741.045243927563,0.0026186791256526693,0.00217297952633209
6741.046243699486,0.0026190295796230546,0.00219241124186891
6741.047243471408,0.0026223702568526313,0.002216839225260471
6741.048243243332,0.00262859237042842,0.0022462038116457593
6741.049243015254,0.0026375451053126096,0.002280385006823313
6741.050242787177,0.0026490398097768738,0.0023192021437014776
6741.0512425591,0.0026628545022657933,0.0023624143330420763
6741.052242331022,0.0026787385851940364,0.0024097217256446378
6741.053242102946,0.0026964176931390557,0.002460767658310803
6741.054241874868,0.002715598615961745,0.0025151417744143727
6741.055241646791,0.0027359742355783875,0.0025723841702410804
6741.056241418713,0.002757228418916659,0.0026319905513771695
6741.057241190636,0.002779040829203285,0.0026934183276076844
6741.05824096256,0.0028010916447583803,0.0027560935416745262
6741.059240734482,0.002823066188024438,0.002819418511865774
6741.060240506405,0.002844659448351871,0.0028827800645938053
6741.061240278327,0.002865580427407764,0.0029455582274761313
6741.06224005025,0.002885556168496338,0.00300713522657823
6741.063239822173,0.0029043352938072655,0.0030669045823138613
6741.064239594096,0.0029216909020678087,0.0031242800521275762
6741.065239366018,0.0029374227649998142,0.003178704149834133
6741.066239137941,0.0029513588533396787,0.0032296559880854543
6741.067238909864,0.0029633562698407803,0.003276658237056129
6741.068238681786,0.0029733016548314345,0.003319283054608944
6741.06923845371,0.0029811110932047324,0.0033571568955566696
6741.070238225632,0.002986729534774008,0.0033899641380369556
6741.071237997555,0.0029901297495501557,0.0034174494902434174
6741.072237769477,0.0029913108475378212,0.003439419181063439
6741.0732375414,0.0029902963861208687,0.0034557409978279194
6741.074237313324,0.0029871320821152716,0.0034663433097326607
6741.075237085246,0.002981883149896829,0.0034712132905751272
6741.076236857169,0.00297463129991119,0.0034703945926605182
6741.077236629091,0.002965471459719506,0.003463984695567949
6741.078236401014,0.002954508326635751,0.0034521320737405554
6741.079236172936,0.002941852908800195,0.0034350332451194305
6741.08023594486,0.0029276192340827695,0.003412929714847749
6741.081235716782,0.002911921393962021,0.003386104808194328
6741.082235488705,0.0028948710541287837,0.0033548803690688165
6741.083235260628,0.0028765755279290565,0.0033196132686232017
6741.08423503255,0.0028571364867966036,0.0032806916276335953
6741.085234804474,0.002836649363161801,0.0032385306266615593
6741.086234576396,0.0028152034647178237,0.003193567781231102
6741.087234348319,0.0027928827587449033,0.0031462576089397723
6741.088234120241,0.0027697672178394325,0.0030970657071773453
6741.089233892164,0.0027459345669117747,0.0030464623620718957
6741.090233664088,0.00272146224826673,0.002994915877543673
6741.09123343601,0.0026964294268149876,0.0029428858345734816
6741.092233207933,0.0026709188833104087,0.00289081649343194
6741.093232979855,0.002645018672152302,0.002839130558979589
6741.094232751778,0.0026188234324778393,0.002788223523709514
6741.095232523701,0.0025924352426247655,0.0027384587587383122
6741.096232295624,0.0025659639281559537,0.0026901634515164603
6741.097232067546,0.0025395267881053855,0.002643625432579122
6741.098231839469,0.0025132477714759523,0.002599090916917423
6741.099231611392,0.002487256179786232,0.002556763190580139
6741.100231383314,0.002461684979867362,0.0025168022629552074
6741.101231155238,0.002436668807072592,0.0024793254666069034
6741.10223092716,0.0024123417501757307,0.00244440893886511
6741.103230699083,0.0023888350374344693,0.002412089886537003
6741.104230471005,0.0023662747666807374,0.0023823695251543107
6741.105230242928,0.0023447798201432545,0.0023552165905035873
6741.106230014852,0.0023244600776006212,0.0023305713288948315
6741.107229786774,0.0023054150074146864,0.002308349871164451
6741.108229558697,0.002287732687293127,0.002288448879371727
6741.109229330619,0.002271489280406273,0.0022707503281251987
6741.110229102542,0.0022567489571491323,0.0022551262574383732
6741.111228874464,0.0022435642137652325,0.0022414433304835855
6741.112228646388,0.0022319765161019126,0.0022295670558578466
6741.11322841831,0.0022220171988378166,0.0022193655796804313
6741.114228190233,0.002213708562395737,0.002210713003530264
6741.115227962156,0.002207065109083181,0.002203492225147276
6741.116227734078,0.0022020948404580655,0.002197597310438369
6741.117227506002,0.002198800513044651,0.002192935379596377
6741.118227277924,0.0021971807383533866,0.0021894279468484285
6741.119227049847,0.002197230827096168,0.0021870116271201405
6741.120226821769,0.002198943317377806,0.002185638136210327
6741.121226593692,0.0022023081782856905,0.002185273556247422
6741.122226365616,0.002207312716906869,0.0021858968829210662
6741.123226137538,0.0022139412249285242,0.002187497893752731
6741.124225909461,0.0022221743940751405,0.0021900743972534595
6741.125225681383,0.0022319885237516357,0.0021936289793055086
6741.126225453306,0.0022433545431728517,0.0021981654557095436
6741.127225225229,0.002256236875777425,0.002203685317834958
6741.128224997152,0.0022705921823839795,0.002210184473793315
6741.129224769074,0.002286368020128482,0.002217650543893687
6741.130224540997,0.0023035014509964853,0.0022260609019302477
6741.13122431292,0.0023219176516247725,0.0022353815849152077
6741.132224084842,0.0023415286252316874,0.0022455671235056093
6741.133223856766,0.0023622321696506166,0.0022565612738153352
6741.134223628688,0.002383911273014906,0.0022682985692054447
6741.135223400611,0.0024064340800254687,0.0022807065721936514
6741.136223172533,0.0024296545215415676,0.0022937086953328917
6741.137222944456,0.0024534136557584248,0.0023072274592832345
6741.13822271638,0.0024775417309424227,0.0023211880435674926
6741.139222488302,0.002501860930484403,0.002335521957770686
6741.140222260225,0.0025261886966720564,0.0023501706376822576
6741.141222032147,0.002550341468354235,0.0023650887730257467
6741.14222180407,0.002574138634490932,0.0023802472072476356
6741.143221575993,0.0025974065138794707,0.00239563530278739
6741.144221347916,0.0026199822134963273,0.002411262712859672
6741.145221119838,0.002641717268125699,0.002427160525212929
6741.146220891761,0.0026624809953779945,0.002443381747567621
6741.147220663684,0.0026821635027227094,0.002460001104994787
6741.148220435607,0.0027006782657529203,0.0024771141271550438
6741.14922020753,0.002717964176738276,0.0024948355179691744
6741.150219979452,0.002733986954729465,0.0025132968201833396
6741.151219751375,0.0027487398181380296,0.002532643408083919
6741.152219523297,0.0027622433380687064,0.0025530308515476267
6741.15321929522,0.0027745444030969585,0.0025746206891328755
6741.154219067144,0.002785714238390872,0.0025975756419992268
6741.155218839066,0.0027958454545796516,0.002622054312192403
6741.156218610989,0.0028050481681790814,0.0026482054417984353
6741.157218382911,0.002813445326238652,0.0026761618578128644
6741.158218154834,0.002821167455745431,0.0027060342827500677
6741.159217926757,0.0028283471204004476,0.0027379052400970786
6741.16021769868,0.0028351134039492558,0.002771823315117068
6741.161217470602,0.002841586761995012,0.0028077980407589676
6741.162217242525,0.0028478745881416723,0.0028457956630677478
6741.163217014448,0.0028540678034694616,0.0028857360029858085
6741.16421678637,0.0028602386918591184,0.002927490586941248
6741.165216558294,0.0028664400877388197,0.0029708821782681596
6741.166216330216,0.0028727059095929436,0.003015685793900991
6741.167216102139,0.0028790529402668305,0.0030616312230123915
6741.168215874061,0.0028854836804695664,0.0031084069876656834
6741.169215645984,0.0028919900359476248,0.0031556656189049345
6741.170215417908,0.002898557544262258,0.0032030300671479803
6741.17121518983,0.0029051698133186464,0.0032501010183178026
6741.172214961753,0.0029118128327560826,0.0032964648487340585
6741.173214733675,0.002918478829118282,0.0033417019264151758
6741.174214505598,0.0029251693700489195,0.003385394958546231
6741.175214277521,0.0029318974860898708,0.0034271371009075512
6741.176214049444,0.002938688667143523,0.003466539583592249
6741.177213821366,0.002945580690986035,0.003503238655055955
6741.178213593289,0.002952622337842601,0.003536901689438835
6741.179213365212,0.0029598711261335474,0.0035672323359749337
6741.180213137135,0.0029673902576818757,0.003593974626346968
6741.181212909058,0.0029752449778732777,0.0036169160146206384
6741.18221268098,0.002983498551359824,0.0036358893977100643
6741.183212452903,0.002992208050414046,0.0036507742187682473
6741.184212224825,0.003001420150840896,0.0036614967767931617
6741.185211996748,0.0030111671146900816,0.0036680298657469795
6741.186211768672,0.0030214631165771306,0.0036703918467171424
6741.187211540594,0.003032301063635563,0.0036686452085363127
6741.188211312517,0.0030436500695635946,0.003662894614813827
6741.189211084439,0.0030554537477131523,0.0036532844054544085
6741.190210856362,0.0030676294688804515,0.003639995534766052
6741.191210628285,0.0030800686885814384,0.003623241976533374
6741.192210400208,0.003092638395589641,0.0036032666845485107
6741.19321017213,0.0031051836732103426,0.0035803372338376197
6741.194209944053,0.0031175312995411135,0.0035547412687181533
6741.195209715976,0.0031294942496767546,0.003526781865056937
6741.196209487899,0.0031408769121896926,0.003496772896547791
6741.197209259822,0.003151480798512579,0.0034650344814317314
6741.198209031744,0.0031611105011682995,0.0034318885733805806
6741.199208803667,0.0031695796438933515,0.003397654748553022
6741.200208575589,0.0031767165756503624,0.003362646228456681
6741.201208347513,0.0031823695983934563,0.0033271661640363512
6741.202208119435,0.0031864115745415707,0.003291504199329144
6741.203207891358,0.0031887438206136044,0.003255933344448832
6741.204207663281,0.003189299248764885,0.0032207072085199376
6741.205207435203,0.0031880447538160097,0.0031860576455352125
6741.206207207126,0.00318498284776751,0.0031521928386486152
6741.207206979049,0.0031801525195816653,0.003119295811261804
6741.208206750972,0.0031736292574374016,0.0030875233292949485
6741.209206522894,0.003165524131925322,0.0030570051555129205
6741.210206294817,0.003155981829638187,0.0030278436366271704
6741.21120606674,0.0031451775681937046,0.0030001136458978595
6741.212205838663,0.0031333129055700613,0.002973862950650836
6741.213205610586,0.0031206105432456843,0.0029491130997228027
6741.214205382508,0.0031073082836999577,0.002925860918031551
6741.215205154431,0.0030936523346404765,0.00290408066141916
6741.216204926353,0.0030798901722979568,0.0028837268389673263
6741.217204698276,0.003066263201266409,0.0028647376657501473
6741.218204470199,0.003052999481041476,0.0028470390787065864
6741.219204242122,0.0030403068176508164,0.002830549232230579
6741.220204014045,0.003028366526806818,0.00281518337094762
6741.221203785967,0.0030173281546348497,0.002800858940430531
6741.22220355789,0.00300730539215881,0.0027875007499943852
6741.223203329813,0.002998373343322905,0.0027750459677241294
6741.224203101736,0.0029905672162712994,0.0027634487237923073
6741.225202873658,0.0029838824252879682,0.0027526841231444994
6741.226202645581,0.0029782760288550513,0.0027427515048308866
6741.227202417504,0.0029736693817897972,0.0027336768118683776
6741.228202189427,0.0029699518369292683,0.002725513947495427
6741.22920196135,0.0029669852993093257,0.0027183450078852745
6741.230201733272,0.002964609424175319,0.0027122793176502244
6741.231201505195,0.002962647259576442,0.0027074512498683314
6741.232201277117,0.002960911160297429,0.0027040168712482563
6741.233201049041,0.0029592088410949602,0.002702149517445431
6741.234200820963,0.002957349478777593,0.002702034480772624
6741.235200592886,0.002955149782158215,0.002703863063417195
6741.236200364809,0.0029524399110985038,0.0027078262869082706
6741.237200136731,0.002949069068703392,0.0027141085534131363
6741.238199908654,0.0029449105593526174,0.0027228815405038274
6741.239199680577,0.0029398661193002756,0.002734298579134325
6741.2401994525,0.00293386937405249,0.002748489711030528
6741.241199224422,0.002926888336051492,0.0027655575530013167
6741.242198996345,0.0029189269104118085,0.0027855740225863636
6741.243198768268,0.0029100254156877036,0.0028085779132563035
6741.244198540191,0.0029002601457317734,0.0028345732629743883
6741.245198312114,0.002889741996151323,0.0028635284470690326
6741.246198084036,0.0028786141649002005,0.0028953759378225917
6741.247197855959,0.002867048934042405,0.002930012687529601
6741.248197627881,0.0028552435674188445,0.002967301087533873
6741.249197399804,0.0028434154180031943,0.0030070704279599667
6741.250197171727,0.0028317964099486104,0.003049118749008363
6741.25119694365,0.002820627111829381,0.003093214956620643
6741.252196715573,0.0028101506300529837,0.0031391010753632625
6741.253196487495,0.0028006065311059762,0.003186494515885863
6741.254196259418,0.002792224962525064,0.003235090237103772
6741.255196031341,0.002785221099572129,0.003284562695102259
6741.256195803264,0.002779790017385787,0.0033345675087082115
6741.257195575186,0.0027761020870141926,0.003384742844840626
6741.258195347109,0.00277429900485996,0.0034347106263937035
6741.259195119032,0.0027744905673330114,0.0034840777611135194
6741.260194890955,0.0027767522822667178,0.0035324376409525764
6741.261194662878,0.0027811238615531586,0.0035793721450756966
6741.2621944348,0.002787608575829264,0.0036244543133504424
6741.263194206723,0.002796173398386532,0.0036672517854789404
6741.264193978645,0.0028067498459331546,0.0037073310570025354
6741.265193750569,0.002819235438727839,0.003744262583380921
6741.266193522491,0.002833495728865328,0.0037776267400224527
6741.267193294414,0.0028493668591882083,0.003807020602461957
6741.268193066337,0.0028666586117769566,0.0038320654527337003
6741.269192838259,0.002885157894101759,0.0038524148566913764
6741.270192610182,0.0029046325993850913,0.0038677630935698795
6741.271192382105,0.0029248357650559762,0.00387785365185019
6741.272192154028,0.002945509940322916,0.003882487445077257
6741.27319192595,0.002966391667090069,0.003881530368894478
6741.274191697873,0.0029872159827101967,0.0038749198263780442
6741.275191469796,0.0030077208619130017,0.0038626698730114804
6741.276191241719,0.003027651513653878,0.003844874646466591
6741.277191013642,0.003046764436616727,0.003821709763846097
6741.278190785564,0.003064831138632179,0.003793431449081928
6741.279190557487,0.0030816414545769,0.0037603733220659056
6741.280190329409,0.003097006434307766,0.0037229409844186322
6741.281190101333,0.0031107607919715115,0.003681604693018087
6741.282189873255,0.0031227649117527823,0.0036368904821292214
6741.283189645178,0.003132906406444521,0.0035893700873871484
6741.284189417101,0.003141101227831295,0.003539649973761145
6741.285189189023,0.0031472943262551368,0.0034883597160312065
6741.286188960947,0.0031514598494510977,0.00343613995454767
6741.287188732869,0.0031536008654255354,0.003383630155273553
6741.288188504792,0.003153748597645284,0.0033314564255225226
6741.289188276714,0.0031519611714249953,0.0032802196581101176
6741.290188048637,0.0031483218848617073,0.00323048428464095
6741.29118782056,0.0031429370379334894,0.0031827679071792605
6741.292187592483,0.0031359333798554453,0.003137532051234874
6741.293187364406,0.0031274552570600845,0.0030951742519077117
6741.294187136328,0.0031176615463693463,0.003056021654048718
6741.295186908251,0.003106722434723412,0.0030203262774575503
6741.296186680173,0.0030948160728554003,0.002988262068995396
6741.297186452097,0.0030821251148752163,0.002959923827847575
6741.298186224019,0.0030688331815551424,0.0029353280355819125
6741.299185995942,0.003055121340314237,0.0029144155446443804
6741.300185767865,0.003041164732220142,0.00289705599066509
6741.301185539787,0.003027129455633426,0.002883053719203983
6741.30218531171,0.0030131697446964642,0.0028721549762895328
6741.303185083633,0.0029994254049746736,0.002864056113385943
6741.304184855556,0.002986019432734022,0.002858412594458074
6741.305184627478,0.0029730557594009484,0.0028548486369417716
6741.306184399401,0.0029606171062563262,0.0028529673334115537
6741.307184171324,0.002948762980801061,0.00285236107651724
6741.308183943247,0.002937527887929958,0.0028526220710618244
6741.30918371517,0.0029269198651151484,0.0028533526903332554
6741.310183487092,0.002916919476204442,0.0028541754225894127
6741.311183259015,0.0029074794113203234,0.0028547421530952214
6741.312183030937,0.0028985248389550252,0.002854742538896772
6741.313182802861,0.002889954629469223,0.0028539112591326413
6741.314182574783,0.0028816435087147844,0.002852033964146451
6741.315182346706,0.002873445121675368,0.0028489518050663462
6741.316182118629,0.0028651959231409544,0.0028445644920508215
6741.317181890551,0.0028567197893301565,0.0028388318775873153
6741.318181662475,0.002847833250228653,0.0028317740746970316
6741.319181434397,0.002838351244394075,0.002823470111560587
6741.32018120632,0.002828093275662565,0.0028140551216358878
6741.321180978242,0.002816889808355243,0.002803716086871297
6741.322180750165,0.0028045886887284304,0.0027926861855520377
6741.323180522088,0.0027910613396107723,0.0027812378384437803
6741.324180294011,0.0027762084543202273,0.0027696746030926624
6741.325180065934,0.002759964927197469,0.002758322139766434
6741.326179837856,0.002742303811434481,0.0027475185458866753
6741.327179609779,0.002723239182866712,0.0027376044022899833
6741.328179381701,0.002702827878692121,0.0027289128832057564
6741.329179153625,0.0026811701376477774,0.0027217602620385334
6741.330178925547,0.0026584091820617676,0.002716437113481644
6741.33117869747,0.0026347297675043168,0.0027132004763612645
6741.332178469393,0.002610355709111578,0.0027122671941596076
6741.333178241315,0.002585546396242714,0.0027138085843476066
6741.334178013238,0.002560592333061253,0.002717946511422576
6741.335177785161,0.0025358097810076192,0.0027247508710742697
6741.336177557084,0.0025115346138095598,0.0027342384487740712
6741.337177329006,0.0024881155166331533,0.0027463730963217083
6741.338177100929,0.0024659066768187472,0.002761067163687114
6741.3391768728525,0.002445260141612271,0.0027781841168047086
6741.340176644775,0.0024265180527627325,0.002797542259484903
6741.341176416698,0.002410004984973885,0.002818919465396717
6741.34217618862,0.0023960206126440752,0.002842058815414453
6741.343175960543,0.0023848329267978003,0.0028666750094085633
6741.344175732465,0.002376672227295966,0.0028924613608403245
6741.345175504389,0.002371726107863121,0.002919097094929569
6741.346175276311,0.002370135614409573,0.0029462545954191135
6741.347175048234,0.0023719926843251897,0.0029736062299467836
6741.348174820157,0.002377338878221208,0.003000830459536069
6741.349174592079,0.0023861653237351155,0.003027617089194721
6741.350174364003,0.0023984137313879986,0.003053671682917487
6741.351174135925,0.0024139783249474502,0.003078719276160774
6741.352173907848,0.0024327085402143277,0.003102507542266507
6741.35317367977,0.0024544123664980333,0.0031248095337107883
6741.354173451693,0.002478860225012179,0.0031454260756430727
6741.355173223616,0.002505789298231361,0.0031641878697811782
6741.356172995539,0.0025349082425639366,0.0031809573670752603
6741.357172767462,0.002565902227030458,0.0031956304621652324
6741.358172539384,0.002598438236045376,0.00320813803189732
6741.359172311307,0.0026321705548815488,0.003218447285601889
6741.360172083229,0.002666746331477672,0.0032265628350858985
6741.361171855153,0.0027018110902744478,0.003232527347289935
6741.362171627075,0.0027370140671258104,0.0032364216213621585
6741.363171398998,0.002772013231918822,0.0032383639329209455
6741.364171170921,0.002806479862175029,0.0032385085027244525
6741.365170942843,0.002840102539575462,0.0032370429643255208
6741.366170714767,0.002872590480943333,0.0032341847322089616
6741.367170486689,0.0029036761812083933,0.00323017623611119
6741.368170258612,0.0029331174122044796,0.0032252790937351778
6741.369170030534,0.0029606986711648645,0.0032197673981194386
6741.370169802457,0.0029862322060364987,0.00321392035891357
6741.3711695743805,0.003009558753663578,0.003208014575438668
6741.372169346303,0.0030305480950546123,0.003202316258080696
6741.373169118226,0.0030490994628769013,0.0031970737364461254
6741.374168890148,0.0030651417631930656,0.0031925105731316736
6741.375168662071,0.0030786335335584187,0.003188819545787623
6741.376168433993,0.003089562565940816,0.0031861576884090023
6741.377168205917,0.0030979451583245878,0.003184642512723204
6741.378167977839,0.0031038249969653872,0.0031843494710905407
6741.379167749762,0.003107271699617319,0.0031853106745320272
6741.380167521685,0.0031083790672019776,0.003187514840264837
6741.381167293607,0.0031072630981790993,0.003190908409136855
6741.382167065531,0.003104059822491109,0.00319539774348177
6741.383166837453,0.003098923015465344,0.0032008522912742817
6741.384166609376,0.0030920218498863604,0.0032071085830508183
6741.385166381298,0.003083538527773821,0.0032139749147644327
6741.386166153221,0.003073665908143155,0.0032212365670456866
6741.387165925144,0.0030626051309360735,0.0032286614166904715
6741.388165697067,0.00305056323638307,0.0032360057939707157
6741.38916546899,0.003037750777298881,0.0032430204186401205
6741.390165240912,0.0030243794062812593,0.0032494562180430285
6741.391165012835,0.0030106594031170677,0.003255069814934991
6741.392164784757,0.0029967971110214557,0.0032596284901346573
6741.393164556681,0.0029829922798483826,0.003262914484466224
6741.394164328603,0.0029694353656994775,0.0032647285982902127
6741.395164100526,0.0029563048981397022,0.003264893149257823
6741.396163872449,0.0029437650705273315,0.0032632544220083273
6741.397163644371,0.002931963703218694,0.003259684762080968
6741.398163416295,0.002921030667642629,0.0032540844377880367
6741.399163188217,0.002911076769874559,0.0032463833473043006
6741.40016296014,0.002902193017882561,0.0032365426101853244
6741.401162732062,0.002894450167393801,0.0032245560633983633
6741.402162503985,0.002887898457047452,0.0032104516693508586
6741.4031622759085,0.0028825674770331404,0.003194292810082921
6741.404162047831,0.0028784661392455483,0.0031761793754147933
6741.405161819754,0.0028755827266130933,0.00315624847527956
6741.406161591676,0.0028738850111823004,0.0031346745580154325
6741.407161363599,0.0028733204574845636,0.003111668722410477
6741.408161135521,0.002873816559575809,0.0030874770650579078
6741.409160907445,0.0028752813761039214,0.0030623779822113724
6741.410160679367,0.0028776043182083817,0.0030366784267929457
6741.41116045129,0.002880657211618785,0.003010709188502958
6741.412160223213,0.0028842956066463463,0.00298481930036928
6741.413159995135,0.0028883602758977963,0.0029593696794624424
6741.414159767059,0.0028926788541270504,0.0029347261083340396
6741.415159538981,0.002897067636084286,0.002911251681565682
6741.416159310904,0.0029013336085365613,0.002889298879358516
6741.417159082826,0.002905276806982741,0.002869201472710883
6741.418158854749,0.0029086930566943454,0.0028512665041825567
6741.4191586266725,0.002911377114239369,0.0028357666242129153
6741.420158398595,0.002913126195471494,0.0028229330871443288
6741.421158170518,0.0029137438593192723,0.002812949703534377
6741.42215794244,0.002913044201498985,0.0028059479921531483
6741.423157714363,0.002910856295378018,0.002802003687586604
6741.424157486286,0.0029070288008306994,0.0028011346703134122
6741.425157258209,0.002901434639959496,0.0028033003208786417
6741.426157030131,0.002893975609227062,0.0028084022520631713
6741.427156802054,0.002884586779430667,0.002816286316963675
6741.428156573977,0.0028732405448929988,0.0028267457224151293
6741.429156345899,0.0028599502070323526,0.0028395250315605388
6741.430156117823,0.0028447729837191797,0.0028543248522722394
6741.431155889745,0.002827812309780183,0.0028708070677893444
6741.432155661668,0.002809219246088048,0.0028886005286146814
6741.43315543359,0.002789192771320622,0.002907307162098266
6741.434155205513,0.0027679787250357536,0.0029265084594086548
6741.4351549774365,0.0027458672254015927,0.0029457722655545013
6741.436154749359,0.002723188490241902,0.0029646597448176534
6741.437154521282,0.0027003071088726673,0.0029827323626779867
6741.438154293204,0.0026776149094243076,0.0029995587409084113
6741.439154065127,0.002655522630779129,0.003014721287529315
6741.440153837049,0.0026344506452045495,0.003027822540163303
6741.441153608973,0.0026148189936149014,0.0030384911697360142
6741.442153380895,0.002597036998611248,0.0030463875813003215
6741.443153152818,0.0025814927229413417,0.0030512090417649873
6741.444152924741,0.0025685425471278617,0.0030526942690130964
6741.445152696663,0.0025585011465784077,0.003050627426210671
6741.446152468587,0.0025516321582918274,0.0030448414743430093
6741.447152240509,0.0025481398447606968,0.003035220851115078
6741.448152012432,0.002548162076571087,0.0030217034683971576
6741.449151784354,0.002551764942821216,0.00300428204065163
6741.450151556277,0.00255893924751158,0.0029830047538266687
6741.4511513282005,0.0025695990663414884,0.0029579752548459987
6741.452151100123,0.00258358243747229,0.0029293519075720407
6741.453150872046,0.0026006541597904517,0.0028973462493376376
6741.454150643968,0.0026205105874318774,0.0028622206033350546
6741.455150415891,0.002642786242287138,0.0028242848504523646
6741.456150187814,0.0026670620092875004,0.002783892425432141
6741.457149959737,0.002692874631053092,0.002741435650109203
6741.458149731659,0.0027197271913294765,0.0026973405234645476
6741.459149503582,0.002747100281227598,0.0026520610574759197
6741.460149275505,0.0027744635712997207,0.002606073211562868
6741.461149047427,0.0028012875429225407,0.002559868460253872
6741.462148819351,0.002827055138600416,0.0025139470337204677
6741.463148591273,0.002851273063652011,0.002468810906635239
6741.464148363196,0.0028734824338196114,0.0024249566776447613
6741.465148135118,0.0028932684488685986,0.0023828685449711626
6741.466147907041,0.002910268790931851,0.0023430115960670654
6741.4671476789645,0.002924180487968862,0.0023058255843765086
6741.468147450887,0.0029347650499316285,0.002271719303257844
6741.46914722281,0.002941851789980806,0.002241065627143867
6741.470146994732,0.002945339369735139,0.002214197285126783
6741.471146766655,0.002945195709570027,0.0021914034448480787
6741.472146538577,0.0029414564484172815,0.0021729271836509073
6741.473146310501,0.0029342221286445852,0.002158963890183535
6741.474146082423,0.0029236542486447766,0.0021496605824040294
6741.475145854346,0.002909970294289142,0.0021451160744625545
6741.476145626269,0.002893437847718795,0.002145381895232557
6741.477145398191,0.0028743678857621486,0.002150463854286758
6741.478145170115,0.002853107417700348,0.0021603241514139148
6741.479144942037,0.0028300316614307854,0.0021748839185997517
6741.48014471396,0.0028055359963400834,0.0021940260620827334
6741.481144485882,0.002780027936770027,0.002217598239868627
6741.482144257805,0.002753919337403978,0.002245415783856659
6741.4831440297285,0.002727618986117097,0.002277264380475054
6741.484143801651,0.0027015256748868935,0.0023129023716007236
6741.485143573574,0.0026760217786228257,0.0023520626138209743
6741.486143345496,0.0026514673416516365,0.002394453907836555
6741.487143117419,0.00262819469504568,0.00243976206011791
6741.488142889342,0.0026065036905016277,0.0024876506722342783
6741.489142661265,0.0025866576900331678,0.002537761788595484
6741.490142433187,0.002568880456921194,0.002589716570714257
6741.49114220511,0.0025533540514991763,0.002643116185760553
6741.492141977033,0.0025402177702361444,0.002697543088646624
6741.493141748955,0.002529568100453587,0.0027525628456348157
6741.494141520879,0.0025214596026705114,0.002807726595547988
6741.495141292801,0.0025159065805057347,0.0028625741712564948
6741.496141064724,0.0025128853660133224,0.002916637826255605
6741.497140836646,0.002512337047147266,0.002969446462631971
6741.498140608569,0.0025141704862358103,0.003020530261039058
6741.4991403804925,0.002518265505396279,0.003069425662691848
6741.500140152415,0.0025244761380787926,0.00311568071123218
6741.501139924338,0.002532633869242925,0.00315886078510355
6741.50213969626,0.0025425508116111743,0.0031985547158121853
6741.503139468183,0.0025540227853537755,0.003234381206393143
6741.504139240106,0.0025668322796972946,0.003265995376420056
6741.505139012029,0.0025807512813332397,0.0032930952022555025
6741.506138783951,0.00259554396039559,0.003315427605261664
6741.507138555874,0.002610969214914022,0.003332793952536195
6741.508138327797,0.002626783092164551,0.0033450547517498313
6741.50913809972,0.002642741118974359,0.0033521333298119557
6741.510137871643,0.002658600568047056,0.003354018290847527
6741.511137643565,0.0026741226715894604,0.0033507645704169216
6741.512137415488,0.0026890747875544085,0.003342492949441878
6741.51313718741,0.002703232533612035,0.0033293879634247983
6741.514136959333,0.002716381919694621,0.0033116942410519002
6741.5151367312565,0.0027283215165033194,0.003289711422667713
6741.516136503179,0.0027388646821619213,0.0032637879150293416
6741.517136275102,0.0027478418321168173,0.003234313798510608
6741.518136047024,0.002755102689529625,0.0032017131970585298
6741.519135818947,0.002760518410045783,0.003166436362376364
6741.52013559087,0.002763983454978004,0.0031289516552665798
6741.521135362793,0.0027654171052217662,0.003089737575907144
6741.522135134715,0.0027647645619320246,0.0030492750133520406
6741.523134906638,0.002761997648697683,0.0030080399179255478
6741.524134678561,0.0027571151838323297,0.002966496601765097
6741.525134450483,0.002750143109677962,0.00292509183016065
6741.526134222407,0.002741134455118963,0.0028842498026467453
6741.527133994329,0.00273016918974541,0.002844368064211739
6741.528133766252,0.0027173540117446235,0.002805814348747941
6741.529133538174,0.002702822088477827,0.00276892434423797
6741.530133310097,0.0026867327320365315,0.002734000367438726
6741.5311330820205,0.0026692709442914142,0.002701310915774105
6741.532132853943,0.002650646714948555,0.0026710910156412656
6741.533132625866,0.002631093917090001,0.002643543229327602
6741.534132397788,0.0026108686409708694,0.0026188391404323007
6741.535132169711,0.0025902468534142542,0.0025971211208690647
6741.536131941634,0.002569521354712596,0.0025785041943508953
6741.537131713557,0.002548998094747456,0.0025630778421567102
6741.538131485479,0.0025289919778999194,0.002550907624720445
6741.539131257402,0.002509822324825376,0.002542036507659514
6741.540131029325,0.002491808169243695,0.0025364857987312467
6741.541130801248,0.002475263546997492,0.002534255639681186
6741.542130573171,0.002460492888269081,0.002535325054250618
6741.543130345093,0.002447786575520622,0.002539651620472925
6741.544130117016,0.002437416703035315,0.0025471708932667016
6741.545129888938,0.0024296330730809185,0.0025577957286701427
6741.546129660861,0.0024246594774582813,0.0025714156479694724
6741.5471294327845,0.002422690326048521,0.0025878963515163825
6741.548129204707,0.002423887681272706,0.002607079473952378
6741.54912897663,0.002428378731914506,0.002628782664505769
6741.550128748552,0.002436253700373745,0.0026528000610878365
6741.551128520475,0.002447564149813149,0.002678903201411693
6741.552128292398,0.0024623216679121626,0.0027068423910605014
6741.553128064321,0.0024804969489742082,0.0027363485337526857
6741.554127836243,0.0025020193364744788,0.0027671354158259344
6741.555127608166,0.0025267768863555286,0.0027989024196376205
6741.556127380089,0.002554616971578705,0.002831337623545357
6741.557127152012,0.002585347405289638,0.00286412123637216
6741.558126923935,0.0026187380390413515,0.0028969293124878506
6741.559126695857,0.002654522793630823,0.0029294376941739714
6741.56012646778,0.0026924020925472585,0.0029613261253101184
6741.561126239702,0.0027320456886339435,0.0029922824732190774
6741.562126011626,0.0027730959043695295,0.0030220069821745707
6741.5631257835485,0.002815171335399336,0.0030502164554255303
6741.564125555471,0.002857871077688272,0.0030766482197576257
6741.565125327394,0.0029007795257328097,0.003101063688500826
6741.566125099316,0.002943471763997458,0.003123251338868887
6741.567124871239,0.0029855195425542713,0.003143028961961399
6741.568124643162,0.003026497781446063,0.00316024509849441
6741.569124415085,0.0030659914775994965,0.0031747796219625843
6741.570124187007,0.003103602805219716,0.0031865434898850093
6741.57112395893,0.0031389581416718455,0.0031954777659027166
6741.572123730853,0.0031717147516031148,0.003201552096783789
6741.573123502776,0.0032015669191390287,0.003204762874809161
6741.574123274699,0.003228251387355812,0.003205131320140663
6741.575123046621,0.003251552009479395,0.0032027016886610727
6741.576122818544,0.003271303539148497,0.0031975397546697803
6741.577122590466,0.003287394504700691,0.0031897316481188627
6741.578122362389,0.0032997691318308723,0.003179383064196633
6741.5791221343125,0.0033084282985273287,0.0031666188146152333
6741.580121906235,0.0033134295163996263,0.0031515826415185115
6741.581121678158,0.00331488591615614,0.00313443715834471
6741.58212145008,0.003312964172675228,0.0031153637278920113
6741.583121222003,0.0033078812767594933,0.003094562059590071
6741.584120993926,0.003299900093284461,0.0030722493254449544
6741.585120765849,0.0032893237395931834,0.003048658654136603
6741.586120537771,0.0032764889268630344,0.0030240369412352195
6741.587120309694,0.003261758486629753,0.0029986419905054704
6741.588120081617,0.003245513346461651,0.0029727390680227153
6741.58911985354,0.0032281442347570698,0.002946596997374518
6741.590119625463,0.0032100433883887956,0.0029204839421970675
6741.591119397385,0.0031915965067800573,0.002894663015947505
6741.592119169308,0.0031731751528431694,0.0028693878420979475
6741.59311894123,0.003155129761351843,0.0028448981751010255
6741.594118713154,0.003137783382981487,0.002821415691924717
6741.5951184850765,0.0031214262644718104,0.0027991400744640906
6741.596118256999,0.0031063113426854504,0.002778245512040103
6741.597118028922,0.0030926507106300775,0.0027588777426472803
6741.598117800844,0.0030806130874086817,0.0027411517172580787
6741.599117572767,0.0030703222863240434,0.002725149931584607
6741.60011734469,0.003061856634276148,0.0027109214439456786
6741.601117116613,0.003055249267927767,0.0026984815867177317
6741.602116888535,0.003050489230391294,0.002687812375166666
6741.603116660458,0.003047523313197928,0.0026788636222519003
6741.604116432381,0.003046258612433283,0.0026715547795468013
6741.605116204304,0.0030465657722649002,0.002665777526574817
6741.606115976227,0.003048282864598246,0.0026613991078506304
6741.607115748149,0.0030512198129502345,0.002658266372786269
6741.608115520072,0.0030551632349750347,0.0026562104252199725
6741.609115291994,0.0030598815654933275,0.002655051746907823
6741.610115063917,0.003065130330609473,0.0026546056261030656
6741.61111483584,0.003070657463118238,0.002654687703675527
6741.612114607763,0.003076208560082019,0.002655119446016126
6741.613114379686,0.0030815319740386932,0.0026557333555562346
6741.614114151608,0.0030863836168915147,0.0026563777297374733
6741.615113923531,0.0030905313662718875,0.002656920791799199
6741.616113695454,0.0030937589972070464,0.002657254060032236
6741.617113467377,0.003095869590488646,0.002657294890095844
6741.618113239299,0.0030966883776602067,0.0026569881917692714
6741.619113011222,0.0030960649879970786,0.0026563073701891936
6741.620112783145,0.0030938750872949406,0.0026552545698275095
6741.621112555068,0.003090021433619746,0.0026538603032549334
6741.622112326991,0.0030844343968779797,0.0026521825234286094
6741.623112098913,0.0030770719902137177,0.0026503051639770905
6741.624111870836,0.0030679194517308603,0.002648336154125429
6741.625111642758,0.0030569884049932165,0.00264640492359022
6741.626111414682,0.00304431562349721,0.002644659433848897
6741.627111186604,0.0030299614292416148,0.00264326278772229
6741.628110958527,0.0030140077622769386,0.0026423894725567778
6741.62911073045,0.002996555963650951,0.0026422212868422892
6741.630110502372,0.0029777243255392784,0.002642942995529987
6741.631110274295,0.0029576454867629625,0.0026447377658441206
6741.632110046218,0.002936463783278456,0.0026477824518211937
6741.633109818141,0.0029143326835055594,0.0026522428093963507
6741.634109590063,0.0028914124341559372,0.0026582687309038523
6741.635109361986,0.0028678680143078015,0.0026659896032356837
6741.636109133909,0.002843867451543724,0.002675509928858924
6741.637108905832,0.002819580505688192,0.002686905388714938
6741.638108677755,0.002795177689515485,0.0027002195388356374
6741.639108449677,0.0027708295766049095,0.002715461297973238
6741.6401082216,0.0027467063294085593,0.002732603309904342
6741.641107993522,0.002722977361301865,0.002751581176822843
6741.642107765446,0.002699811046855604,0.0027722934822071374
6741.643107537368,0.0026773744205905907,0.0027946024726564125
6741.644107309291,0.002655832820073934,0.0028183352683496554
6741.645107081214,0.0026353494064593596,0.002843285522708943
6741.646106853136,0.0026160844624358373,0.002869215525549279
6741.64710662506,0.0025981943744675766,0.0028958588017027544
6741.648106396982,0.0025818302618088452,0.002922923272125523
6741.649106168905,0.0025671362817266527,0.002950095011840762
6741.650105940827,0.002554247682970853,0.00297704257848227
6741.65110571275,0.002543288689625003,0.003003421827572291
6741.652105484673,0.0025343702839953288,0.0030288810912824232
6741.653105256596,0.0025275879346027355,0.0030530665729090766
6741.654105028519,0.0025230192979829483,0.0030756278018143676
6741.655104800441,0.002520721918933319,0.003096223015500808
6741.656104572364,0.0025207309630889342,0.0031145243816018482
6741.657104344286,0.0025230570305186527,0.003130223012020388
6741.65810411621,0.002527684108408338,0.003143033733061324
6741.659103888132,0.0025345677253969844,0.0031526995714145833
6741.660103660055,0.002543633382795981,0.0031589959161996846
6741.661103431978,0.002554775359865695,0.0031617343198487866
6741.6621032039,0.002567856004604293,0.003160765891887373
6741.663102975823,0.002582705620949238,0.003155984221651419
6741.664102747746,0.0025991230610312717,0.003147327758523789
6741.665102519669,0.0026168771350946526,0.0031347815956465712
6741.666102291591,0.0026357089485759128,0.0031183786328395514
6741.667102063514,0.00265533524581526,0.003098200108035574
6741.668101835437,0.0026754527766663884,0.0030743754730560447
6741.66910160736,0.0026957436213518203,0.0030470815658794033
6741.670101379283,0.0027158813394972787,0.0030165410177830283
6741.671101151205,0.002735537767041209,0.0029830198382421094
6741.672100923128,0.0027543902544464698,0.0029468241478573503
6741.67310069505,0.0027721290994355803,0.0029082960809954624
6741.674100466974,0.002788464883701911,0.002867808944564039
6741.675100238896,0.002803135404414229,0.0028257617793472074
6741.676100010819,0.002815911914009007,0.0027825735129739047
6741.677099782742,0.0028266044375189338,0.002738676916466212
6741.678099554664,0.0028350660094207275,0.00269451257919011
6741.679099326588,0.002841195748466017,0.002650523092924409
6741.68009909851,0.0028449407566328525,0.002607147579627173
6741.681098870433,0.002846296873893781,0.0025648166223187926
6741.682098642355,0.0028453083348204257,0.002523947592156656
6741.683098414278,0.002842066362791331,0.0024849403309519682
6741.684098186201,0.002836706724965189,0.0024481731541973356
6741.685097958124,0.0028294062712873615,0.002413999174238503
6741.686097730047,0.0028203784899536676,0.002382742979938791
6741.687097501969,0.002809868124727507,0.0023546977187446595
6741.688097273892,0.002798144921684559,0.0023301226038075214
6741.689097045814,0.002785496610954893,0.0023092408393577796
6741.690096817738,0.0027722212824145523,0.0022922379525531374
6741.69109658966,0.0027586193784225415,0.002279260542271855
6741.692096361583,0.002744985592519994,0.0022704154807300547
6741.693096133506,0.0027316010110315196,0.002265769609544194
6741.694095905428,0.0027187258391865006,0.0022653499543812136
6741.695095677351,0.0027065930041357917,0.0022691444499289117
6741.696095449274,0.002695402845427347,0.0022771031298535315
6741.697095221197,0.00268531902705894,0.002289139703853477
6741.698094993119,0.0026764657531017574,0.002305133418145531
6741.699094765042,0.002668926332702241,0.0023249310757164268
6741.7000945369655,0.002662743108233693,0.0023483490859749936
6741.701094308888,0.0026579187270267383,0.002375175430496464
6741.702094080811,0.0026544186915761553,0.00240517147227767
6741.703093852733,0.0026521750550312865,0.002438073592448228
6741.704093624656,0.0026510910499250545,0.0024735947013778824
6741.705093396578,0.002651046382099587,0.002511425729100449
6741.706093168502,0.0026519029173419184,0.002551237241680715
6741.707092940424,0.0026535105310560663,0.002592681347952178
6741.708092712347,0.0026557129437856457,0.0026353940523484846
6741.70909248427,0.002658353395321188,0.002678998181950447
6741.710092256192,0.002661280022688488,0.0027231069856842923
6741.711092028116,0.002664350823137275,0.002767328479166936
6741.712091800038,0.0026674381019556924,0.00281127058052603
6741.713091571961,0.00267043231200632,0.0028545470365729186
6741.714091343883,0.002673245186117893,0.0028967840724214338
6741.715091115806,0.002675812060573729,0.002937627618253369
6741.716090887729,0.002678093304528045,0.0029767508834238035
6741.717090659652,0.002680074809160531,0.003013861972281656
6741.718090431575,0.002681767536822885,0.0030487111826498774
6741.719090203497,0.002683206167209933,0.0030810976071892907
6741.72008997542,0.002684446907339937,0.0031108746753743693
6741.721089747342,0.002685564568973886,0.003137954335552139
6741.722089519266,0.002686649059665277,0.003162309681894725
6741.723089291188,0.0026878014658027975,0.0031839759568713143
6741.724089063111,0.0026891299185764174,0.0032030499637114127
6741.725088835034,0.0026907454304313347,0.0032196879728871616
6741.726088606956,0.0026927578761958824,0.003234102203013765
6741.72708837888,0.0026952722711486407,0.003246555930315994
6741.728088150802,0.002698385469231633,0.0032573572742785367
6741.729087922725,0.0027021833730788984,0.003266851748078745
6741.730087694647,0.0027067387180219607,0.0032754137383831324
6741.73108746657,0.0027121094693989697,0.003283437145162566
6741.7320872384935,0.0027183378623519814,0.0032913254318030737
6741.733087010416,0.0027254501150670734,0.0032994813143968427
6741.734086782339,0.0027334568467242814,0.0033082963009114256
6741.735086554261,0.0027423542146441603,0.003318140314418497
6741.736086326184,0.002752125745261136,0.0033293516886569114
6741.737086098106,0.0027627447729953957,0.0033422278632489685
6741.73808587003,0.0027741773295928995,0.003357017100381406
6741.739085641952,0.002786385265675347,0.003373911497948318
6741.740085413875,0.0027993293590846684,0.003393041503059955
6741.741085185798,0.0028129721750534175,0.003414472051447335
6741.74208495772,0.002827280479435427,0.0034382003839987132
6741.743084729644,0.002842227062469172,0.003464155521455477
6741.744084501566,0.002857791906266161,0.0034921993090992797
6741.745084273489,0.0028739627074126414,0.003522128886822738
6741.746084045411,0.0028907348148515238,0.0035536804166066793
6741.747083817334,0.0029081106452629544,0.0035865339116182946
6741.748083589257,0.0029260986101168848,0.003620319043212699
6741.74908336118,0.002944711568076951,0.003654621842015178
6741.750083133103,0.002963964829075949,0.0036889922468658965
6741.751082905025,0.002983873775051588,0.0037229524690979674
6741.752082676948,0.0030044511995699834,0.0037560061107809323
6741.75308244887,0.0030257044838147788,0.0037876479118269303
6741.754082220794,0.003047632720282743,0.0038173739281009314
6741.755081992716,0.0030702238830488363,0.0038446918787081643
6741.756081764639,0.0030934521338341725,0.003869131351426714
6741.757081536562,0.0031172753400658033,0.0038902535308713458
6741.758081308484,0.0031416328589968165,0.00390766012608891
6741.759081080408,0.0031664436202290254,0.003921001219282414
6741.76008085233,0.0031916045324250257,0.003929981821488309
6741.761080624253,0.003216989253414817,0.003934366997076974
6741.762080396175,0.0032424473882052213,0.003933985500145328
6741.763080168098,0.0032678042020588926,0.003928731931317533
6741.7640799400215,0.0032928609437098836,0.003918567449417747
6741.765079711944,0.003317395862071763,0.0039035190620389324
6741.766079483867,0.0033411659730044523,0.0038836775109664565
6741.767079255789,0.003363909603464982,0.003859193805647661
6741.768079027712,0.0033853497182761345,0.003830274544196121
6741.769078799634,0.0034051980186272602,0.003797176254178725
6741.770078571558,0.0034231597861366647,0.0037601990333518505
6741.77107834348,0.0034389394259146462,0.003719679755042521
6741.772078115403,0.003452246624621027,0.0036759850472400124
6741.773077887326,0.0034628029760040368,0.003629504202686093
6741.774077659248,0.0034703488513715152,0.003580642160989518
6741.775077431172,0.003474650242444742,0.003529812720373248
6741.776077203094,0.003475505308200992,0.0034774321614808343
6741.777076975017,0.003472750415346896,0.0034239134790321813
6741.778076746939,0.003466265547385161,0.0033696614046390713
6741.779076518862,0.003455979029319485,0.0033150683477758194
6741.7800762907855,0.0034418715367129688,0.0032605112781612217
6741.781076062708,0.003423979319875811,0.0032063494514976386
6741.782075834631,0.0034023965049426756,0.0031529227882023834
6741.783075606553,0.0033772762786971073,0.003100550679827073
6741.784075378476,0.0033488307571131757,0.003049531014007411
6741.785075150399,0.0033173293915916787,0.0030001392500439007
6741.786074922322,0.0032830958748558898,0.0029526274273388217
6741.787074694244,0.003246503642354475,0.0029072230490648945
6741.788074466167,0.0032079701785091776,0.002864127849246974
6741.78907423809,0.0031679503899736112,0.0028235165012607403
6741.790074010012,0.003126929298274223,0.0027855353444345365
6741.791073781936,0.0030854142665691932,0.0027503012051787435
6741.792073553858,0.0030439269449388066,0.002717900394259479
6741.793073325781,0.00300299510662072,0.0026883879821272324
6741.794073097703,0.0029631445457051235,0.00266178747991782
6741.795072869626,0.002924891199553946,0.002638091070791252
6741.7960726415495,0.0028887336324195686,0.0026172605378024425
6741.797072413472,0.00285514596761333,0.002599229018774396
6741.798072185395,0.0028245712984724595,0.002583903683359799
6741.799071957317,0.0027974155655376594,0.002571169372281123
6741.80007172924,0.0027740418716040807,0.0025608931700070595
6741.801071501162,0.0027547652153225234,0.002552929809137267
6741.802071273086,0.0027398476512561273,0.0025471277330766156
6741.803071045008,0.0027294939274247008,0.0025433355754011584
6741.804070816931,0.0027238477041515094,0.0025414087536094285
6741.805070588854,0.0027229885035364144,0.0025412158312184785
6741.806070360776,0.002726929561320329,0.0025426442899290436
6741.8070701327,0.0027356167485287465,0.0025456053842880222
6741.808069904622,0.0027489287014342096,0.0025500378233285588
6741.809069676545,0.002766678248138997,0.0025559101221566075
6741.810069448467,0.002788615157814823,0.002563221566585379
6741.81106922039,0.002814430181971459,0.002572001806728958
6741.8120689923135,0.0028437603189168494,0.0025823091328255844
6741.813068764236,0.002876195204755689,0.002594227518604859
6741.814068536159,0.0029112844958432073,0.0026078625766742516
6741.815068308081,0.002948546054431089,0.002623336647604271
6741.816068080004,0.0029874747016112304,0.0026407833070794676
6741.817067851927,0.0030275512771990743,0.002660341606467881
6741.81806762385,0.003068251745096553,0.0026821503558408823
6741.819067395772,0.0031090561028119896,0.0027063427080384057
6741.820067167695,0.0031494568945890167,0.0027330412149724494
6741.821066939618,0.003188967174938355,0.0027623534306911775
6741.82206671154,0.003227127800078423,0.00279436805854981
6741.823066483464,0.0032635139290875617,0.0028291515974396375
6741.824066255386,0.0032977406064255976,0.0028667454312897938
6741.825066027309,0.0033294672975162794,0.002907163302376765
6741.826065799231,0.0033584012804102766,0.0029503890851490357
6741.827065571154,0.0033842998591833437,0.00299637473752953
6741.8280653430775,0.0034069714344634786,0.0030450382892402332
6741.829065115,0.0034262755147237214,0.003096261767631833
6741.830064886923,0.0034421217717511897,0.0031498890611155296
6741.831064658845,0.003454468256982574,0.003205723838323466
6741.832064430768,0.0034633189269527203,0.003263527720808312
6741.83306420269,0.003468720666539973,0.003323018917273782
6741.834063974614,0.0034707600075724364,0.003383871483267561
6741.835063746536,0.0034695596913935285,0.00344571530394669
6741.836063518459,0.0034652751354434723,0.0035081368255586646
6741.837063290382,0.003458090782613399,0.0035706805027426103
6741.838063062304,0.0034482162761364176,0.0036328509199847216
6741.839062834228,0.0034358824204408465,0.003694115595319988
6741.84006260615,0.0034213369416105474,0.0037539085335997276
6741.841062378073,0.0034048401189489728,0.003811634616145602
6741.842062149995,0.003386660397035609,0.0038666749043970152
6741.843061921918,0.0033670701013906843,0.0039183929338343065
6741.8440616938415,0.0033463413776059414,0.003966142080009877
6741.845061465764,0.0033247424593999767,0.004009274061372207
6741.846061237687,0.0033025343537862032,0.004047148591340043
6741.847061009609,0.00327996801620189,0.004079144114260561
6741.848060781532,0.0032572820619228312,0.0041046694664433414
6741.849060553455,0.003234701009940813,0.0041231762051538124
6741.850060325378,0.00321243400040183,0.0041341712667227175
6741.8510600973,0.0031906738984996087,0.004137229564779054
6741.852059869223,0.003169596697355175,0.00413200610521977
6741.853059641146,0.003149361132552403,0.004118247149515753
6741.854059413068,0.003130108408949514,0.004095799909663112
6741.855059184992,0.0031119619335074375,0.004064620249744558
6741.856058956914,0.003095026967466445,0.004024777940576779
6741.857058728837,0.0030793901573029753,0.003976459164387852
6741.858058500759,0.0030651189538853907,0.003919966146739806
6741.859058272682,0.0030522609556310463,0.0038557139464318944
6741.8600580446055,0.0030408432065069384,0.003784224550323704
6741.861057816528,0.0030308714642137318,0.003706118526031663
6741.862057588451,0.003022329458187265,0.003622104589083961
6741.863057360373,0.0030151781941996658,0.0035329675136931502
6741.864057132296,0.0030093554199291583,0.003439554833991917
6741.865056904219,0.003004775416556106,0.0033427627586248214
6741.866056676142,0.003001329299007405,0.003243521688654014
6741.867056448064,0.0029988859825069024,0.003142781701307629
6741.868056219987,0.0029972939175999264,0.003041498324836931
6741.86905599191,0.0029963836293776668,0.0029406188630324327
6741.870055763833,0.0029959710321937954,0.0028410694412052094
6741.871055535756,0.002995861434312133,0.002743742877494655
6741.872055307678,0.0029958540968804347,0.0026494874642247514
6741.873055079601,0.0029957471628910878,0.0025590967615120573
6741.874054851523,0.0029953427271756533,0.0024733005206599478
6741.875054623446,0.002994451795164758,0.0023927568471768653
6741.8760543953695,0.002992898890146281,0.002318045692701994
6741.877054167292,0.002990526115877486,0.0022496637488033273
6741.878053939215,0.002987196555254981,0.0021880208082390397
6741.879053711137,0.0029827969657233466,0.002133437651710924
6741.88005348306,0.0029772397869607414,0.002086145496140094
6741.881053254983,0.0029704644907552844,0.0020462869993350665
6741.882053026906,0.002962438291237956,0.002013918764236167
6741.883052798828,0.002953156223206744,0.0019890152339167525
6741.884052570751,0.0029426406076417766,0.0019714738212954636
6741.885052342674,0.0029309399584235836,0.0019611210794145306
6741.886052114596,0.002918127423962574,0.001957719693558314
6741.88705188652,0.0029042988776483646,0.001960976064611573
6741.888051658442,0.002889570761998456,0.001970548248951847
6741.889051430365,0.0028740777647204407,0.001986054023158023
6741.890051202287,0.0028579703844253826,0.0020070788565883734
6741.89105097421,0.0028414124429128607,0.0020331836043763142
6741.8920507461335,0.0028245786046143338,0.002063911777192756
6741.893050518056,0.0028076519454792257,0.002098796298208304
6741.894050289979,0.0027908215725469744,0.002137365709386778
6741.895050061901,0.002774280259810937,0.0021791498236933492
6741.896049833824,0.002758222060675069,0.0022236848340219236
6741.897049605747,0.002742839881179714,0.0022705178881291433
6741.89804937767,0.002728323031146391,0.0023192111220507
6741.899049149592,0.0027148547942662427,0.0023693451143642426
6741.900048921515,0.0027026100660451488,0.0024205216935226734
6741.901048693438,0.002691753100956112,0.0024723660223766614
6741.902048465361,0.002682435392271764,0.0025245279157801934
6741.903048237284,0.0026747936880108644,0.0025766824158625318
6741.904048009206,0.002668948133594148,0.002628529729431283
6741.905047781129,0.002665000535855897,0.002679794693944435
6741.906047553051,0.0026630327636937823,0.0027302259664605056
6741.907047324974,0.002663105318067061,0.0027795951212257796
6741.9080470968975,0.0026652560974854424,0.002827695805079998
6741.90904686882,0.0026694993605418586,0.0028743430531376537
6741.910046640743,0.0026758248700533057,0.0029193728236099267
6741.911046412665,0.0026841972079690375,0.0029626417740584864
6741.912046184588,0.0026945552704298404,0.0030040272750990154
6741.913045956511,0.0027068119795115976,0.003043427644212497
6741.914045728434,0.002720854278123595,0.0030807625740232867
6741.915045500356,0.0027365434991045274,0.003115973711347952
6741.916045272279,0.002753716204178845,0.0031490253073631017
6741.917045044202,0.0027721855600268456,0.0031799048129966903
6741.918044816125,0.002791743254047714,0.0032086232612066282
6741.919044588048,0.0028121618660068132,0.0032352152817838116
6741.92004435997,0.0028331975393869418,0.0032597386278131954
6741.921044131893,0.002854592777964916,0.0032822731237984086
6741.922043903815,0.0028760792412180908,0.003302918956627138
6741.923043675739,0.00289738049947504,0.0033217942410743192
6741.9240434476615,0.002918214792387197,0.0033390318295765647
6741.925043219584,0.0029382978811519894,0.0033547754017633274
6741.926042991507,0.002957346089738247,0.0033691749359180895
6741.927042763429,0.002975079604798766,0.003382381713129886
6741.928042535352,0.00299122606012387,0.003394543045296501
6741.929042307275,0.0030055243749031835,0.003405796970356445
6741.930042079198,0.0030177287565223373,0.0034162672175729937
6741.93104185112,0.0030276127402629697,0.0034260587783443274
6741.932041623043,0.0030349731343067027,0.00343525439411139
6741.933041394966,0.0030396337563687805,0.003443912194557103
6741.934041166889,0.003041448862021627,0.0034520646121958464
6741.935040938812,0.003040306163305561,0.0034597185921080515
6741.936040710734,0.0030361293324652813,0.003466857028189519
6741.937040482657,0.0030288798994323254,0.0034734412975673287
6741.938040254579,0.0030185584858805647,0.00347941472675677
6741.939040026502,0.0030052053545136926,0.003484706792240486
6741.9400397984255,0.002988900271462319,0.003489237822444727
6741.941039570348,0.0029697616848301657,0.0034929239300875705
6741.942039342271,0.0029479452289018575,0.0034956818888565414
6741.943039114193,0.002923641576850482,0.003497433709165709
6741.944038886116,0.0028970736756276376,0.003498110760067125
6741.945038658039,0.002868493401048408,0.0034976573720463004
6741.946038429962,0.0028381776809773924,0.0034960338875765235
6741.947038201884,0.002806424157667372,0.0034932191084029065
6741.948037973807,0.0027735464844042632,0.0034892120542563444
6741.94903774573,0.0027398693630403845,0.00348403291389619
6741.950037517653,0.0027057234334508626,0.003477723039864101
6741.951037289576,0.0026714401356656915,0.003470343824692595
6741.952037061498,0.0026373466766614994,0.003461974322137245
6741.953036833421,0.002603761235504761,0.0034527075673959537
6741.954036605343,0.002570988535964162,0.0034426457035430322
6741.955036377267,0.0025393159132521474,0.003431894192270479
6741.9560361491895,0.002509009992792539,0.0034205555205689534
6741.957035921112,0.002480314066382952,0.003408722886853057
6741.958035693035,0.002453446192441337,0.003396474360285788
6741.959035464957,0.0024285979812845187,0.0033838679610258124
6741.96003523688,0.0024059339818345692,0.0033709380156646154
6741.961035008803,0.0023855915791468675,0.0033576930129217745
6741.962034780726,0.002367681330623957,0.0033441150350286782
6741.963034552648,0.002352287682211192,0.003330160696994422
6741.964034324571,0.002339469996891165,0.003315763423308367
6741.965034096494,0.002329263808646161,0.0033008368469616355
6741.966033868417,0.0023216822106045414,0.003285279114831685
6741.96703364034,0.0023167173072141866,0.003268977898086823
6741.968033412262,0.0023143416990931667,0.003251815914574927
6741.969033184185,0.002314510009747693,0.003233676757880143
6741.970032956107,0.002317160484296508,0.0032144507938585485
6741.97103272803,0.0023222166707116145,0.0031940408541891122
6741.9720324999535,0.002329589138893161,0.0031723674597948026
6741.973032271876,0.0023391771454852137,0.003149373353151036
6741.974032043799,0.0023508701563940415,0.00312502719001267
6741.975031815721,0.0023645491878891045,0.003099326314180916
6741.976031587644,0.0023800879710751373,0.003072298596765535
6741.977031359567,0.0023973539483765423,0.0030440033576761678
6741.97803113149,0.0024162090878739723,0.003014531402428412
6741.979030903412,0.0024365104873685594,0.002984004206741
6741.980030675335,0.00245811074737399,0.002952572278261836
6741.981030447258,0.002480858103842231,0.00292041273466077
6741.982030219181,0.002504596316037686,0.00288772616102137
6741.983029991104,0.002529164317462727,0.0028547328351579853
6741.984029763026,0.0025543956738252353,0.0028216684329396198
6741.985029534949,0.002580117939896305,0.002788779355718351
6741.986029306871,0.0026061520375102168,0.002756317863220743
6741.987029078795,0.0026323117738286717,0.0027245372314111515
6741.9880288507175,0.0026584035956306803,0.002693687157652103
6741.98902862264,0.002684226662666837,0.0026640095940088384
6741.990028394563,0.002709573336392565,0.0026357351214822003
6741.991028166485,0.00273423020084033,0.0026090799119639413
6741.992027938408,0.0027579797297522892,0.002584243280568451
6741.993027710331,0.002780602677818786,0.0025614058140109035
6741.994027482254,0.002801881211593282,0.0025407280647518184
6741.995027254176,0.0028216027167678624,0.002522349812895093
6741.996027026099,0.002839564134472863,0.002506389903810693
6741.997026798022,0.002855576607734655,0.0024929466598290506
6741.998026569945,0.002869470171761507,0.0024820988408895345
6741.999026341868,0.0028810981989193345,0.002473907102297832
6742.00002611379,0.00289034132003427,0.0024684158763367803
6742.001025885713,0.00289711060833979,0.0024656555862025862
6742.002025657635,0.0029013499270818164,0.0024656450764160343
6742.003025429559,0.0029030374608660725,0.0024683941105289133
6742.004025201481,0.0029021865252550775,0.0024739057557700956
6742.005024973404,0.002898845765159436,0.0024821784633948605
6742.006024745327,0.0028930988244314664,0.0024932076732540327
6742.007024517249,0.0028850635184767023,0.0025069868164835666
6742.008024289173,0.002874890491783741,0.002523507645767817
6742.009024061095,0.0028627613133830896,0.002542759874322071
6742.010023833018,0.0028488859683175006,0.0025647301472405157
6742.01102360494,0.0028334997436416155,0.002589400398802184
6742.012023376863,0.0028168595670837286,0.0026167456593827816
6742.013023148786,0.002799239908557025,0.002646731370041723
6742.014022920709,0.002780928381273436,0.002679310269219938
6742.015022692632,0.0027622211788004116,0.0027144189547545273
6742.016022464554,0.002743418465491436,0.0027519742730678447
6742.017022236477,0.002724819812084675,0.002791869706004113
6742.018022008399,0.0027067197476933163,0.002833971913548173
6742.019021780323,0.0026894034893004616,0.002878117585148855
6742.020021552245,0.0026731429008817853,0.002924110774050989
6742.021021324168,0.0026581927155315036,0.0029717209143068184
6742.022021096091,0.0026447870392957433,0.00302068171497355
6742.023020868013,0.0026331361690678768,0.0030706910857668155
6742.024020639936,0.0026234237926974816,0.003121412195014645
6742.025020411859,0.002615804665642174,0.0031724757157226076
6742.026020183782,0.0026104028567021545,0.0032234832842164885
6742.027019955704,0.0026073106299496942,0.0032740121663359825
6742.028019727627,0.002606587989953438,0.003323621079971085
6742.02901949955,0.002608262868151603,0.0033718570547576674
6742.030019271473,0.0026123318747031023,0.0034182631409798003
6742.031019043396,0.0026187614899216985,0.0034623867392610443
6742.032018815318,0.0026274895355416356,0.003503788312377927
6742.033018587241,0.002638426766346044,0.003542050232720694
6742.034018359163,0.002651458466552139,0.00357678549496294
6742.035018131087,0.002666446009629856,0.0036076459967799928
6742.036017903009,0.0026832284131667414,0.003634330082987907
6742.037017674932,0.0027016239604825713,0.003656589063237743
6742.038017446855,0.0027214319556023024,0.0036742324412503973
6742.039017218777,0.0027424346422077117,0.003687131637979918
6742.040016990701,0.0027643992775846227,0.0036952220703495436
6742.041016762623,0.0027870803249670324,0.0036985035635379825
6742.042016534546,0.002810221708947261,0.0036970391917775553
6742.043016306468,0.0028335590663674088,0.0036909527125976657
6742.044016078391,0.0028568219349516624,0.003680424769475377
6742.045015850314,0.0028797358724003195,0.003665688013526071
6742.046015622237,0.0029020245810877036,0.003647021269611135
6742.04701539416,0.0029234121896647446,0.0036247428671368894
6742.048015166082,0.0029436258726451042,0.0035992032737834903
6742.049014938005,0.0029623989563664433,0.0035707771988520063
6742.050014709927,0.00297947457674889,0.003539855363047006
6742.051014481851,0.0029946098489005094,0.0035068361680932075
6742.052014253773,0.0030075804120118584,0.003472117537359031
6742.053014025696,0.0030181851525611725,0.0034360892100317743
6742.054013797619,0.0030262508984843783,0.0033991257387414628
6742.055013569541,0.0030316369071798355,0.0033615803807715045
6742.056013341464,0.003034239012956872,0.0033237800135087173
6742.057013113387,0.003033993330234359,0.003286021154508478
6742.05801288531,0.0030308794240887374,0.003248567124215899
6742.059012657232,0.0030249228664955695,0.0032116463600779673
6742.060012429155,0.003016197089535849,0.003175451874878577
6742.061012201079,0.003004824415842044,0.003140141832920866
6742.062011973001,0.002990976103012632,0.0031058411823556707
6742.063011744924,0.002974871213293483,0.0030726442428506856
6742.064011516846,0.0029567741344445754,0.0030406181222008203
6742.065011288769,0.002936990632567597,0.003009806819015575
6742.066011060691,0.0029158623985101988,0.0029802358491702275
6742.067010832615,0.0028937601373506907,0.0029519172169002383
6742.068010604537,0.0028710753338162445,0.0029248545525991953
6742.06901037646,0.0028482109086586005,0.0028990482587656083
6742.070010148383,0.0028255710654826716,0.00287450052640328
6742.071009920305,0.002803550698743695,0.002851220093287225
6742.072009692229,0.0027825247684113074,0.0028292266125418443
6742.073009464151,0.0027628380419633465,0.002808554488183922
6742.074009236074,0.0027447955808455526,0.0027892560176846584
6742.075009007996,0.002728654328370976,0.002771403669878136
6742.076008779919,0.0027146161389814635,0.00275509132846642
6742.077008551842,0.0027028225527685194,0.002740434349780899
6742.078008323765,0.0026933515445860053,0.0027275683258483085
6742.079008095688,0.002686216368397155,0.0027166465190444403
6742.08000786761,0.0026813665007787628,0.002707836025285478
6742.081007639533,0.0026786905884757252,0.002701312785595309
6742.082007411455,0.002678021227389125,0.0026972555815810784
6742.083007183379,0.002679141329940215,0.0026958391545363505
6742.084006955301,0.00268179176898411,0.002697226633941894
6742.085006727224,0.0026856799370191527,0.002701561560084579
6742.086006499147,0.0026904888494677596,0.002708959893515007
6742.087006271069,0.0026958864470442634,0.002719502462764267
6742.088006042993,0.002701534792870642,0.0027332282828737646
6742.089005814915,0.002707098899270171,0.0027501290927992965
6742.090005586838,0.0027122549570272594,0.0027701453435130564
6742.09100535876,0.0027166977826220923,0.0027931637557618563
6742.092005130683,0.0027201473492052554,0.002819016481736397
6742.093004902607,0.0027223543212342577,0.002847481858265084
6742.094004674529,0.0027231045663140977,0.0028782867223730315
6742.095004446452,0.00272222267111911,0.0029111102480928112
6742.096004218374,0.0027195745368079217,0.0029455892319072974
6742.097003990297,0.002715069156993841,0.0029813247001831676
6742.098003762219,0.0027086596771046896,0.0030178896506686606
6742.099003534143,0.0027003438050591075,0.0030548376881107987
6742.100003306065,0.0026901636064517263,0.003091712279729791
6742.101003077988,0.0026782046905331172,0.0031280563364176547
6742.102002849911,0.0026645947903483087,0.0031634218124563874
6742.103002621833,0.0026495017597592905,0.0031973790146956854
6742.104002393757,0.00263313102614618,0.0032295253343468736
6742.105002165679,0.002615722523456095,0.00325949315944091
6742.106001937602,0.0025975470943126575,0.003286956776481642
6742.107001709524,0.0025789023301445333,0.0033116381167574184
6742.108001481447,0.0025601078349048187,0.0033333112547826644
6742.10900125337,0.002541499933944726,0.0033518056315483325
6742.110001025293,0.0025234258815586197,0.0033670080399392367
6742.111000797216,0.0025062376460051614,0.0033788634431506826
6742.112000569138,0.0024902853801376606,0.0033873746842766903
6742.113000341061,0.0024759107210596413,0.003392601108514512
6742.114000112983,0.0024634400876953314,0.003394656095847363
6742.114999884907,0.0024531781458302033,0.003393703511204946
6742.115999656829,0.002445401594515836,0.0033899531197995134
6742.116999428752,0.0024403534160424185,0.0033836550739437185
6742.117999200675,0.0024382377297359897,0.0033750936293053136
6742.118998972597,0.002439215389653457,0.003364580271881783
6742.119998744521,0.002443400457076852,0.0033524464343299806
6742.120998516443,0.002450857648695804,0.0033390359694129247
6742.121998288366,0.0024616008081373,0.0033246975380737524
6742.122998060288,0.0024755923893102424,0.0033097770562467255
6742.123997832211,0.002492743898055024,0.0032946103244815934
6742.124997604135,0.0025129172240714193,0.0032795159416284044
6742.125997376057,0.002535926801533266,0.0032647885909156166
6742.12699714798,0.0025615425462907865,0.0032506927986464744
6742.127996919902,0.0025894935146980407,0.003237457299564982
6742.128996691825,0.0026194722151400406,0.0032252701741793694
6742.129996463747,0.0026511394897020535,0.003214274930964151
6742.130996235671,0.0026841298761192253,0.003204567687126229
6742.131996007593,0.002718057361544055,0.003196195558224029
6742.132995779516,0.002752521452620072,0.00318915630099176
6742.133995551439,0.002787113503012573,0.003183399172715706
6742.134995323361,0.002821423242653673,0.003178826895311651
6742.135995095285,0.0028550454367710317,0.003175298577120192
6742.136994867207,0.0028875865747279117,0.003172633474282101
6742.13799463913,0.0029186714519520364,0.0031706155409866954
6742.138994411052,0.00294794946408394,0.0031689987564922557
6742.139994182975,0.0029751003957171,0.0031675131871205745
6742.1409939548985,0.0029998394781485297,0.0031658716777071333
6742.141993726821,0.0030219215195064634,0.0031637770335275696
6742.142993498744,0.0030411439699966317,0.0031609295686035204
6742.143993270666,0.0030573488630148637,0.0031570349198980626
6742.144993042589,0.0030704236495480487,0.003151812018807609
6742.145992814512,0.0030803009949102703,0.0031450010704474245
6742.146992586435,0.0030869576297002763,0.003136371337688157
6742.147992358357,0.0030904123613537853,0.0031257284776871124
6742.14899213028,0.003090723374553649,0.003112921153497132
6742.149991902203,0.0030879849710076447,0.0030978466636716606
6742.150991674125,0.0030823239070779194,0.003080455394921855
6742.151991446049,0.0030738954777913647,0.0030607539733262528
6742.152991217971,0.0030628794744125944,0.003038807040305501
6742.153990989894,0.0030494761194687155,0.0030147376111331436
6742.154990761816,0.0030339020645230373,0.0029887260003191715
6742.155990533739,0.003016386522016636,0.0029610073300136187
6742.156990305663,0.0029971675930214278,0.0029318676839053715
6742.157990077585,0.0029764888518156733,0.0029016390388267956
6742.158989849508,0.0029545962502927478,0.002870693190383423
6742.15998962143,0.0029317353934038,0.0028394349521416035
6742.160989393353,0.0029081492076456325,0.0028082949139182217
6742.161989165275,0.0028840759941369744,0.0027777219880146375
6742.162988937199,0.0028597478342225354,0.0027481758797630027
6742.163988709121,0.0028353892895136915,0.002720119528720791
6742.164988481044,0.002811216305846746,0.002694011510843311
6742.165988252967,0.0027874352062065753,0.002670298384395003
6742.166988024889,0.002764241660294511,0.0026494069953388404
6742.167987796813,0.0027418195485481916,0.0026317368104662032
6742.168987568735,0.002720339674114497,0.0026176524009412037
6742.169987340658,0.002699958303066356,0.002607476245521669
6742.17098711258,0.002680815544656782,0.002601482056276536
6742.171986884503,0.0026630336348568684,0.0025998888454521066
6742.1729866564265,0.0026467152449907733,0.0026028559399858243
6742.173986428349,0.0026319419765111225,0.0026104791014962456
6742.174986200272,0.0026187732107813646,0.002622787837996187
6742.175985972194,0.0026072454608540795,0.0026397439328535136
6742.176985744117,0.0025973723236953736,0.0026612411907311778
6742.17798551604,0.002589145064549376,0.0026871064020265083
6742.178985287963,0.0025825338012042997,0.0027171015277482223
6742.179985059885,0.002577489218101044,0.0027509270876194623
6742.180984831808,0.0025739447371943957,0.002788226705607998
6742.181984603731,0.0025718190947922287,0.0028285927457008596
6742.182984375653,0.0025710193011504474,0.0028715729536784593
6742.183984147577,0.0025714439693460913,0.002916677994308424
6742.184983919499,0.002572986978596137,0.002963389734672462
6742.185983691422,0.0025755413945782956,0.003011170080209129
6742.186983463344,0.0025790035271871263,0.003059470124853663
6742.187983235267,0.0025832769705757446,0.0031077393327278153
6742.188983007191,0.002588276432061821,0.0031554344383626786
6742.189982779113,0.0025939311190145537,0.0032020277573781277
6742.190982551036,0.002600187439722566,0.003247014655385344
6742.191982322958,0.0026070108050350056,0.003289920024607643
6742.192982094881,0.0026143863913035497,0.0033303037374964595
6742.193981866803,0.00262231882580525,0.0033677651436575004
6742.194981638727,0.0026308308582071727,0.003401946720211604
6742.195981410649,0.0026399611583717564,0.0034325369777014436
6742.196981182572,0.002649761421443567,0.0034592726913491418
6742.197980954495,0.0026602929779941434,0.0034819404956848076
6742.198980726417,0.0026716231131568295,0.0035003778540665443
6742.199980498341,0.0026838212932053665,0.003514473387992648
6742.200980270263,0.002696955477178545,0.0035241665249649795
6742.201980042186,0.0027110886592634003,0.0035294464072612108
6742.202979814108,0.0027262757507233626,0.003530350009008454
6742.203979586031,0.0027425608687035143,0.003526959442608033
6742.2049793579545,0.0027599750532812523,0.003519398494925928
6742.205979129877,0.002778534390016276,0.0035078285048086577
6742.2069789018,0.00279823848489809,0.003492443755010754
6742.207978673722,0.0028190692348266963,0.0034734665846386952
6742.208978445645,0.0028409898629147327,0.003451142429775154
6742.209978217568,0.0028639442245430233,0.0034257349792811025
6742.210977989491,0.0028878564043180286,0.003397521595800871
6742.211977761413,0.0029126306031771374,0.0033667891060655264
6742.212977533336,0.002938151280670252,0.003333830030038558
6742.213977305259,0.002964283497590535,0.003298939311644525
6742.214977077181,0.002990873401265916,0.00326241162102697
6742.215976849105,0.003017748799804384,0.003224539282637451
6742.216976621027,0.003044719789730585,0.0031856108220737456
6742.21797639295,0.003071579449611844,0.0031459100349630906
6742.218976164872,0.003098104678562132,0.003105715407849551
6742.219975936795,0.003124057303291275,0.003065299695273681
6742.220975708719,0.0031491855767728223,0.0030249294725491747
6742.221975480641,0.0031732261624529785,0.002984864513230807
6742.222975252564,0.003195906669759202,0.0029453568741432228
6742.223975024486,0.0032169487875404997,0.0029066496259966606
6742.224974796409,0.003236072045641278,0.0028689752524268313
6742.225974568332,0.0032529982206671833,0.002832553823756079
6742.226974340255,0.0032674563903142685,0.0027975910889253713
6742.227974112177,0.003279188620269652,0.0027642766095049703
6742.2289738841,0.003287956223575391,0.002732782013663225
6742.229973656023,0.003293546462208705,0.002703259413038174
6742.230973427946,0.003295779483358282,0.0026758400164322753
6742.231973199869,0.0032945152288646144,0.0026506329788751207
6742.232972971791,0.003289660044019234,0.0026277245252518595
6742.233972743714,0.0032811727322963847,0.0026071773818590444
6742.234972515636,0.003269069827756051,0.002589030545365872
6742.235972287559,0.00325342986779106,0.0025732994232122598
6742.2369720594825,0.0032343964538088937,0.0025599763903063556
6742.237971831405,0.0032121799060815517,0.0025490318098225244
6742.238971603328,0.003187057353879233,0.0025404155444466187
6742.23997137525,0.0031593711387421872,0.002534058940928062
6742.240971147173,0.003129525444681729,0.002529877225386329
6742.241970919096,0.003097981126353953,0.002527772210884727
6742.242970691019,0.0030652488000917416,0.0025276351904958356
6742.243970462941,0.0030318803678266535,0.002529349875752347
6742.244970234864,0.0029984592196424112,0.0025327952563352846
6742.245970006787,0.002965589397876336,0.0025378482977473477
6742.246969778709,0.0029338840227943,0.0025443864382060427
6742.247969550633,0.00290395328991983,0.0025522898804455412
6742.248969322555,0.0028763923528710524,0.002561443698068494
6742.249969094478,0.002851769401802407,0.0025717397894687607
6742.2509688664,0.00283061423264321,0.002583078708910064
6742.251968638323,0.0028134075678370087,0.002595371376760443
6742.252968410247,0.0028005713337833746,0.002608540624730408
6742.253968182169,0.0027924600416305927,0.0026225224932204787
6742.254967954092,0.002789353381814996,0.002637267192979718
6742.255967726014,0.002791450135194709,0.002652739672444647
6742.256967497937,0.0027988635073469847,0.00266891977288949
6742.25796726986,0.0028116179876294914,0.0026858019817094713
6742.258967041783,0.0028296478147581483,0.0027033947973173467
6742.259966813705,0.0028527970989746477,0.0027217197069700594
6742.260966585628,0.0028808216103492525,0.0027408097783411505
6742.261966357551,0.0029133921977055944,0.0027607078860866587
6742.262966129474,0.002950099763889147,0.0027814646089561897
6742.263965901397,0.0029904617034849255,0.0028031358135461133
6742.264965673319,0.0030339297104541732,0.0028257798997338404
6742.265965445242,0.0030798988667924934,0.002849454660633598
6742.266965217164,0.003127717898700406,0.0028742137315344593
6742.267964989087,0.003176700419500383,0.002900102655877932
6742.2689647610105,0.003226136889704812,0.002927154655428043
6742.269964532933,0.003275306958235677,0.0029553862458721407
6742.270964304856,0.00332349183844568,0.0029847928899096703
6742.271964076778,0.0033699864154375127,0.0030153449184916106
6742.272963848701,0.0034141108418230376,0.0030469839585087043
6742.273963620624,0.003455221419620967,0.0030796200759451455
6742.274963392547,0.003492720574131157,0.003113129791826551
6742.275963164469,0.003526065723529954,0.0031473550707758315
6742.276962936392,0.003554776873597769,0.003182103323269226
6742.277962708315,0.003578442833439822,0.0032171484061930596
6742.278962480238,0.003596726028755243,0.003252232562864739
6742.279962252161,0.0036093659537621047,0.0032870692189595767
6742.280962024083,0.0036161813490730955,0.0033213465395247354
6742.281961796006,0.003617071233413869,0.0033547316510612072
6742.282961567928,0.0036120149504507092,0.003386875442446273
6742.283961339852,0.003601071395749354,0.0034174178712130894
6742.284961111775,0.0035843775412231172,0.0034459937005678716
6742.285960883697,0.0035621462816313562,0.003472238571406699
6742.28696065562,0.0035346635316852197,0.003495795287074048
6742.287960427542,0.0035022844561979614,0.0035163201760936126
6742.288960199465,0.0034654287413197486,0.0035334894013336914
6742.289959971388,0.0034245748830201367,0.0035470050873950124
6742.290959743311,0.0033802535290776104,0.003556601133025763
6742.291959515233,0.0033330399383120703,0.0035620485733264757
6742.292959287156,0.003283545627659875,0.003563160367746241
6742.293959059079,0.003232409286970191,0.003559795509700825
6742.294958831002,0.0031802870689188302,0.0035518623819141494
6742.295958602925,0.003127842413768343,0.003539321330040782
6742.296958374847,0.0030757356362190215,0.0035221864898466993
6742.29795814677,0.003024613555767351,0.003500526944741482
6742.298957918692,0.0029750994664816365,0.0034744672775097424
6742.299957690615,0.0029277837189291152,0.003444187511713967
6742.3009574625385,0.00288321515213883,0.003409922348405525
6742.301957234461,0.0028418935834534434,0.0033719595447889226
6742.302957006384,0.0028042635286275714,0.003330637289013367
6742.303956778306,0.002770709270620382,0.003286340491444455
6742.304956550229,0.0027415513344200694,0.0032394960061175072
6742.305956322152,0.0027170443792205222,0.0031905668935463052
6742.306956094075,0.0026973764888658346,0.0031400459140848705
6742.307955865997,0.0026826698013769825,0.0030884484691025686
6742.30895563792,0.0026729823504600425,0.0030363051850240404
6742.309955409843,0.0026683109157574934,0.002984154304080307
6742.310955181766,0.00266859463795855,0.0029325340364188194
6742.311954953689,0.002673719170473698,0.0028819750264165635
6742.312954725611,0.002683521189362489,0.0028329930609524013
6742.313954497534,0.002697793136187855,0.002786082094372804
6742.314954269456,0.002716288115229287,0.002741707610815228
6742.31595404138,0.002738724907468368,0.0027003003244075335
6742.316953813303,0.0027647930881621228,0.0026622502455743323
6742.317953585225,0.0027941582307345948,0.002627901194786401
6742.318953357148,0.0028264671508289804,0.002597545881976154
6742.31995312907,0.002861353105989908,0.002571421668591966
6742.320952900993,0.0028984408371777633,0.0025497071038494364
6742.321952672916,0.0029373513331796873,0.0025325193046029436
6742.322952444839,0.0029777062154872362,0.002519912241577162
6742.323952216761,0.0030191316599260517,0.002511875994709977
6742.324951988684,0.003061261781696982,0.0025083370332682603
6742.325951760607,0.0031037414260044263,0.002509159558048969
6742.32695153253,0.0031462283469441653,0.0025141479149310576
6742.327951304453,0.00318839482459613,0.0025230500520455872
6742.328951076375,0.003229928844831395,0.0025355619568395763
6742.329950848298,0.003270535019989104,0.002551332995434106
6742.33095062022,0.0033099354391317513,0.0025699720886199528
6742.331950392143,0.0033478706028758284,0.0025910546646596977
6742.3329501640665,0.0033841005424131146,0.002614130293392476
6742.333949935989,0.003418406168829532,0.0026387308337004235
6742.334949707912,0.0034505908480428555,0.0026643788605956223
6742.335949479834,0.0034804821372573956,0.0026905961206385833
6742.336949251757,0.0035079335559113525,0.002716911798545039
6742.33794902368,0.003532826220410891,0.002742870430751749
6742.338948795603,0.0035550701614660593,0.0027680393402964966
6742.339948567525,0.003574605160142816,0.0027920154819579468
6742.340948339448,0.003591400974388275,0.0028144315809776614
6742.341948111371,0.003605456877586447,0.002834961432426092
6742.342947883294,0.0036168004866463433,0.0028533242230442727
6742.343947655217,0.003625485904089687,0.002869287767175937
6742.344947427139,0.0036315912309501934,0.0028826706151841375
6742.345947199062,0.0036352155385445855,0.0028933430690059278
6742.346946970984,0.003636475428830228,0.0029012271882034846
6742.347946742908,0.003635501355003829,0.0029062958761156177
6742.348946514831,0.0036324339007300344,0.0029085711198733955
6742.349946286753,0.0036274202265710537,0.0029081214525683544
6742.350946058676,0.0036206108868367263,0.0029050587211663153
6742.351945830598,0.003612157188546955,0.002899534263128842
6742.352945602521,0.0036022091965975944,0.002891734598485541
6742.353945374444,0.003590914393849425,0.0028818767310007233
6742.354945146367,0.003578416908579743,0.0028702031386679218
6742.355944918289,0.0035648571569381602,0.002856976539428108
6742.356944690212,0.0035503717335653366,0.0028424745480674133
6742.357944462135,0.0035350934118960013,0.002826984377499576
6742.358944234058,0.003519151160791759,0.002810797752936779
6742.359944005981,0.0035026701214193453,0.00279420618320916
6742.360943777903,0.0034857715078607534,0.0027774966751899395
6742.361943549826,0.0034685724051449003,0.0027609479053432875
6742.362943321748,0.003451185458398631,0.0027448267995070917
6742.363943093672,0.0034337184816322615,0.0027293854357300293
6742.3649428655945,0.0034162740403787593,0.002714858186155631
6742.365942637517,0.0033989490573839262,0.002701459054955281
6742.36694240944,0.0033818344697481087,0.002689379235861238
6742.367942181362,0.0033650149596225827,0.0026787849743278606
6742.368941953286,0.003348568794540156,0.0026698158528828016
6742.369941725208,0.003332567827542497,0.002662583626242293
6742.370941497131,0.0033170776986062626,0.0026571717247460954
6742.371941269053,0.0033021582382065083,0.0026536355177315773
6742.372941040976,0.003287864009669658,0.0026520033783175305
6742.373940812899,0.0032742448624131924,0.0026522785248800957
6742.374940584822,0.003261346333291161,0.0026544415465343013
6742.375940356745,0.003249209749148393,0.0026584534677956398
6742.376940128667,0.0032378719446640386,0.002664259187433342
6742.37793990059,0.003227364585084042,0.0026717911360344382
6742.378939672512,0.0032177131434262206,0.002680973011740865
6742.379939444436,0.0032089356192437773,0.0026917234548685665
6742.380939216359,0.0032010411137122705,0.002703959515017337
6742.381938988281,0.003194028403900601,0.0027175997629008525
6742.382938760204,0.0031878846818930084,0.00273256690735673
6742.383938532126,0.003182584625494685,0.002748789797739287
6742.384938304049,0.0031780899335426315,0.0027662047335459284
6742.385938075972,0.0031743493955026514,0.0027847560658608257
6742.386937847895,0.0031712994966487528,0.0028043961300712053
6742.387937619817,0.0031688655079427585,0.0028250845708599455
6742.38893739174,0.003166962973675833,0.0028467871218047502
6742.389937163663,0.0031654994835938546,0.0028694739117721543
6742.390936935586,0.0031643766057887495,0.00289311739169281
6742.391936707509,0.003163491871427572,0.0029176899886528183
6742.392936479431,0.0031627407366398917,0.0029431615899039184
6742.393936251354,0.003162018482787179,0.0029694969499922015
6742.394936023276,0.003161222044177172,0.0029966531151152343
6742.3959357952,0.0031602517768426048,0.00302457696924601
6742.3969355671225,0.003159013204474283,0.00305320301580736
6742.397935339045,0.003157418785019699,0.0030824515090025436
6742.398935110968,0.0031553897241910836,0.0031122270348636263
6742.39993488289,0.0031528578284761525,0.0031424176101358062
6742.400934654814,0.0031497673514338546,0.0031728943238067816
6742.401934426736,0.0031460767430885545,0.0032035115083231813
6742.402934198659,0.003141760167721313,0.0032341074089633414
6742.403933970581,0.0031368086298840876,0.003264505318533306
6742.404933742504,0.003131230554998234,0.003294515147336103
6742.405933514427,0.0031250517022976083,0.003323935397032917
6742.40693328635,0.0031183143338254283,0.0033525555068818808
6742.407933058273,0.003111075623078447,0.0033801585532708986
6742.408932830195,0.003103405359049161,0.0034065243089008014
6742.409932602118,0.003095383071298618,0.003431432686805167
6742.41093237404,0.0030870947518778355,0.0034546675829613322
6742.411932145964,0.003078629379087549,0.003476021085432026
6742.412931917886,0.003070075464272943,0.0034952979558441257
6742.413931689809,0.003061517838993047,0.0035123202381697567
6742.414931461732,0.003053034861571758,0.0035269318276093405
6742.415931233654,0.0030446961621056266,0.0035390028252210624
6742.416931005577,0.0030365609999680482,0.0035484334772187065
6742.4179307775,0.0030286772920644837,0.003555157443962821
6742.418930549423,0.0030210813589363343,0.003559144109863007
6742.419930321345,0.003013798403020897,0.003560399691016317
6742.420930093268,0.003006843685675161,0.0035589670224736684
6742.421929865192,0.0030002243321874257,0.0035549240472065196
6742.422929637114,0.002993941673304685,0.0035483811259316256
6742.423929409037,0.002987994009749143,0.003539477341977468
6742.424929180959,0.0029823796505511714,0.0035283760254446106
6742.425928952882,0.0029771000369969206,0.0035152597814166807
6742.426928724804,0.0029721627388843825,0.0035003253520258094
6742.427928496728,0.0029675841109103726,0.0034837786385537683
6742.42892826865,0.002963391430536899,0.003465830152817652
6742.429928040573,0.0029596243925102115,0.0034466910800041825
6742.430927812496,0.0029563358788979146,0.0034265700476665668
6742.431927584418,0.002953591943465639,0.0034056706276059043
6742.432927356342,0.002951470968366503,0.0033841895541350214
6742.433927128264,0.0029500619906887415,0.0033623156182724418
6742.434926900187,0.002949462237538103,0.0033402291785817047
6742.435926672109,0.0029497739230486147,0.0033181021978479406
6742.436926444032,0.0029511003621231504,0.0032960986664901525
6742.437926215955,0.002953541477772145,0.0032743752284345277
6742.438925987878,0.002957188823299703,0.0032530818108576034
6742.439925759801,0.0029621202814349656,0.003232362087226371
6742.440925531723,0.002968394627445636,0.0032123536557161977
6742.441925303646,0.002976046159663614,0.0031931878521007347
6742.442925075568,0.0029850796164191495,0.0031749891147793727
6742.443924847492,0.0029954656153950788,0.003157873812266695
6742.444924619414,0.0030071368673301566,0.0031419484824963635
6742.445924391337,0.003019985419500881,0.003127307515234243
6742.44692416326,0.003033861160760986,0.0031140303771536345
6742.447923935182,0.0030485717638664553,0.00310217850325294
6742.448923707106,0.00306388416049932,0.003091791985860454
6742.449923479028,0.003079527554840893,0.003082886219635267
6742.450923250951,0.0030951978975826814,0.003075448708437492
6742.451923022873,0.0031105636768596332,0.003069436282121487
6742.452922794796,0.003125272842919173,0.003064772986194959
6742.45392256672,0.003138960663115321,0.003061348889044241
6742.454922338642,0.00315125828904922,0.003059020005024037
6742.455922110565,0.003161801801847943,0.003057609468989908
6742.456921882487,0.003170241488670543,0.0030569100351541937
6742.45792165441,0.0031762511009974874,0.0030566879220245598
6742.458921426332,0.0031795368530319256,0.003056687986551508
