Time,Filtered_EMG_Bicep,Filtered_EMG_Tricep
6668.895703350336,0.0015782472428516989,0.0014806410380955697
6668.896703122259,0.0016568594766695108,0.0015259003562947818
6668.897702894182,0.0017375131127831617,0.0015702644648680957
6668.898702666104,0.0018198561223253008,0.001613559154298658
6668.899702438027,0.0019035237834280929,0.001655646580974576
6668.9007022099495,0.0019881423520784953,0.001696428806835896
6668.901701981873,0.0020733325694255542,0.0017358502190761508
6668.902701753796,0.002158713040702301,0.0017738987614793907
6668.903701525718,0.002243903544141347,0.0018106059643780532
6668.904701297641,0.0023285283231265956,0.0018460457843141496
6668.905701069563,0.0024122193896370524,0.0018803322635578298
6668.906700841487,0.002494619831534408,0.0019136160186298396
6668.907700613409,0.0025753870811210857,0.0019460795940090415
6668.908700385332,0.0026541960719110107,0.0019779317812267483
6668.909700157255,0.0027307421816521738,0.0020094010826919293
6668.910699929177,0.0028047438322603285,0.002040728558826035
6668.911699701101,0.0028759446036530738,0.0020721603167605128
6668.912699473023,0.0029441147363655526,0.0021039398823808303
6668.913699244946,0.0030090519509584266,0.0021363006614544752
6668.914699016868,0.0030705815822581516,0.002169458660227427
6668.915698788791,0.0031285560893771955,0.00220360561856886
6668.9166985607135,0.003182854045928345,0.002238902713883901
6668.917698332637,0.0032333787355896203,0.002275475005039705
6668.91869810456,0.003280056472201216,0.002313406778218572
6668.919697876482,0.0033228347319112523,0.0023527379259082287
6668.920697648405,0.0033616801470896882,0.0023934614536870367
6668.921697420327,0.0033965763972571904,0.0024355221831810214
6668.922697192251,0.0034275220523569566,0.002478816701377382
6668.923696964173,0.0034545284655238652,0.002523194582431288
6668.924696736096,0.0034776178606649587,0.002568460869254711
6668.9256965080185,0.003496821801797799,0.0026143797536189325
6668.926696279941,0.003512180244549654,0.0026606793469618807
6668.927696051864,0.0035237413362370477,0.0027070573927425482
6668.928695823787,0.003531562053013604,0.0027531877303836956
6668.92969559571,0.003535709662786493,0.002798727287486874
6668.930695367632,0.0035362639056058646,0.0028433233724693696
6668.931695139555,0.0035333197035523982,0.002886621071354624
6668.9326949114775,0.0035269901495566616,0.002928270593178316
6668.933694683401,0.00351740948179295,0.0029679344189888083
6668.934694455324,0.003504735747523608,0.0030052940801269658
6668.935694227246,0.003489152908790465,0.003040056358707141
6668.936693999169,0.0034708722144550434,0.0030719587158891965
6668.937693771091,0.003450132712848773,0.00310077381955766
6668.938693543015,0.003427200791443161,0.003126313122574823
6668.939693314937,0.0034023686359510074,0.003148429498200613
6668.94069308686,0.0033759515434037706,0.0031670189652167995
6668.941692858783,0.0033482841100546485,0.003182021539961417
6668.942692630705,0.0033197154154755333,0.0031934212493956123
6668.943692402629,0.0032906034023730897,0.003201245352777782
6668.944692174551,0.0032613086879330912,0.003205562855613588
6668.945691946474,0.003232188036702753,0.003206482423076618
6668.946691718396,0.003203587694864358,0.0032041497769648313
6668.947691490319,0.0031758367615669675,0.0031987446103275926
6668.9486912622415,0.003149240773728239,0.0031904770306979144
6668.949691034165,0.0031240756942658957,0.0031795835658831565
6668.950690806088,0.0031005824952044575,0.0031663228023168536
6668.95169057801,0.003078962510806049,0.003150970740706912
6668.952690349933,0.0030593737144976596,0.0031338159505735455
6668.953690121855,0.0030419280514187128,0.0031151546073077117
6668.954689893779,0.00302668992012615,0.003095285515048577
6668.955689665701,0.0030136758269764473,0.0030745052479871885
6668.956689437624,0.0030028551483334636,0.0030531035593467353
6668.9576892095465,0.0029941518677294547,0.003031359193412202
6668.958688981469,0.0029874471385441964,0.003009536194238608
6668.959688753392,0.00298258255689573,0.0029878807548847225
6668.960688525315,0.0029793640837366487,0.0029666186164060025
6668.961688297238,0.0029775665917525958,0.0029459530205718323
6668.96268806916,0.0029769390151790447,0.002926063239459416
6668.963687841083,0.002977210064557147,0.0029071037256544444
6668.964687613006,0.00297809445967261,0.0028892039250554146
6668.965687384929,0.002979299637720862,0.0028724687639765855
6668.966687156852,0.002980532889583218,0.002856979776349887
6668.967686928774,0.002981508845376694,0.0028427967941781645
6668.968686700697,0.0029819571764569124,0.0028299600943308945
6668.969686472619,0.002981630327320618,0.0028184928773389976
6668.970686244543,0.0029803110518841136,0.0028084039509018504
6668.971686016465,0.002977819500958189,0.0027996905002808463
6668.972685788388,0.002974019583169731,0.0027923408323460536
6668.973685560311,0.0029688243030390245,0.0027863369691202957
6668.974685332233,0.0029621997838271442,0.0027816569636555442
6668.975685104157,0.0029541677280774782,0.0027782768517761233
6668.976684876079,0.002944806158107369,0.0027761722398385227
6668.977684648002,0.0029342483864144664,0.0027753196205662907
6668.978684419924,0.0029226802560404627,0.0027756975555125415
6668.979684191847,0.0029103357519238457,0.0027772878402819966
6668.9806839637695,0.002897491130739219,0.0027800766905487252
6668.981683735693,0.0028844577568640536,0.0027840558815969236
6668.982683507616,0.0028715738601709393,0.0027892236650715898
6668.983683279538,0.0028591954508287,0.002795585201659708
6668.984683051461,0.0028476866527815774,0.0028031522305885194
6668.985682823383,0.002837409754601011,0.0028119417768428558
6668.986682595307,0.0028287153058460086,0.0028219738564095286
6668.987682367229,0.0028219325889471897,0.002833268318828678
6668.988682139152,0.0028173607685366333,0.0028458411051116963
6668.9896819110745,0.0028152609731413396,0.0028597002668286015
6668.990681682997,0.0028158495105341875,0.002874842088282051
6668.991681454921,0.002819292367509197,0.002891247596446071
6668.992681226843,0.0028257011045783806,0.002908879660144547
6668.993680998766,0.0028351302266951335,0.0029276807977427766
6668.994680770688,0.00284757607962965,0.002947571746414992
6668.995680542611,0.0028629772687560535,0.0029684507966667895
6668.996680314534,0.0028812165221936354,0.002990193859275764
6668.997680086457,0.0029021238477247233,0.0030126552054167166
6668.99867985838,0.002925480784264202,0.0030356688022296634
6668.999679630302,0.002951025524789645,0.003059050156771927
6669.000679402225,0.0029784586832647636,0.0030825985899797133
6669.001679174147,0.0030074494940560623,0.0031060998943469873
6669.002678946071,0.0030376422666160553,0.003129329367067643
6669.003678717993,0.003068662959250045,0.003152055221205608
6669.004678489916,0.0031001257695945504,0.00317404234729839
6669.005678261839,0.0031316396590708876,0.0031950563449112263
6669.006678033761,0.003162814737818052,0.00321486769428626
6669.007677805685,0.00319326844299375,0.0032332559095707087
6669.008677577607,0.0032226314474615983,0.003250013517115686
6669.00967734953,0.0032505532326652163,0.0032649497349122956
6669.010677121452,0.0032767072493989054,0.0032778937784611016
6669.011676893375,0.0033007955835742237,0.003288697764186671
6669.0126766652975,0.003322553054510365,0.0032972392086344114
6669.013676437221,0.0033417507065267985,0.0033034231257802987
6669.014676209144,0.0033581986986376683,0.00330718370976723
6669.015675981066,0.003371748628115783,0.0033084855593228484
6669.016675752989,0.0033822953275384746,0.003307324358903666
6669.017675524911,0.0033897781516917217,0.0033037269027803777
6669.018675296835,0.0033941817259307925,0.0032977503574178066
6669.019675068757,0.0033955360805058674,0.0032894807022932253
6669.02067484068,0.0033939160763525648,0.003279030348469433
6669.0216746126025,0.0033894400478063657,0.003266535001428735
6669.022674384525,0.0033822676303477306,0.003252149915752569
6669.023674156449,0.0033725967882313997,0.0032360457759273973
6669.024673928371,0.0033606600984993447,0.0032184045016429644
6669.025673700294,0.0033467203811904833,0.003199415285468601
6669.026673472216,0.003331065790087408,0.0031792711139114545
6669.027673244139,0.003314004487935343,0.0031581659190680843
6669.028673016062,0.0032958590151249785,0.003136292393175821
6669.029672787985,0.003276960428554203,0.003113840404581923
6669.030672559908,0.003257642262679715,0.003090995900929984
6669.03167233183,0.003238234360508356,0.0030679401736446047
6669.032672103753,0.003219056624301172,0.0030448493668458654
6669.033671875675,0.0032004127282378595,0.0030218941208593852
6669.034671647599,0.0031825838306816703,0.0029992392368319454
6669.035671419521,0.0031658223514408244,0.0029770432421190726
6669.036671191444,0.00315034594285881,0.0029554577418851808
6669.037670963367,0.003136331846839854,0.002934626471018607
6669.038670735289,0.0031239118583690764,0.0029146840093165548
6669.039670507213,0.0031131681087250298,0.0028957541821833755
6669.040670279135,0.0031041298534914196,0.0028779482268890553
6669.041670051058,0.0030967714094380697,0.0028613628489353683
6669.04266982298,0.0030910113387102936,0.0028460783191074264
6669.043669594903,0.0030867129457254837,0.0028321567685176386
6669.044669366826,0.00308368613959845,0.0028196408207736235
6669.045669138749,0.0030816907074792425,0.002808552654011222
6669.046668910672,0.0030804410215303953,0.002798893524848841
6669.047668682594,0.003079612157800325,0.0027906437393825628
6669.048668454517,0.0030788473396041534,0.0027837630458462602
6669.04966822644,0.003077766534768601,0.00277819144987923
6669.050667998363,0.003075975949952783,0.0027738504935974364
6669.051667770285,0.0030730780985292637,0.0027706450624156234
6669.052667542208,0.0030686820868073674,0.0027684657679402196
6669.0536673141305,0.0030624137666337655,0.002767191905327658
6669.054667086053,0.0030539254278187703,0.0027666949251249767
6669.055666857977,0.0030429047426898817,0.0027668423139502844
6669.056666629899,0.0030290827291150264,0.0027675017428787775
6669.057666401822,0.0030122405584254515,0.002768545306044952
6669.058666173744,0.0029922150736625057,0.0027698536371835994
6669.059665945667,0.0029689028912787004,0.0027713196699640824
6669.06066571759,0.0029422629677330774,0.002772851802777471
6669.061665489513,0.0029123175633752295,0.0027743762366251633
6669.062665261436,0.002879151631080997,0.002775838280547065
6669.063665033358,0.002842910755424087,0.0027772024760922233
6669.064664805281,0.002803797831474012,0.002778451479783117
6669.065664577203,0.00276206869640233,0.0027795837385901933
6669.066664349127,0.002718026931122828,0.00278061008659961
6669.067664121049,0.0026720180457461243,0.002781549492670247
6669.068663892972,0.0026244232447375556,0.0027824242942819295
6669.069663664895,0.002575652927398288,0.0027832553199843377
6669.070663436817,0.00252614002843591,0.0027840572971215226
6669.071663208741,0.002476333263086255,0.0027848348769033532
6669.072662980663,0.0024266903213171075,0.0027855795241558323
6669.073662752586,0.0023776710584324907,0.002786267436076806
6669.074662524508,0.002329730758417921,0.002786858578100417
6669.075662296431,0.0022833135918037405,0.002787296861207025
6669.076662068354,0.0022388464212577536,0.002787511436056298
6669.077661840277,0.0021967331032723423,0.002787419034840093
6669.0786616122,0.0021573494049072204,0.0027869272400454777
6669.079661384122,0.002121038627983551,0.002785938504429958
6669.080661156045,0.0020881080171975645,0.0027843547032603225
6669.081660927968,0.0020588260075059006,0.0027820819750772273
6669.082660699891,0.002033420324764282,0.00277903559993303
6669.083660471813,0.002012076894987371,0.002775144679113578
6669.084660243736,0.0019949394604811673,0.0027703564193371907
6669.0856600156585,0.0019821097667400375,0.002764639867894149
6669.086659787581,0.0019736481796856983,0.0027579889676133604
6669.087659559505,0.001969574605927323,0.002750424798896996
6669.088659331427,0.0019698696037468164,0.002741996877197474
6669.08965910335,0.0019744755925810127,0.0027327834168986327
6669.090658875272,0.0019832981088582433,0.002722890564996504
6669.091658647195,0.0019962071146723053,0.0027124507058378755
6669.092658419118,0.002013038417345175,0.0027016199929725377
6669.093658191041,0.0020335952785117016,0.0026905752773000377
6669.094657962964,0.002057650282281238,0.002679510598555552
6669.095657734886,0.002084947513070082,0.0026686333986232296
6669.096657506809,0.0021152050798244025,0.0026581606013368424
6669.097657278731,0.0021481180123683547,0.002648314690187916
6669.098657050655,0.002183361536421744,0.0026393198980162727
6669.099656822577,0.0022205947029985203,0.0026313985900194687
6669.1006565945,0.0022594643131867175,0.002624767878305549
6669.101656366423,0.0022996090485075714,0.002619636471221576
6669.102656138345,0.002340663694169126,0.0026162017442083996
6669.103655910269,0.002382263335752097,0.0026146470167271456
6669.104655682191,0.0024240474248347662,0.002615139024366092
6669.105655454114,0.0024656636308275897,0.00261782558637118
6669.106655226036,0.002506771402114302,0.0026228334869430213
6669.107654997959,0.0025470451514556557,0.002630266601716907
6669.108654769882,0.002586176982413233,0.00264020429398102
6669.109654541805,0.0026238789027482113,0.0026527000812463257
6669.110654313728,0.0026598845255361393,0.0026677805493422017
6669.11165408565,0.0026939503190484687,0.0026854444834727965
6669.112653857573,0.0027258565057151026,0.002705662202057936
6669.113653629496,0.002755407717570164,0.002728375119966071
6669.114653401419,0.002782433499006983,0.0027534956167520174
6669.115653173341,0.0028067887189922574,0.002780907313454781
6669.116652945264,0.002828353922757366,0.0028104658449281538
6669.1176527171865,0.0028470356295924567,0.002842000150123319
6669.118652489109,0.0028627665793310273,0.002875314209980496
6669.119652261033,0.002875505939699089,0.0029101890798526723
6669.120652032955,0.002885239488811405,0.00294638502870858
6669.121651804878,0.002891979767517951,0.0029836436247265797
6669.1226515768,0.0028957661645937307,0.0030216896801221384
6669.123651348723,0.002896664874505367,0.003060233053279782
6669.124651120646,0.0028947686588051556,0.0030989703687560616
6669.125650892569,0.00289019634120419,0.003137586737557963
6669.126650664492,0.0028830919752170676,0.003175757551213754
6669.127650436414,0.0028736236512719756,0.003213150408352739
6669.128650208337,0.0028619819518321465,0.0032494272234999295
6669.12964998026,0.0028483780957851736,0.003284246558266426
6669.130649752183,0.002833041815930165,0.003317266203296971
6669.131649524105,0.002816218985493396,0.0033481460356298565
6669.132649296028,0.0027981689791814826,0.0033765511850555935
6669.133649067951,0.002779161754987774,0.003402155554786761
6669.134648839874,0.002759474676135854,0.0034246457413659353
6669.135648611797,0.0027393891261919693,0.0034437253760112134
6669.136648383719,0.002719186979531914,0.0034591198682116632
6669.137648155642,0.0026991469797172847,0.0034705814880089027
6669.138647927564,0.0026795410677539866,0.0034778946829633938
6669.139647699487,0.0026606306987243438,0.003480881483263115
6669.14064747141,0.002642663191311348,0.0034794068064829087
6669.141647243333,0.002625868174194767,0.003473383443724897
6669.142647015256,0.0026104542220109425,0.003462776488656156
6669.143646787178,0.0025966057947495705,0.003447606950610969
6669.144646559101,0.002584480592710653,0.0034279542871173273
6669.145646331024,0.0025742074125092744,0.0034039576307544465
6669.146646102947,0.0025658845472795394,0.00337581556936962
6669.147645874869,0.0025595787293985015,0.0033437844264867576
6669.148645646792,0.002555324579083357,0.0033081750508473
6669.1496454187145,0.002553124504680563,0.003269348174484864
6669.150645190637,0.002552949002689607,0.003227708463807649
6669.151644962561,0.0025547373267818083,0.003183697466477204
6669.152644734483,0.0025583985287100366,0.003137785721446145
6669.153644506406,0.002563812906731847,0.00309046432920103
6669.154644278328,0.002570833915941305,0.0030422362807149507
6669.155644050251,0.002579290589672319,0.0029936078382613624
6669.156643822174,0.0025889904866049926,0.0029450802523924196
6669.157643594097,0.0025997231246024837,0.002897142066899137
6669.15864336602,0.002611263813292338,0.002850262198101889
6669.159643137942,0.0026233777694501027,0.0028048839003875638
6669.160642909865,0.0026358243948365655,0.0027614196773630886
6669.161642681788,0.002648361609757899,0.0027202471679173288
6669.162642453711,0.002660750151961258,0.0026817060054148243
6669.163642225633,0.0026727577552373752,0.002646095603957203
6669.164641997556,0.0026841631229051373,0.002613673779639477
6669.165641769479,0.002694759626174265,0.002584656085077455
6669.166641541402,0.0027043586858024903,0.002559215729978799
6669.167641313325,0.0027127928193766914,0.002537483974160978
6669.168641085247,0.0027199183393707554,0.0025195509040300454
6669.16964085717,0.002725617667667979,0.002505466536533082
6669.170640629092,0.002729801209346639,0.002495242232396912
6669.171640401015,0.0027324087248899757,0.0024888524326530694
6669.172640172938,0.0027334101580271724,0.002486236750967564
6669.173639944861,0.0027328059002402955,0.002487302455316836
6669.174639716784,0.002730626485549043,0.0024919273477987634
6669.175639488706,0.002726931702365757,0.002499962995344084
6669.176639260629,0.0027218090962985767,0.0025112381920872826
6669.177639032552,0.002715371853731606,0.0025255624794217842
6669.178638804475,0.0027077561193452012,0.002542729533575279
6669.179638576397,0.0026991178801241333,0.0025625202411173305
6669.18063834832,0.0026896295883235576,0.002584705299969751
6669.1816381202425,0.0026794766723322724,0.002609047218942638
6669.182637892166,0.002668854024306875,0.0026353016725359124
6669.183637664089,0.002657962502457873,0.002663218289257675
6669.184637436011,0.0026470054683539416,0.0026925410490770546
6669.185637207934,0.0026361853916322744,0.00272300849078142
6669.186636979856,0.00262570057737554,0.002754353900077054
6669.18763675178,0.0026157420823299388,0.002786305614848516
6669.188636523702,0.002606490872686757,0.0028185875677847905
6669.189636295625,0.002598115249845589,0.0028509201765708828
6669.190636067548,0.0025907685549215824,0.0028830216775262737
6669.19163583947,0.0025845871676192437,0.0029146099811294232
6669.192635611393,0.002579688830801901,0.0029454051022086286
6669.193635383316,0.002576171343953842,0.0029751321734933756
6669.194635155239,0.002574111669301102,0.003003524990047371
6669.195634927161,0.0025735654824741035,0.003030329967066389
6669.196634699084,0.0025745671758790724,0.003055310335460015
6669.197634471007,0.002577130292839911,0.003078250349470991
6669.19863424293,0.002581248345663178,0.003098959240971523
6669.199634014853,0.0025868959572799156,0.0031172746456249907
6669.200633786775,0.0025940302569790164,0.0031330652706153977
6669.201633558698,0.0026025924472466828,0.0031462326660376314
6669.20263333062,0.00261250944498734,0.003156712057466207
6669.203633102543,0.0026236955002160024,0.0031644722497852127
6669.204632874466,0.0026360537160145044,0.0031695146220343962
6669.205632646389,0.00264947742735871,0.0031718712454718427
6669.206632418312,0.0026638514314843175,0.003171602212012969
6669.207632190234,0.002679053096462723,0.003168792347516432
6669.208631962157,0.0026949534083569346,0.003163547556581294
6669.20963173408,0.0027114180438047135,0.003155991065399745
6669.210631506003,0.002728308566250084,0.003146259794548135
6669.211631277925,0.002745483837274998,0.003134501024063645
6669.212631049848,0.0027628017051187607,0.0031208694347672635
6669.2136308217705,0.0027801209792692994,0.003105524550792288
6669.214630593694,0.002797303638772864,0.003088628584578151
6669.215630365617,0.0028142171766224224,0.003070344684277753
6669.216630137539,0.0028307369605100894,0.0030508355772626817
6669.217629909462,0.00284674848073413,0.0030302625800980093
6669.218629681384,0.002862149351408353,0.0030087849125358408
6669.219629453308,0.0028768509328344393,0.002986559222326863
6669.22062922523,0.002890779448831295,0.0029637392069655705
6669.221628997153,0.002903876473613824,0.0029404752165315792
6669.222628769076,0.002916098660026322,0.002916913746008514
6669.223628540998,0.002927416599733971,0.0028931967651302714
6669.224628312921,0.0029378127742758537,0.0028694608613726216
6669.225628084844,0.0029472786710794145,0.002845836180384025
6669.226627856767,0.002955811264670148,0.0028224451644917564
6669.227627628689,0.0029634091605168673,0.0027994011339300237
6669.228627400612,0.0029700687469533023,0.002776806818538142
6669.229627172535,0.0029757806951752194,0.0027547530091701724
6669.230626944458,0.0029805270945126076,0.0027333175327618237
6669.231626716381,0.0029842794329212334,0.002712564742507135
6669.232626488303,0.0029869975598551483,0.002692545662277101
6669.233626260226,0.002988629707770205,0.0026732988601284916
6669.234626032148,0.0029891135865065008,0.0026548520665833925
6669.235625804071,0.002988378496735816,0.0026372244985153333
6669.236625575994,0.002986348346904682,0.0026204297931339353
6669.237625347917,0.002982945416614655,0.002604479398434152
6669.23862511984,0.0029780946913331753,0.0025893862151040946
6669.239624891762,0.002971728590555988,0.0025751682484189383
6669.240624663685,0.0029637919087057004,0.0025618520065271056
6669.241624435608,0.0029542467735796784,0.002549475373569382
6669.242624207531,0.0029430774068611057,0.0025380897028233983
6669.243623979453,0.0029302944632033767,0.0025277609300681397
6669.244623751376,0.002915938735390315,0.0025185695991266715
6669.2456235232985,0.00290008403097762,0.0025106097982104296
6669.246623295222,0.0028828390426546176,0.0025039871000461025
6669.247623067145,0.0028643480639771405,0.0024988156638896023
6669.248622839067,0.0028447904619263724,0.00249521468937892
6669.24962261099,0.0028243789025850933,0.0024933044167126965
6669.250622382912,0.0028033564101238475,0.002493201855216739
6669.251622154836,0.0027819924003040443,0.002495016400861372
6669.252621926758,0.002760577862942684,0.002498845477175556
6669.253621698681,0.002739419880443489,0.0025047703076324685
6669.254621470604,0.0027188356691432956,0.0025128519089281094
6669.255621242526,0.002699146316490715,0.0025231273951924226
6669.256621014449,0.002680670358974595,0.002535606708350168
6669.257620786372,0.0026637173169560082,0.0025502699267560104
6669.258620558295,0.002648581295614292,0.00256706532436762
6669.259620330217,0.0026355347791750345,0.0025859083327309557
6669.26062010214,0.0026248227635067246,0.0026066814997359466
6669.261619874063,0.002616657368267204,0.0026292354619269456
6669.262619645986,0.0026112130528248,0.002653390863660809
6669.263619417909,0.0026086225531113502,0.0026789410706018887
6669.264619189831,0.0026089736643290077,0.002705655455632129
6669.265618961754,0.002612306998089558,0.0027332830185447317
6669.266618733676,0.0026186148184232858,0.0027615561530758208
6669.2676185056,0.0026278410043236214,0.0027901944601333405
6669.268618277522,0.0026398821182311303,0.0028189085653009434
6669.269618049445,0.0026545895058530124,0.0028474039129313673
6669.270617821368,0.002671772319191534,0.002875384512176969
6669.27161759329,0.002691201335483124,0.002902556631241661
6669.272617365214,0.002712613439907221,0.002928632463832019
6669.273617137136,0.002735716648975943,0.002953333808516229
6669.274616909059,0.002760195563631237,0.0029763958089520904
6669.275616680981,0.0027857171488544956,0.0029975707977530686
6669.276616452904,0.0028119367432356966,0.0030166322533489685
6669.2776162248265,0.0028385042069956836,0.003033378815919329
6669.27861599675,0.002865070114339258,0.003047638236280085
6669.279615768673,0.0028912918881400375,0.0030592710759820775
6669.280615540595,0.0029168397744612057,0.0030681739545486146
6669.281615312518,0.0029414025694047006,0.0030742821545388307
6669.28261508444,0.0029646930328984956,0.003077571439372525
6669.283614856364,0.0029864529355990606,0.0030780590001238
6669.284614628286,0.0030064576758259084,0.0030758035101728642
6669.285614400209,0.0030245203776148653,0.003070904310885084
6669.286614172132,0.0030404953563129976,0.0030634997615964134
6669.287613944054,0.003054280834226279,0.003053764766006105
6669.288613715977,0.003065820804000639,0.003041907461077476
6669.2896134879,0.0030751059509204386,0.0030281650542422094
6669.290613259823,0.0030821735529481544,0.0030127988269790375
6669.291613031745,0.003087106299418282,0.0029960883747189118
6669.292612803668,0.003090030014147279,0.0029783252144850087
6669.293612575591,0.0030911103163285816,0.0029598059545753418
6669.294612347514,0.0030905482822721248,0.002940825270685648
6669.295612119437,0.0030885751839800314,0.0029216689592338556
6669.296611891359,0.003085446389182409,0.002902607336945766
6669.297611663282,0.0030814345184271286,0.002883889223695085
6669.298611435204,0.0030768219744123112,0.002865736688536458
6669.299611207128,0.003071893003832128,0.0028483406726396918
6669.30061097905,0.0030669255284874707,0.0028318575469016604
6669.301610750973,0.003062183056270029,0.0028164066300487606
6669.302610522896,0.0030579070041063298,0.002802068682317891
6669.303610294818,0.003054309720171758,0.002788885385480329
6669.304610066742,0.0030515684099771422,0.0027768598121794357
6669.305609838664,0.0030498200888759677,0.002765957873173296
6669.306609610587,0.0030491576279531394,0.002756110707110478
6669.307609382509,0.0030496269367509257,0.0027472179428831684
6669.308609154432,0.003051225319923198,0.0027391517193760075
6669.3096089263545,0.003053901028986444,0.002731761293725743
6669.310608698278,0.003057553988635134,0.0027248780240259436
6669.311608470201,0.0030620376262337854,0.0027183205047041563
6669.312608242123,0.0030671617101343477,0.0027118996729798878
6669.313608014046,0.0030726961225961526,0.0027054237667486917
6669.314607785968,0.0030783755338223404,0.0026987030600910495
6669.315607557892,0.00308390496975462,0.002691554320532995
6669.316607329814,0.0030889662570878756,0.002683804938726884
6669.317607101737,0.0030932252879348173,0.002675296690888737
6669.31860687366,0.0030963399928366675,0.002665889101797486
6669.319606645582,0.003097968860233558,0.0026554623682071574
6669.320606417505,0.003097779798692471,0.002643919775756014
6669.321606189428,0.003095459106567312,0.0026311895129681505
6669.322605961351,0.0030907202911651514,0.0026172257884825956
6669.323605733273,0.003083312465851171,0.002602009219633092
6669.324605505196,0.0030730280575838004,0.002585546564325132
6669.325605277119,0.003059709586313353,0.002567869956877099
6669.326605049042,0.0030432553196425194,0.0025490358411024362
6669.327604820965,0.0030236236431406965,0.0025291237770869064
6669.328604592887,0.00300083602229248,0.002508235258187747
6669.32960436481,0.002974978485908088,0.0024864926239230875
6669.330604136732,0.002946201638536096,0.0024640380928800075
6669.331603908656,0.002914719292301449,0.0024410328686386346
6669.332603680578,0.002880805868355739,0.00241765619662709
6669.333603452501,0.002844792732467183,0.0023941041894659635
6669.334603224424,0.0028070635922469423,0.0023705882261527552
6669.335602996346,0.002768049016705116,0.002347332785053436
6669.33660276827,0.002728220090116495,0.002324572665900569
6669.337602540192,0.002688081222262765,0.0023025496397825647
6669.338602312115,0.0026481622013806456,0.00228150860995294
6669.339602084037,0.00260900965479027,0.002261693381268924
6669.34060185596,0.002571178140901027,0.002243342145574066
6669.3416016278825,0.0025352211177057035,0.0022266828065134973
6669.342601399806,0.0025016820113731787,0.002211928288280266
6669.343601171729,0.0024710855618053653,0.002199271984841404
6669.344600943651,0.0024439295833799646,0.0021888834946952266
6669.345600715574,0.002420677258172196,0.002180904754478232
6669.346600487496,0.0024017500543518514,0.0021754466539332102
6669.34760025942,0.0023875213221163294,0.002172586203642405
6669.348600031342,0.002378310580530398,0.002172364335539557
6669.349599803265,0.002374378492566341,0.0021747844267867773
6669.350599575188,0.002375922534746533,0.0021798116322427705
6669.35159934711,0.0023830733854843023,0.0021873730877391023
6669.352599119034,0.002395892064160477,0.0021973590140019787
6669.353598890956,0.0024143678519918436,0.002209624712230046
6669.354598662879,0.0024384170327508216,0.002223993396572332
6669.355598434801,0.002467882512650855,0.002240259761821885
6669.356598206724,0.002502534400751378,0.002258194146898558
6669.357597978647,0.002542071637030268,0.0022775471372027557
6669.35859775057,0.00258612473673614,0.0022980544609986736
6669.359597522493,0.0026342596778376553,0.002319442071960269
6669.360597294415,0.0026859829010916986,0.00234143134639415
6669.361597066338,0.002740747335926688,0.002363744332151212
6669.36259683826,0.002797959335712168,0.0023861089653965262
6669.363596610184,0.0028569864188476325,0.00240826414839416
6669.364596382106,0.0029171657477272345,0.002429964580552064
6669.365596154029,0.002977813295435032,0.0024509852474765234
6669.366595925952,0.003038233634509494,0.002471125473398058
6669.367595697874,0.003097730252711124,0.002490212428316301
6669.368595469798,0.0031556162755047206,0.002508103973284283
6669.36959524172,0.003211225447384993,0.0025246907379392457
6669.370595013643,0.0032639231781878496,0.0025398973460297562
6669.371594785565,0.003313117393107903,0.0025536827256016676
6669.372594557488,0.0033582688519226854,0.002566039459115882
6669.3735943294105,0.003398900552788631,0.0025769921527024446
6669.374594101334,0.003434605836828798,0.002586594842920853
6669.375593873257,0.0034650548647434214,0.002594927516173007
6669.376593645179,0.0034899992192825675,0.0026020918781422472
6669.377593417102,0.0035092744707178234,0.0026082065633435325
6669.378593189024,0.003522800622073839,0.002613402014993868
6669.379592960948,0.0035305804368749587,0.0026178152926559415
6669.38059273287,0.0035326957555108446,0.0026215850725253664
6669.381592504793,0.003529302024900459,0.0026248470906248215
6669.382592276716,0.0035206213700669626,0.0026277302484821
6669.383592048638,0.0035069345878053723,0.00263035355353171
6669.384591820562,0.0034885724380630248,0.002632823994963064
6669.385591592484,0.0034659065778285146,0.002635235366805125
6669.386591364407,0.0034393404508917804,0.0026376679716381144
6669.387591136329,0.003409300419358804,0.002640189094726483
6669.388590908252,0.0033762273926599296,0.002642854127672492
6669.389590680175,0.003340569169621866,0.0026457082238122765
6669.390590452098,0.0033027736604428256,0.0026487883689390855
6669.391590224021,0.0032632831095932044,0.0026521257442867962
6669.392589995943,0.003222529400516557,0.0026557482410199704
6669.393589767866,0.0031809304736690274,0.002659682956235059
6669.394589539788,0.003138887821111493,0.002663958473062567
6669.395589311712,0.003096784944389381,0.0026686067287126757
6669.396589083634,0.003054986594164889,0.002673664314227558
6669.397588855557,0.003013838561068806,0.0026791731060066626
6669.39858862748,0.0029736677680318965,0.002685180181629061
6669.399588399402,0.0029347824284945492,0.002691737029853732
6669.400588171326,0.002897472069984799,0.0026988981364330583
6669.401587943248,0.0028620072607216285,0.0027067190925946154
6669.402587715171,0.0028286389102449186,0.002715254399269021
6669.403587487093,0.0027975970511971765,0.002724555121121413
6669.404587259016,0.002769089064589058,0.0027346665045829737
6669.405587030939,0.002743297388278064,0.0027456256414498227
6669.406586802862,0.002720376825399459,0.0027574592476141808
6669.407586574785,0.002700451620245075,0.0027701816363517756
6669.408586346707,0.0026836124918499958,0.002783792986199379
6669.40958611863,0.00266991382770567,0.0027982780125256007
6669.410585890553,0.0026593712535285608,0.002813605137220553
6669.411585662476,0.0026519598011218717,0.002829726220939877
6669.412585434398,0.0026476128733746358,0.0028465768856691283
6669.413585206321,0.0026462221449705587,0.0028640774135192046
6669.414584978244,0.0026476384580354354,0.002882134173359432
6669.415584750166,0.0026516736981395447,0.002900641519710837
6669.41658452209,0.0026581035719806636,0.0029194841241238015
6669.417584294012,0.0026666711491912065,0.0029385397084161985
6669.418584065935,0.0026770909938775723,0.002957682131415315
6669.419583837857,0.002689053724176725,0.0029767847406241324
6669.42058360978,0.0027022308938500664,0.0029957238484216745
6669.421583381703,0.002716280146209246,0.00301438214390463
6669.422583153626,0.0027308506168748,0.003032651833940402
6669.4235829255485,0.00274558856107153,0.0030504373351619156
6669.424582697471,0.00276014316828016,0.003067657391811328
6669.425582469394,0.002774172511981066,0.003084246547066535
6669.426582241316,0.002787349568546387,0.0031001559455729267
6669.42758201324,0.0027993682260738723,0.003115353493095588
6669.428581785162,0.0028099491895457124,0.0031298234336501595
6669.429581557085,0.002818845669108761,0.0031435654205530534
6669.430581329008,0.0028258487070923913,0.00315659316402089
6669.43158110093,0.0028307919639525116,0.0031689327304971404
6669.432580872854,0.0028335557671023133,0.0031806205315797367
6669.433580644776,0.002834070240381129,0.003191700984068066
6669.434580416699,0.0028323173607522037,0.003202223794782145
6669.435580188621,0.0028283318177202304,0.003212240857330082
6669.436579960544,0.0028222005841575075,0.003221802820068579
6669.437579732467,0.0028140611530687565,0.0032309554479668617
6669.43857950439,0.0028040984485897267,0.00323973593751579
6669.4395792763125,0.0027925404717248315,0.0032481693610925694
6669.440579048235,0.0027796527918386277,0.003256265417498462
6669.441578820158,0.0027657320474265444,0.003264015645435321
6669.442578592081,0.002751098669789787,0.0032713912240306155
6669.443578364004,0.0027360890822454003,0.003278341451617681
6669.444578135926,0.002721047649837622,0.0032847929670390373
6669.445577907849,0.002706318654017838,0.003290649763156256
6669.446577679772,0.0026922385384148093,0.0032957940463815157
6669.447577451694,0.002679128623490997,0.00330008800687812
6669.448577223618,0.0026672884398653476,0.003303376555011932
6669.44957699554,0.0026569897990075912,0.0033054910419972627
6669.450576767463,0.0026484717055328373,0.0033062539308273313
6669.451576539385,0.0026419362020153477,0.00330548432487743
6669.452576311308,0.002637545211849122,0.0033030041917973163
6669.453576083231,0.0026354184113783975,0.0032986450502996037
6669.454575855154,0.0026356321295669363,0.0032922548422926893
6669.4555756270765,0.00263821924396276,0.0032837047016885837
6669.456575398999,0.002643170015447889,0.0032728953403619284
6669.457575170922,0.0026504337869645575,0.003259762782902882
6669.458574942844,0.002659921463043082,0.00324428318516165
6669.459574714768,0.0026715086750620834,0.003226476476000047
6669.46057448669,0.002685039514958295,0.003206408598841398
6669.461574258613,0.002700330700225632,0.0031841922222965377
6669.462574030536,0.002717176029441483,0.0031599859116113846
6669.463573802458,0.0027353509936119415,0.0031339918524729495
6669.464573574382,0.002754617413035705,0.0031064522749597832
6669.465573346304,0.0027747279807141196,0.003077644752871831
6669.466573118227,0.002795430621146286,0.003047876563038468
6669.467572890149,0.002816472604152694,0.003017478286076621
6669.468572662072,0.002837604377323551,0.0029867968358135532
6669.469572433995,0.002858583115408787,0.002956188132635219
6669.470572205918,0.0028791760390604266,0.002926009662951957
6669.4715719778405,0.002899163596093187,0.002896613163035787
6669.472571749763,0.0029183425876134887,0.0028683376355450483
6669.473571521686,0.002936529264145808,0.002841502876460078
6669.474571293609,0.002953562353190393,0.0028164036682462464
6669.475571065532,0.002969305938152029,0.0027933047690812474
6669.476570837454,0.002983652082914507,0.0027724367830835824
6669.477570609377,0.002996523063240684,0.0027539929332094345
6669.4785703813,0.0030078730202546065,0.0027381266931920684
6669.479570153222,0.003017688817686019,0.002724950190701691
6669.480569925146,0.0030259898950676014,0.0027145332919260726
6669.481569697068,0.0030328269707311064,0.0027069033210752984
6669.482569468991,0.003038279542154648,0.0027020454289698563
6669.483569240913,0.003042452232314024,0.0026999036630032986
6669.484569012836,0.003045470119862422,0.0027003827871463493
6669.485568784759,0.0030474732548583113,0.00270335086238557
6669.486568556682,0.003048610598679909,0.002708642543629639
6669.4875683286045,0.0030490336484645846,0.002716062993333152
6669.488568100527,0.003048890026225184,0.002725392258328477
6669.48956787245,0.0030483173312115665,0.0027363899097650104
6669.490567644373,0.0030474375567021723,0.00274879972797579
6669.491567416296,0.003046352345381236,0.0027623542427944524
6669.492567188218,0.0030451393033758636,0.00277677899985054
6669.493566960141,0.0030438495246493205,0.00279179647367547
6669.494566732064,0.0030425064029092966,0.002807129563061953
6669.495566503987,0.003041105733851282,0.0028225045950621428
6669.49656627591,0.003039617047642686,0.002837653763440833
6669.497566047832,0.0030379860640218723,0.0028523169553272033
6669.498565819755,0.003036138117582903,0.002866242975104637
6669.499565591677,0.0030339823481726294,0.0028791902465582046
6669.5005653636,0.0030314164025884026,0.0028909271445585155
6669.501565135523,0.003028331372463323,0.002901232147750711
6669.502564907446,0.0030246167112415,0.002909893999595097
6669.5035646793685,0.003020164921741771,0.002916712040609941
6669.504564451291,0.003014875860409421,0.002921496862961277
6669.505564223214,0.0030086605428675164,0.002924071433322449
6669.506563995137,0.0030014443617158086,0.0029242727951809457
6669.50756376706,0.002993169664227763,0.002921954385711639
6669.508563538982,0.0029837976896927338,0.0029169889142527366
6669.509563310905,0.002973309913398541,0.002909271683270941
6669.510563082828,0.0029617088706608325,0.002898724194989582
6669.51156285475,0.0029490185407207974,0.002885297862263236
6669.512562626674,0.0029352843600845926,0.0028689776159535677
6669.513562398596,0.0029205729113603806,0.0028497851751250257
6669.514562170519,0.0029049713075925254,0.0028277817420851083
6669.515561942441,0.002888586272363112,0.0028030699202165514
6669.516561714364,0.0028715429003791314,0.002775794719547036
6669.517561486287,0.002853983070737118,0.0027461435856189808
6669.51856125821,0.0028360634859991266,0.0027143454425543217
6669.5195610301325,0.0028179533321202473,0.0026806687750779517
6669.520560802055,0.0027998315833419243,0.002645418785980387
6669.521560573978,0.0027818839923143945,0.002608933663016803
6669.522560345901,0.0027642998150327973,0.002571579990043918
6669.523560117824,0.002747268348112082,0.002533747358451653
6669.524559889746,0.002730975405304652,0.002495842282163929
6669.525559661669,0.0027155998993422473,0.0024582815803390226
6669.526559433592,0.002701310691597359,0.0024214854426425404
6669.527559205515,0.0026882638263662343,0.0023858704156454274
6669.528558977438,0.002676600213166051,0.002351842544435469
6669.52955874936,0.002666443790056564,0.0023197908775318995
6669.530558521283,0.0026579001836122516,0.0022900815015105547
6669.531558293205,0.0026510558445289284,0.0022630522185615367
6669.532558065128,0.002645977578119454,0.0022390079207031976
6669.533557837051,0.002642712337249712,0.002218216659113984
6669.534557608974,0.0026412871325108447,0.002200906371500066
6669.5355573808965,0.0026417089486028542,0.0021872622259210433
6669.536557152819,0.0026439646187379666,0.002177424563978405
6669.537556924742,0.0026480206654087685,0.002171487465526051
6669.538556696665,0.00265382314351706,0.002169497994582257
6669.539556468588,0.002661297530323404,0.002171456208481318
6669.54055624051,0.0026703487169752655,0.0021773160082534573
6669.541556012433,0.0026808611690742057,0.0021869868731790756
6669.542555784356,0.0026926993231341794,0.002200336466407207
6669.543555556279,0.002705708268831177,0.002217194041513842
6669.544555328202,0.002719714749352514,0.0022373545354736992
6669.545555100124,0.0027345285015322562,0.0022605832012040183
6669.546554872047,0.0027499439381876113,0.002286620608455823
6669.547554643969,0.0027657421352794754,0.002315187827716296
6669.548554415893,0.0027816930486893507,0.002345991613721902
6669.549554187815,0.002797557887633895,0.002378729426741801
6669.550553959738,0.0028130916199467838,0.002413094168970429
6669.5515537316605,0.0028280456440356763,0.002448778557009384
6669.552553503583,0.0028421706978412906,0.002485479077374297
6669.553553275506,0.0028552200758032997,0.0025228994680020294
6669.554553047429,0.002866953192137358,0.0025607536494795112
6669.555552819352,0.0028771394698962616,0.002598768023914767
6669.556552591274,0.00288556247339843,0.0026366830773957555
6669.557552363197,0.0028920241621322347,0.002674254249592815
6669.55855213512,0.002896349125486299,0.0027112520607943413
6669.559551907043,0.0028983886375895614,0.0027474615196165196
6669.560551678966,0.0028980243466514527,0.0027826808788340446
6669.561551450888,0.0028951714077473,0.002816719852107977
6669.562551222811,0.002889780898981544,0.0028493974394053203
6669.563550994733,0.0028818414149620023,0.0028805395357061688
6669.564550766656,0.00287137978365445,0.002909976526483041
6669.565550538579,0.0028584608899292186,0.002937541107667496
6669.566550310502,0.0028431866135808664,0.002963066595475838
6669.5675500824245,0.0028256939160282196,0.0029863859900003367
6669.568549854347,0.002806152154173811,0.0030073320089420317
6669.56954962627,0.0027847597564144453,0.0030257382178292963
6669.570549398193,0.0027617404364863964,0.0030414412708269284
6669.571549170116,0.002737339124923364,0.0030542841647916083
6669.572548942038,0.002711817770139389,0.00306412031827033
6669.573548713961,0.002685451121826163,0.0030708182304090186
6669.574548485884,0.0026585225829023856,0.003074266453469571
6669.575548257807,0.002631320217893781,0.0030743786163653013
6669.57654802973,0.0026041330213080155,0.0030710982569858215
6669.577547801652,0.0025772475495577586,0.0030644032581477547
6669.578547573575,0.002550945002158643,0.0030543097285289675
6669.579547345497,0.0025254988268311163,0.0030408752059453803
6669.580547117421,0.0025011729236337618,0.0030242010806012676
6669.581546889343,0.0024782205101734163,0.003004434160162375
6669.582546661266,0.002456883666434713,0.0029817673361726663
6669.5835464331885,0.0024373935178623267,0.00295643934659189
6669.584546205111,0.0024199709647361243,0.0029287336508847625
6669.585545977034,0.002404827836383301,0.0028989764476806935
6669.586545748957,0.0023921683360076432,0.002867533874145426
6669.58754552088,0.002382190635247572,0.0028348084287567426
6669.588545292802,0.0023750884628747923,0.0028012346559399054
6669.589545064725,0.0023710524983988654,0.0027672741239280953
6669.590544836648,0.00237027133993958,0.002733409719239545
6669.591544608571,0.002372931802844072,0.002700139282441393
6669.592544380494,0.002379218350519446,0.002667968632290664
6669.593544152416,0.0023893115507345533,0.0026374040688157047
6669.594543924339,0.002403385548171517,0.0026089444983706323
6669.595543696261,0.002421604618302126,0.0025830733722476858
6669.596543468184,0.0024441189190120994,0.002560250665571451
6669.597543240107,0.0024710595937872987,0.0025409051395481907
6669.59854301203,0.0025025334043130855,0.0025254271272357083
6669.5995427839525,0.0025386170808977503,0.002514162057987671
6669.600542555875,0.002579351584553083,0.002507404880487653
6669.601542327798,0.0026247364787432234,0.002505395459935945
6669.602542099721,0.0026747245958495787,0.0025083149340607656
6669.603541871644,0.0027292171374969053,0.002516282949965727
6669.604541643566,0.0027880592868081517,0.0025293556919542288
6669.605541415489,0.002851036375155491,0.002547524643546201
6669.606541187412,0.0029178706583405886,0.002570716082867771
6669.607540959335,0.0029882188099720807,0.002598791371458453
6669.608540731258,0.0030616703139536476,0.0026315481449172944
6669.60954050318,0.0031377470063560166,0.0026687225265555545
6669.610540275103,0.003215904042455774,0.0027099924491377917
6669.611540047025,0.0032955325254893845,0.0027549820935382336
6669.612539818949,0.0033759639487550975,0.0028032673579616663
6669.613539590871,0.003456476510829281,0.0028543821798973786
6669.614539362794,0.0035363032795840805,0.0029078254652443107
6669.6155391347165,0.0036146420904743137,0.0029630683466729695
6669.616538906639,0.0036906669585518572,0.003019561495307962
6669.617538678562,0.003763540679428704,0.0030767422446749343
6669.618538450485,0.0038324282292649813,0.0031340413622257556
6669.619538222408,0.0038965105756989305,0.003190889419236916
6669.62053799433,0.003954998569708859,0.003246722828928313
6669.621537766253,0.004007146656716409,0.0033009897005905143
6669.622537538176,0.004052266181973849,0.003353155674428742
6669.623537310099,0.004089738063941819,0.0034027098601173505
6669.624537082022,0.004119024590821359,0.003449170914888762
6669.625536853944,0.004139680081168421,0.003492093190705197
6669.626536625867,0.004151360149065677,0.0035310727877520143
6669.627536397789,0.004153829333611967,0.0035657532935549027
6669.628536169713,0.004146966901686453,0.00359583096342432
6669.629535941635,0.004130770710889956,0.003621059101130333
6669.630535713558,0.004105359099265418,0.0036412514298361414
6669.6315354854805,0.004070970816791393,0.003656284308152136
6669.632535257403,0.004027963019869062,0.0036660977306480743
6669.633535029327,0.003976807332446297,0.0036706951159470565
6669.634534801249,0.003918083973167855,0.0036701419031855012
6669.635534573172,0.0038524739804947548,0.0036645629786195835
6669.636534345094,0.0037807496184172986,0.0036541389945924066
6669.637534117017,0.0037037630819800687,0.0036391017386799398
6669.63853388894,0.0036224336507644796,0.0036197288135259575
6669.639533660863,0.0035377334942266266,0.0035963379294893147
6669.640533432786,0.0034506724189399597,0.003569281069470974
6669.641533204708,0.003362281923547301,0.0035389387009119497
6669.642532976631,0.003273598957496824,0.0035057141486063495
6669.643532748553,0.0031856497687045623,0.0034700282272300486
6669.644532520477,0.0030994341932197756,0.003432314228858599
6669.645532292399,0.0030159106967650416,0.0033930133184469392
6669.646532064322,0.0029359824332352135,0.003352570303006563
6669.6475318362445,0.0028604845540182314,0.003311429652914993
6669.648531608167,0.0027901729863477067,0.0032700316190874953
6669.64953138009,0.002725714880677174,0.0032288083210802168
6669.650531152013,0.0026676808874358843,0.003188179742056987
6669.651530923936,0.0026165393599862268,0.0031485496074931552
6669.652530695858,0.0025726525053851377,0.003110301134074121
6669.653530467781,0.002536274434364655,0.0030737926473625794
6669.654530239704,0.0025075510093763996,0.0030393531149260733
6669.655530011627,0.0024865213574268427,0.0030072777163963255
6669.65652978355,0.0024731208943991087,0.0029778236334232866
6669.657529555472,0.0024671856882439187,0.002951206263064944
6669.658529327395,0.0024684579685402483,0.0029275960364225045
6669.659529099317,0.002476592578638383,0.0029071159713462704
6669.660528871241,0.0024911641709427874,0.0028898400263840155
6669.661528643163,0.002511674966143942,0.002875792285905411
6669.662528415086,0.0025375629336216775,0.0028649470062445995
6669.6635281870085,0.0025682103034628274,0.002857229559960834
6669.664527958931,0.002602952380968261,0.0028525182901286343
6669.665527730855,0.002641086678855901,0.002850647227647866
6669.666527502777,0.0026818823928734807,0.0028514095685735564
6669.6675272747,0.0027245902303573055,0.0028545617865717546
6669.668527046622,0.002768452575559079,0.002859828264255281
6669.669526818545,0.002812713943175923,0.002866906341064686
6669.670526590468,0.002856631628535208,0.0028754716790683403
6669.671526362391,0.0028994864158402626,0.0028851838511980096
6669.672526134314,0.002940593164761943,0.0028956920784983012
6669.673525906236,0.002979311056680859,0.0029066410826859277
6669.674525678159,0.003015053229417405,0.002917677050376794
6669.675525450081,0.0030472954633758834,0.002928453702899238
6669.676525222005,0.00307558354105496,0.002938638430937832
6669.677524993927,0.0030995389370620796,0.0029479183952643997
6669.67852476585,0.0031188626128869166,0.0029560064233478257
6669.6795245377725,0.0031333368365608696,0.00296264646647786
6669.680524309695,0.0031428250680990504,0.002967618347037321
6669.681524081619,0.003147270045745242,0.0029707415328497134
6669.682523853541,0.003146690303182383,0.002971877725112845
6669.683523625464,0.003141175440996566,0.002970932134580554
6669.684523397386,0.003130880523927857,0.002967853439959062
6669.685523169309,0.0031160199458420785,0.002962632549714769
6669.686522941232,0.0030968610118664386,0.002955300378388702
6669.687522713155,0.0030737173823612183,0.0029459248608964374
6669.688522485078,0.0030469424557348665,0.002934607370634791
6669.689522257,0.003016922754534671,0.002921478635729154
6669.690522028923,0.0029840714015975404,0.0029066942170724325
6669.691521800845,0.0029488217933576525,0.0028904296304916436
6669.692521572769,0.0029116215705690817,0.0028728752345309927
6669.693521344691,0.0028729269519189335,0.0028542310387713373
6669.694521116614,0.0028331974520035942,0.0028347016084773746
6669.6955208885365,0.0027928909725897432,0.0028144912483972413
6669.696520660459,0.002752459236852615,0.002793799641213717
6669.697520432383,0.0027123435148677373,0.002772818100590409
6669.698520204305,0.002672970560667203,0.0027517265757219453
6669.699519976228,0.002634748670710328,0.002730691499256845
6669.70051974815,0.0025980638111518643,0.00270986449625344
6669.701519520073,0.0025632758463426026,0.0026893818913496506
6669.702519291996,0.0025307149920492287,0.002669364899249266
6669.703519063919,0.0025006786633340436,0.0026499203695288724
6669.704518835842,0.0024734288691702446,0.002631141960068679
6669.705518607764,0.002449190239029045,0.0026131116127231313
6669.706518379687,0.0024281486814863294,0.002595901198974014
6669.707518151609,0.0024104506053067923,0.0025795742041637044
6669.708517923533,0.002396202602152526,0.002564187334192548
6669.709517695455,0.0023854714909772147,0.0025497919550296917
6669.710517467378,0.0023782846371616876,0.002536435308708692
6669.7115172393005,0.0023746304819996394,0.0025241614903595776
6669.712517011223,0.002374459257799828,0.002513012212119282
6669.713516783147,0.0023776839081668796,0.0025030274022454693
6669.714516555069,0.0023841812583102195,0.002494245680798395
6669.715516326992,0.0023937934831026087,0.0024867047285432402
6669.716516098914,0.00240632991622839,0.0024804415413744855
6669.717515870837,0.0024215692393725584,0.0024754925400710085
6669.71851564276,0.002439262076853543,0.002471893477120656
6669.719515414683,0.002459133991602977,0.002469679061921038
6669.720515186606,0.002480888845421955,0.0024688822398709473
6669.721514958528,0.0025042124694422967,0.0024695331091713455
6669.722514730451,0.002528776593125479,0.0024716575135348383
6669.723514502373,0.0025542429904692418,0.0024752753950103793
6669.724514274297,0.0025802678100462525,0.0024803990345900737
6669.725514046219,0.002606506056423898,0.002487031347823888
6669.726513818142,0.0026326161819612164,0.0024951644221116428
6669.7275135900645,0.002658264731755966,0.0025047784662402895
6669.728513361987,0.0026831309710798655,0.002515841292797056
6669.729513133911,0.0027069114287943197,0.00252830839249892
6669.730512905833,0.002729324315861152,0.0025421236084179786
6669.731512677756,0.0027501138068297057,0.0025572203757305567
6669.732512449678,0.0027690541749928834,0.0025735234437231184
6669.733512221601,0.0027859537355627772,0.002590950942930815
6669.734511993524,0.0028006584901334682,0.002609416621208103
6669.735511765447,0.0028130553071634666,0.0026288320624101463
6669.73651153737,0.0028230744369603837,0.0026491087206270015
6669.737511309292,0.0028306911532389022,0.0026701596466716833
6669.738511081215,0.002835926339008222,0.0026919008414206
6669.739510853137,0.0028388458890279324,0.0027142522242057645
6669.740510625061,0.002839558868654752,0.0027371382404270945
6669.741510396983,0.002838214428011156,0.002760488153239613
6669.742510168906,0.0028349975143545317,0.0027842360738975637
6669.7435099408285,0.00283012347073158,0.0028083207780678623
6669.744509712751,0.0028238316730047025,0.002832685330866882
6669.745509484675,0.002816378430507686,0.0028572765241821315
6669.746509256597,0.0028080294278226823,0.0028820441429534575
6669.74750902852,0.002799052000528482,0.0029069401176011066
6669.748508800442,0.0027897075278047645,0.002931917649640911
6669.749508572365,0.002780244209189226,0.0029569303888640386
6669.750508344288,0.002770890480569353,0.002981931708839055
6669.751508116211,0.002761849311133612,0.0030068741092052625
6669.752507888134,0.0027532935952655603,0.003031708778164602
6669.753507660056,0.0027453627991529833,0.0030563853520053186
6669.754507431979,0.0027381609440749505,0.0030808518857674224
6669.755507203901,0.002731755929439253,0.0031050550022932253
6669.756506975825,0.002726180144876362,0.0031289401389352784
6669.757506747747,0.0027214322963214632,0.003152451790831021
6669.75850651967,0.0027174803510737477,0.0031755336750161622
6669.7595062915925,0.002714265459543455,0.0031981287979844825
6669.760506063515,0.002711706629764065,0.003220179463009666
6669.761505835439,0.002709705845644389,0.0032416272783887677
6669.762505607361,0.0027081532816764092,0.003262413227173499
6669.763505379284,0.0027069323017067386,0.0032824778417887145
6669.764505151206,0.002705924011470691,0.003301761497582483
6669.765504923129,0.002705011215717708,0.003320204805659027
6669.766504695052,0.002704081695559495,0.003337749057979744
6669.767504466975,0.0027030307869554664,0.003354336664779748
6669.768504238898,0.002701763308403483,0.003369911530146006
6669.76950401082,0.002700194930280336,0.0033844193340608728
6669.770503782743,0.002698253082515218,0.0033978077171085974
6669.771503554666,0.002695877468925613,0.0034100263850598872
6669.772503326589,0.0026930202209435304,0.0034210271661453194
6669.773503098511,0.0026896457091924466,0.003430764073228962
6669.774502870434,0.002685730048263885,0.003439193435808851
6669.7755026423565,0.0026812603618497077,0.0034462741437266916
6669.776502414279,0.002676233901800961,0.0034519679842363415
6669.777502186203,0.0026706571288149963,0.0034562400054549986
6669.778501958125,0.0026645448628614663,0.0034590588497771845
6669.779501730048,0.0026579195939012068,0.003460397057010083
6669.78050150197,0.002650811008545238,0.0034602313830938013
6669.781501273893,0.0026432557445152196,0.0034585431852848605
6669.782501045816,0.0026352973390373915,0.0034553189038845637
6669.783500817739,0.002626986297184291,0.00345055064863848
6669.784500589662,0.002618380186863415,0.0034442368760136057
6669.785500361584,0.0026095436737505187,0.003436383113274277
6669.786500133507,0.002600548422326501,0.0034270026621167765
6669.787499905429,0.0025914727912449698,0.003416117232578622
6669.788499677353,0.002582401255509491,0.003403757523891009
6669.789499449275,0.002573423515120615,0.003389963840444756
6669.790499221198,0.002564633293909717,0.0033747868527106936
6669.7914989931205,0.0025561268669561563,0.0033582885698037537
6669.792498765043,0.0025480013658426503,0.003340543514403105
6669.793498536967,0.0025403529082364752,0.003321640019439533
6669.794498308889,0.0025332745997300563,0.003301681513550547
6669.795498080812,0.002526854464010031,0.0032807876287631863
6669.796497852734,0.0025211733579740144,0.0032590949477152827
6669.797497624657,0.0025163029141762085,0.0032367572094940053
6669.79849739658,0.00251230354285443,0.0032139448194096636
6669.799497168503,0.0025092225482075898,0.003190843563686542
6669.800496940426,0.00250709247124101,0.003167652501617087
6669.801496712348,0.0025059298316969223,0.0031445810670907184
6669.802496484271,0.002505734462187461,0.0031218454429618758
6669.803496256194,0.002506489590176658,0.0030996642923709727
6669.804496028117,0.00250816274413477,0.0030782539757395395
6669.805495800039,0.0025107074713410144,0.003057823459833728
6669.806495571962,0.0025140657775666307,0.0030385691996648143
6669.8074953438845,0.002518171136417087,0.0030206703001372484
6669.808495115807,0.0025229518684424927,0.0030042842327979466
6669.809494887731,0.0025283346620032774,0.0029895433172422384
6669.810494659653,0.002534248002308396,0.0029765521034438094
6669.811494431576,0.0025406252932165686,0.0029653857256400113
6669.812494203498,0.002547407498489211,0.002956089244044249
6669.813493975421,0.0025545451825537465,0.002948677939685657
6669.814493747344,0.0025619998746560686,0.002943138470171931
6669.815493519267,0.002569744712201739,0.002939430736711527
6669.8164932911895,0.0025777643558746845,0.0029374902775424487
6669.817493063112,0.002586054217591399,0.0029372310066556693
6669.818492835035,0.0025946190898331087,0.0029385481561570886
6669.819492606957,0.0026034712988556243,0.0029413213347416135
6669.820492378881,0.002612628524082748,0.0029454176600412943
6669.821492150803,0.002622111432017097,0.0029506949487469744
6669.822491922726,0.0026319412613094333,0.002957004957259465
6669.8234916946485,0.0026421374732960926,0.002964196663205056
6669.824491466571,0.0026527155696063976,0.0029721195691334375
6669.825491238495,0.0026636851816996604,0.0029806269875511902
6669.826491010417,0.0026750485360857177,0.0029895792154755576
6669.82749078234,0.002686799372315705,0.002998846428536616
6669.828490554262,0.0026989223425330977,0.003008311056336912
6669.829490326185,0.0027113928736680116,0.0030178693948031336
6669.830490098108,0.002724177442795143,0.0030274322889745314
6669.831489870031,0.00273723420376595,0.0030369248436805077
6669.8324896419535,0.0027505139033033718,0.0030462852251026294
6669.833489413876,0.0027639610328751064,0.00305546267145149
6669.834489185799,0.002777515172190065,0.0030644148578791996
6669.835488957722,0.002791112478755897,0.003073104800269796
6669.836488729645,0.002804687256526981,0.003081497542298342
6669.837488501567,0.0028181735025211985,0.003089556909896833
6669.83848827349,0.0028315063048364353,0.0030972425965297558
6669.8394880454125,0.0028446229679579063,0.0031045077704838896
6669.840487817335,0.0028574637773148342,0.0031112973150802525
6669.841487589259,0.002869972378829488,0.003117546753993058
6669.842487361181,0.0028820958263240525,0.00312318187908483
6669.843487133104,0.002893784416481212,0.0031281190817467686
6669.844486905026,0.0029049914656602985,0.0031322663861187926
6669.845486676949,0.0029156731830797286,0.0031355251818514507
6669.846486448872,0.0029257887731929007,0.0031377926380205703
6669.847486220795,0.0029353008625268603,0.003138964742455598
6669.8484859927175,0.0029441762920321716,0.003138939864493919
6669.84948576464,0.0029523872525701136,0.0031376227022971073
6669.850485536563,0.002959912680680745,0.003134928454037355
6669.851485308486,0.0029667397786772303,0.0031307870360176735
6669.852485080409,0.0029728654855605795,0.0031251471551473234
6669.853484852331,0.0029782977272254105,0.0031179800408268174
6669.854484624254,0.002983056329913625,0.003109282664912551
6669.8554843961765,0.002987173563388373,0.0030990803171508288
6669.8564841681,0.002990694338283558,0.003087428430882733
6669.857483940023,0.002993676084800258,0.003074413561415491
6669.858483711945,0.002996188304657155,0.003060153429902831
6669.859483483868,0.002998311761332521,0.0030447959837191225
6669.86048325579,0.0030001372854234322,0.003028517485541351
6669.861483027713,0.003001764217950193,0.003011519700945008
6669.862482799636,0.0030032985756691826,0.0029940262892336734
6669.863482571559,0.0030048510806856277,0.0029762785168630443
6669.8644823434815,0.003006535230326795,0.0029585304182650047
6669.865482115404,0.0030084655731087103,0.0029410435297968027
6669.866481887327,0.0030107563007006812,0.0029240813234509785
6669.86748165925,0.003013520177512512,0.0029079034791516865
6669.868481431173,0.0030168677259154253,0.002892760159317867
6669.869481203095,0.003020906488804934,0.002878886465737678
6669.870480975018,0.003025740138677801,0.0028664972425527704
6669.8714807469405,0.003031467228579569,0.0028557823415182653
6669.872480518863,0.003038179482195631,0.0028469024146107005
6669.873480290787,0.0030459596456097093,0.0028399852747356545
6669.874480062709,0.003054879009053982,0.0028351228782614295
6669.875479834632,0.0030649947295392967,0.002832369019948508
6669.876479606554,0.0030763470667478747,0.002831737864846686
6669.877479378477,0.0030889566209563687,0.002833203450205518
6669.8784791504,0.003102821655849697,0.002836700262648572
6669.879478922323,0.0031179156060378824,0.002842124931045151
6669.8804786942455,0.0031341848970548158,0.002849338990263637
6669.881478466168,0.0031515472230799787,0.00285817260161348
6669.882478238091,0.0031698904234428575,0.0028684290886809524
6669.883478010014,0.0031890720806751977,0.002879890149679722
6669.884477781937,0.0032089199443564,0.0028923216029978337
6669.885477553859,0.0032292332725478447,0.0029054794913934024
6669.886477325782,0.003249785166429427,0.002919116328412908
6669.8874770977045,0.0032703259338914704,0.002932987254622427
6669.888476869628,0.0032905874501266076,0.0029468558996544876
6669.889476641551,0.003310288412532234,0.0029604997961060007
6669.890476413473,0.00332914034310028,0.0029737152257568377
6669.891476185396,0.0033468541773407044,0.0029863213929895247
6669.892475957318,0.003363147271008562,0.0029981638405187252
6669.893475729241,0.003377750628242243,0.0030091170562184526
6669.894475501164,0.0033904161011778593,0.0030190862462238055
6669.895475273087,0.0034009232507338717,0.0030280082596818698
6669.8964750450095,0.0034090855212423046,0.003035851656071729
6669.897474816932,0.0034147553869476855,0.0030426159104235285
6669.898474588855,0.0034178281757878616,0.0030483297547216318
6669.899474360778,0.0034182443616017147,0.0030530486717218965
6669.900474132701,0.0034159902409617473,0.003056851602906403
6669.901473904623,0.0034110970584088083,0.00305983698679095
6669.902473676546,0.003403638768873353,0.0030621182799593243
6669.9034734484685,0.0033937286924360403,0.0030638191323659873
6669.904473220392,0.0033815153307806597,0.003065068410511921
6669.905472992315,0.003367177603258844,0.00306599528476707
6669.906472764237,0.0033509197382631923,0.003066724593213347
6669.90747253616,0.0033329660298431307,0.0030673726526638098
6669.908472308082,0.0033135556423637305,0.003068043632825243
6669.909472080006,0.0032929376045594833,0.0030688265763907123
6669.910471851928,0.0032713660660702313,0.0030697931446389565
6669.911471623851,0.003249095808246261,0.0030709961694597105
6669.9124713957735,0.003226377941928836,0.0030724690653743977
6669.913471167696,0.003203455718328485,0.0030742260905656173
6669.914470939619,0.0031805604287134443,0.003076263367576967
6669.915470711542,0.003157907446266485,0.0030785605216483505
6669.916470483465,0.0031356925274368414,0.003081082794269662
6669.917470255387,0.0031140885141559336,0.0030837835275394714
6669.91847002731,0.0030932425628984123,0.003086606949304343
6669.9194697992325,0.003073273989807261,0.0030894911950770545
6669.920469571156,0.003054272786688707,0.00309237148844606
6669.921469343079,0.0030362988454945066,0.003095183389025524
6669.922469115001,0.003019381920760236,0.003097866024876768
6669.923468886924,0.0030035223394432485,0.003100365257028361
6669.924468658846,0.0029886924299521423,0.0031026367575776453
6669.925468430769,0.0029748385994045876,0.003104648994725151
6669.926468202692,0.0029618839513974675,0.0031063860978410695
6669.927467974615,0.002949731312091546,0.0031078505357116453
6669.9284677465375,0.0029382665270593425,0.0031090655065151795
6669.92946751846,0.002927361901577038,0.0031100769195329288
6669.930467290383,0.002916879666076033,0.003110954832481257
6669.931467062306,0.0029066753480966067,0.0031117941889086185
6669.932466834229,0.002896600934099738,0.0031127147018292782
6669.933466606151,0.002886507727399124,0.003113859769544191
6669.934466378074,0.002876248861029304,0.003115394357701571
6669.9354661499965,0.0028656814940826326,0.003117501801382578
6669.93646592192,0.0028546687757828055,0.003120379492878023
6669.937465693843,0.0028430816788896514,0.003124233479081479
6669.938465465765,0.002830800786797577,0.003129272101777226
6669.939465237688,0.0028177180905826597,0.0031356989166699163
6669.94046500961,0.0028037388309161576,0.003143705177121001
6669.941464781534,0.002788783403035071,0.0031534621788345384
6669.942464553456,0.0027727893231094545,0.003165113762480458
6669.943464325379,0.0027557132377622954,0.003178769265586416
6669.9444640973015,0.002737532956187946,0.003194497196779652
6669.945463869224,0.0027182494897965534,0.0032123198834289753
6669.946463641147,0.0026978890773364846,0.0032322093204245565
6669.94746341307,0.002676505140411834,0.0032540844022813866
6669.948463184993,0.0026541800599856405,0.0032778096380750767
6669.949462956915,0.0026310266126204087,0.003303195353418327
6669.950462728838,0.0026071888825955855,0.003329999323669212
6669.9514625007605,0.002582842475628376,0.0033579297747376806
6669.952462272684,0.002558193881242372,0.0033866496934661133
6669.953462044607,0.002533478852070389,0.0034157823618535706
6669.954461816529,0.0025089597027712156,0.0034449179731986302
6669.955461588452,0.0024849214971506377,0.003473621148092677
6669.956461360374,0.0024616671869435326,0.0035014391674061795
6669.957461132297,0.0024395118633849036,0.003527910752300454
6669.95846090422,0.002418776352308766,0.003552575205667301
6669.959460676143,0.002399780408766901,0.0035749816762834625
6669.9604604480655,0.0023828357549043307,0.0035946982513398707
6669.961460219988,0.0023682391791909965,0.0036113205682772862
6669.962459991911,0.0023562658936416795,0.003624479675763518
6669.963459763834,0.0023471633219150217,0.003633848939441314
6669.964459535757,0.00234114545249807,0.0036391498440779668
6669.965459307679,0.002338387846174579,0.0036401565883025506
6669.966459079602,0.0023390233578652027,0.0036366994312131903
6669.9674588515245,0.002343138623509582,0.0036286668339195883
6669.968458623448,0.0023507713526457643,0.003616006501416172
6669.969458395371,0.0023619084430875166,0.0035987254465620205
6669.970458167293,0.0023764849079977854,0.0035768891957790967
6669.971457939216,0.0023943835966906387,0.003550620265570186
6669.972457711138,0.0024154357007459084,0.0035200960458040813
6669.973457483062,0.0024394220544912974,0.0034855461945672425
6669.974457254984,0.0024660752483550603,0.003447249575284988
6669.975457026907,0.002495082561710081,0.003405530687603179
6669.9764567988295,0.0025260896876939157,0.003360755505240338
6669.977456570752,0.0025587051842857317,0.0033133266534529906
6669.978456342675,0.002592505567369481,0.0032636779210012496
6669.979456114598,0.0026270409704021854,0.003212268176411187
6669.980455886521,0.0026618413158311085,0.0031595748118244376
6669.981455658443,0.0026964229505375046,0.0031060868514196037
6669.982455430366,0.002730295680127216,0.0030522978493574965
6669.9834552022885,0.00276297010270149,0.002998698691348795
6669.984454974212,0.0027939651066069536,0.0029457704145464093
6669.985454746135,0.002822815372874257,0.002893977169088181
6669.986454518057,0.002849078723091146,0.0028437594587066525
6669.98745428998,0.002872343178315876,0.0027955278149418344
6669.988454061902,0.0028922336271977665,0.002749657073800616
6669.989453833826,0.002908418013990313,0.002706481426356351
6669.990453605748,0.002920612938788401,0.0026662903963288074
6669.991453377671,0.0029285885375144355,0.0026293258577680307
6669.9924531495935,0.002932172514425609,0.002595780156641053
6669.993452921516,0.002931253246495767,0.002565795353033723
6669.99445269344,0.0029257819472048707,0.0025394635581089623
6669.995452465362,0.002915773935560623,0.0025168282981674743
6669.996452237285,0.0029013090826948335,0.002497886792757551
6669.997452009207,0.002882531504031823,0.0024825929866338337
6669.99845178113,0.0028596485469494243,0.002470861138338641
6669.9994515530525,0.002832929109213236,0.002462569753302789
6670.000451324976,0.0028027013202268484,0.002457565657876545
6670.001451096899,0.002769349614706403,0.0024556680378394545
6670.002450868821,0.002733311199186716,0.002456672307309634
6670.003450640744,0.0026950718434631407,0.0024603537260678484
6670.004450412666,0.0026551608557990425,0.0024664707365716857
6670.00545018459,0.0026141450859173063,0.0024747680414032762
6670.006449956512,0.002572621878746286,0.0024849794851780293
6670.007449728435,0.0025312110440872545,0.002496830836781574
6670.0084495003575,0.0024905460414877457,0.002510042585374818
6670.00944927228,0.0024512646510772666,0.0025243328700698376
6670.010449044203,0.0024139994009694204,0.0025394206563270944
6670.011448816126,0.0023793679731248835,0.0025550292404494155
6670.012448588049,0.0023479637410440328,0.002570890103692903
6670.013448359971,0.0023203465244663333,0.0025867470679631003
6670.014448131894,0.0022970335928143588,0.0026023606529977194
6670.0154479038165,0.0022784909270114713,0.0026175125088296575
6670.01644767574,0.002265124771663647,0.0026320097819247526
6670.017447447663,0.0022572735675868154,0.0026456892572432815
6670.018447219585,0.0022552004143723387,0.002658421109496225
6670.019446991508,0.002259086242145632,0.002670112101412292
6670.02044676343,0.002269023865481009,0.002680708078348692
6670.021446535354,0.0022850130661480777,0.002690195626849146
6670.022446307276,0.002306956826297126,0.002698602796905066
6670.023446079199,0.002334658828486208,0.0027059988238571893
6670.0244458511215,0.0023678223567934423,0.0027124928044993156
6670.025445623044,0.0024060507540871762,0.0027182312826877107
6670.026445394968,0.0024488495866633116,0.0027233947075340137
6670.02744516689,0.002495630626807453,0.0027281927626373044
6670.028444938813,0.0025457176972228748,0.0027328586231476545
6670.029444710735,0.0025983543545383216,0.002737642256910733
6670.030444482658,0.00265271334609222,0.002742802933194406
6670.0314442545805,0.0027079077569864933,0.0027486011458035457
6670.032444026504,0.0027630037534727425,0.002755290207464172
6670.033443798427,0.0028170348096603045,0.002763107819678117
6670.034443570349,0.002869017283533933,0.002772267944513712
6670.035443342272,0.0029179671923633757,0.0027829532878151206
6670.036443114194,0.0029629180184762172,0.002795308648343708
6670.037442886118,0.0030029393483709697,0.0028094353083761574
6670.03844265804,0.0030371561208704374,0.002825386560209371
6670.039442429963,0.003064768236675491,0.002843164401285341
6670.0404422018855,0.0030850702455020368,0.0028627174011848834
6670.041441973808,0.003097470764002013,0.0028839397488699663
6670.042441745732,0.0031015111992288946,0.0029066715188776977
6670.043441517654,0.003096883286262148,0.002930700231148609
6670.044441289577,0.0030834449177747103,0.0029557638011563584
6670.045441061499,0.0030612337626582517,0.002981554971705338
6670.046440833422,0.003030478248707723,0.0030077272767442607
6670.047440605345,0.0029916056056728977,0.0030339025119040124
6670.048440377268,0.0029452467890700505,0.0030596795901383857
6670.049440149191,0.002892238206741261,0.003084644560055554
6670.050439921113,0.0028336202629087033,0.0031083814721800016
6670.051439693036,0.0027706328324200104,0.003130483710479475
6670.052439464958,0.002704707857688236,0.0031505653819926148
6670.053439236882,0.0026374592877217687,0.003168272388865821
6670.054439008804,0.0025706705548251365,0.0031832928882827576
6670.055438780727,0.0025062797505079164,0.0031953669442348507
6670.0564385526495,0.0024463626547797388,0.003204295248896931
6670.057438324572,0.002393113795403498,0.0032099468207764928
6670.058438096496,0.002348825745968963,0.0032122655833008705
6670.059437868418,0.0023158669000936075,0.003211275714441871
6670.060437640341,0.0022966579847973592,0.0032070856512983804
6670.061437412263,0.0022936476025924926,0.0031998906355407727
6670.062437184186,0.0023092871139968004,0.003189973687750887
6670.0634369561085,0.002346005174904616,0.0031777048955172224
6670.064436728032,0.0024061822117443002,0.003163538902720077
6670.065436499955,0.0024921250559760515,0.0031480105128549973
6670.066436271877,0.0026060418936538327,0.0031317283657230554
6670.0674360438,0.0027500176381581704,0.003115366694618114
6670.068435815722,0.002925989805915346,0.0030996552135055468
6670.069435587646,0.0031357249542836867,0.0030853672380987507
6670.070435359568,0.0033807957242604414,0.003073306223779386
6670.071435131491,0.0036625585286949747,0.0030642909913086
6670.0724349034135,0.003982131951437962,0.0030591399769852733
6670.073434675336,0.0043403759774941425,0.003058654865947533
6670.07443444726,0.004737872253934734,0.0030636039482330466
6670.075434219182,0.005174905675869857,0.0030747054994527795
6670.076433991105,0.005651447681776291,0.003092611456282811
6670.077433763027,0.006167141696300681,0.0031178916437209128
6670.07843353495,0.006721291142865791,0.003151018812372548
6670.079433306873,0.007312850349144186,0.0031923547486499906
6670.080433078796,0.007940418505408402,0.0032421377287705786
6670.081432850719,0.00860223664943699,0.0033004716118097688
6670.082432622641,0.009296187471804265,0.0033673169045138713
6670.083432394564,0.010019797575965618,0.0034424841483796744
6670.084432166486,0.010770241717762941,0.0035256299468769477
6670.08543193841,0.011544348536947222,0.003616255872472781
6670.086431710332,0.012338607406697085,0.0037137104056365403
6670.087431482255,0.013149176248264184,0.00381719399218058
6670.0884312541775,0.013971890418597659,0.00392576725411656
6670.0894310261,0.014802272973193465,0.004038362321568686
6670.090430798024,0.015635546681568042,0.004153797158680424
6670.091430569946,0.016466648227035995,0.0042707926540580645
6670.092430341869,0.017290245226386607,0.00438799214760066
6670.093430113791,0.018100757104935805,0.004503982957944738
6670.094429885714,0.018892381326124946,0.004617319361397061
6670.0954296576365,0.019659126811092904,0.004726546406922913
6670.09642942956,0.020394856454006433,0.004830223991332788
6670.097429201483,0.021093340392732585,0.004926950752515388
6670.098428973405,0.02174832118586134,0.0050153874862156585
6670.099428745328,0.02235359143626271,0.00509427988590535
6670.10042851725,0.02290308386683266,0.005162480431388359
6670.101428289174,0.023390973442084538,0.005218969215287703
6670.102428061096,0.023811790710137618,0.0052628734074280465
6670.103427833019,0.024160544938938416,0.0052934849562043685
6670.1044276049415,0.024432854760334206,0.0053102760748387585
6670.105427376864,0.02462508295172211,0.005312912084480768
6670.106427148788,0.02473447079609433,0.005301261254876718
6670.10742692071,0.024759266397822013,0.00527540135963746
6670.108426692633,0.02469884075890224,0.005235622745027376
6670.109426464555,0.02455378565789069,0.005182427802904944
6670.110426236478,0.02432598834370916,0.005116526815165603
6670.111426008401,0.024018679251801737,0.0050388301809909984
6670.112425780324,0.023636449947623678,0.0049504370826776965
6670.113425552247,0.023185239381254694,0.0048526207411310925
6670.114425324169,0.02267228763282552,0.004746810562407994
6670.115425096092,0.022106057734197368,0.004634571634154721
6670.116424868014,0.0214961275871122,0.00451758214014148
6670.117424639938,0.020853055067681262,0.004397609295560247
6670.11842441186,0.020188219943706048,0.004276484371424609
6670.119424183783,0.01951364641530356,0.004156077301718591
6670.1204239557055,0.018841810242813343,0.004038271286419801
6670.121423727628,0.018185434723756427,0.0039249377348998865
6670.122423499552,0.01755728016280743,0.003817911831397251
6670.123423271474,0.016969931732846843,0.003718968943603654
6670.124423043397,0.01643559053062861,0.003629802056570564
6670.125422815319,0.015965872127321246,0.0035520004145197215
6670.126422587242,0.015571616154631445,0.0034870295717198975
6670.127422359165,0.01526270967336751,0.003436213044126188
6670.128422131088,0.015047926373708671,0.0034007156952737773
6670.129421903011,0.014934783094543515,0.0033815289137845393
6670.130421674933,0.014929414766184817,0.0033794575976856043
6670.131421446856,0.015036468738563881,0.003395108969814772
6670.132421218779,0.015259019549338724,0.0034288832735977865
6670.133420990702,0.015598505394056817,0.003480966397807582
6670.134420762624,0.016054687725558358,0.0035513244589990157
6670.135420534547,0.016625635423374543,0.003639700373471765
6670.1364203064695,0.017307734787882837,0.0037456124968025086
6670.137420078392,0.018095726222134685,0.003868355477270292
6670.138419850316,0.018982767892020126,0.004007003530061103
6670.139419622238,0.01996052593915169,0.00416041637639389
6670.140419394161,0.021019289998004256,0.004327248103756393
6670.141419166083,0.022148111898450125,0.004505959198449518
6670.142418938006,0.023334964618028215,0.004694831984994318
6670.143418709929,0.024566917941415373,0.004891989662981035
6670.144418481852,0.025830327065872027,0.005095419033736112
6670.145418253775,0.02711103062641791,0.0053029968543090115
6670.146418025697,0.028394555137320077,0.005512519582720621
6670.14741779762,0.029666323325087278,0.005721736137784849
6670.148417569542,0.030911863969039024,0.00592838320588265
6670.149417341466,0.032117020574883914,0.006130222546962403
6670.150417113388,0.033268155601251855,0.00632507962878323
6670.151416885311,0.0343523463074399,0.006510882739129841
6670.1524166572335,0.03535756793622813,0.006685701524222997
6670.153416429156,0.0362728600732967,0.006847783731575666
6670.15441620108,0.037088472457908556,0.006995588853482633
6670.155415973002,0.03779598698171196,0.00712781741546987
6670.156415744925,0.03838841315147427,0.007243434839327335
6670.157415516847,0.03886025519427911,0.00734168909585668
6670.15841528877,0.03920755035563648,0.007422121675744286
6670.159415060693,0.039427879550602264,0.00748457166673564
6670.160414832616,0.03952035296446528,0.007529172886394158
6670.161414604539,0.03948557407122315,0.0075563441080182155
6670.162414376461,0.039325585635312695,0.0075667725162322525
6670.163414148384,0.03904380069895476,0.0075613907215661144
6670.164413920307,0.038644920779861446,0.007541347970911617
6670.16541369223,0.038134843036872354,0.007507976546781161
6670.166413464152,0.03752055823531255,0.007462754640090537
6670.167413236075,0.03681004174812226,0.0074072671326748385
6670.1684130079975,0.03601214010864607,0.007343165736146676
6670.16941277992,0.03513645541698675,0.007272129836272767
6670.170412551844,0.03419322912068756,0.007195829210938454
6670.171412323766,0.033193225591378335,0.007115889552289438
6670.172412095689,0.03214761498707332,0.007033861471705042
6670.173411867611,0.03106785466619207,0.006951193426584395
6670.174411639534,0.029965569121741722,0.006869208782273772
6670.175411411457,0.02885242959618963,0.006789087028337125
6670.17641118338,0.027740035443876092,0.006711849054932193
6670.177410955303,0.02663979954009393,0.006638346387156546
6670.178410727225,0.02556283974789212,0.00656925432220926
6670.179410499148,0.02451987790435784,0.006505068937015208
6670.18041027107,0.023521147144885027,0.006446107917042072
6670.181410042994,0.02257630785076717,0.006392515143509104
6670.182409814916,0.021694372306115088,0.0063442689796834525
6670.183409586839,0.0208836383711431,0.006301194179218501
6670.1844093587615,0.020151633025174493,0.006262977270617892
6670.185409130684,0.019505067286445688,0.0062291851605158705
6670.186408902608,0.018949804513159235,0.006199286562832527
6670.18740867453,0.018490844225186764,0.006172675706705544
6670.188408446453,0.01813232330281581,0.006148697615192518
6670.189408218375,0.01787753581233207,0.0061266741158014885
6670.190407990298,0.01772897193268711,0.006105929672412538
6670.191407762221,0.01768837562987821,0.00608581610352384
6670.192407534144,0.017756819894085132,0.006065735262717781
6670.193407306067,0.017934797534403125,0.006045158841520288
6670.194407077989,0.018222324730902382,0.0060236446427572015
6670.195406849912,0.01861905379172081,0.006000848919528359
6670.196406621835,0.019124390894116283,0.00597653460979272
6670.197406393758,0.019737614075557155,0.005950575496253777
6670.19840616568,0.020457986447345217,0.005922956483267629
6670.199405937603,0.021284859525746203,0.005893770271647947
6670.2004057095255,0.022217761674576893,0.0058632107049681375
6670.201405481448,0.023256466979336327,0.005831563014507125
6670.202405253372,0.02440104058840983,0.005799191203561335
6670.203405025294,0.02565185770460664,0.005766522930642359
6670.204404797217,0.027009594701769397,0.005734032443351418
6670.205404569139,0.028475191845030133,0.005702222313154218
6670.206404341062,0.030049787684054467,0.005671604855165216
6670.207404112985,0.031734625679956316,0.005642684139712108
6670.208403884908,0.03353093435376416,0.005615939419491218
6670.209403656831,0.035439783113128134,0.00559181065182906
6670.210403428753,0.03746191657583248,0.005570686629349304
6670.211403200676,0.03959757063550696,0.005552896063597811
6670.212402972599,0.04184627402450274,0.005538701802145249
6670.213402744522,0.04420663978918982,0.0055282981935564825
6670.214402516444,0.04667615161245016,0.005521811432866367
6670.215402288367,0.04925095029073019,0.005519302523170182
6670.2164020602895,0.05192562641314647,0.005520772294991427
6670.217401832213,0.05469302679599965,0.005526167772938816
6670.218401604136,0.05754408422354979,0.005535389125827192
6670.219401376058,0.060467681750157175,0.005548296505323559
6670.220401147981,0.06345056346974833,0.005564716216302443
6670.221400919903,0.06647730297034027,0.005584445800020919
6670.222400691826,0.06953033895780163,0.005607257740516667
6670.223400463749,0.07259008529332257,0.00563290165153177
6670.224400235672,0.07563512026158822,0.005661104965410285
6670.2254000075945,0.0786424572353819,0.005691572307820678
6670.226399779517,0.08158789586281463,0.00572398389865175
6670.22739955144,0.0844464494036027,0.0057579934707434844
6670.228399323363,0.08719283992448165,0.005793226323082166
6670.229399095286,0.08980204886013074,0.005829278182843323
6670.230398867208,0.09224990617354854,0.005865715509953513
6670.231398639131,0.09451369726562842,0.005902077744681025
6670.2323984110535,0.09657276320426895,0.005937881809145669
6670.233398182976,0.09840906741931314,0.005972628957074985
6670.2343979549,0.10000770179299753,0.006005813835818841
6670.235397726822,0.10135730776795257,0.006036935405018579
6670.236397498745,0.10245039305006011,0.006065509191610357
6670.237397270667,0.10328352992603562,0.006091080287041671
6670.23839704259,0.10385742595053145,0.006113236509762194
6670.239396814513,0.10417686246172457,0.006131621222301387
6670.240396586436,0.10425050260246661,0.0061459453463152585
6670.241396358359,0.10409057849868636,0.006155998123607686
6670.242396130281,0.10371247531991414,0.006161656138959794
6670.243395902204,0.10313423590802391,0.006162890102905008
6670.244395674127,0.10237601218854438,0.006159768942441162
6670.24539544605,0.10145948873145316,0.006152460878384446
6670.246395217972,0.10040730076424344,0.006141231352123826
6670.247394989895,0.09924246515098578,0.00612643787710663
6670.2483947618175,0.09798783933169808,0.006108522118807207
6670.249394533741,0.09666562019410706,0.006087999711375859
6670.250394305664,0.09529689215007754,0.006065448431544145
6670.251394077586,0.09390123125523625,0.006041495331811624
6670.252393849509,0.09249637033082546,0.0060168033145074785
6670.253393621431,0.09109792903019048,0.005992057478391172
6670.254393393354,0.08971921234030196,0.005967951456204031
6670.255393165277,0.08837108018347185,0.005945173918993122
6670.2563929372,0.08706188887501716,0.005924395445073133
6670.2573927091225,0.08579750236294521,0.005906255991817986
6670.258392481045,0.08458136801292472,0.005891353212605359
6670.259392252968,0.083414648516611,0.00588023181020556
6670.260392024891,0.08229639854745924,0.005873374025380141
6670.261391796814,0.08122377287185277,0.0058711912476852495
6670.262391568736,0.08019225263848653,0.0058740166364519945
6670.263391340659,0.07919587827046953,0.005882098593404237
6670.2643911125815,0.07822747954987806,0.005895594963751317
6670.265390884505,0.0772788956366057,0.005914567959918516
6670.266390656428,0.07634118070785183,0.005938979947729734
6670.26739042835,0.07540479508463768,0.005968690319623545
6670.268390200273,0.07445978598269302,0.00600345366854627
6670.269389972195,0.0734959646228226,0.006042919430094759
6670.270389744119,0.07250308660196263,0.006086633146473143
6670.271389516041,0.07147104073887715,0.006134039509433093
6670.272389287964,0.07039004915216379,0.0061844872998326975
6670.273389059887,0.06925087889099801,0.006237236233558254
6670.274388831809,0.06804506327958719,0.006291465568001543
6670.275388603732,0.06676512913675113,0.006346284156887211
6670.276388375655,0.06540482399984876,0.006400741525569421
6670.277388147578,0.06395933546709885,0.006453839561397558
6670.2783879195,0.062425493207017346,0.006504544612428049
6670.279387691423,0.060801943719460884,0.006551800079783819
6670.2803874633455,0.05908928905963095,0.006594539817418719
6670.281387235269,0.05729018336603421,0.0066317027079472145
6670.282387007192,0.055409384285079695,0.006662248663482063
6670.283386779114,0.053453758934175304,0.0066851760777791504
6670.284386551037,0.05143224504880954,0.006699540508711363
6670.285386322959,0.04935576778334561,0.00670447414633937
6670.286386094882,0.047237112528162824,0.0066992054402852975
6670.287385866805,0.04509075507688376,0.006683078144061098
6670.288385638728,0.04293265254734573,0.006655569038015147
6670.2893854106505,0.040780000849143044,0.006616303746442491
6670.290385182573,0.038650966274107204,0.0065650702860608826
6670.291384954496,0.03656439945233479,0.006501830125009127
6670.292384726419,0.03453953957852808,0.0064267265400601865
6670.293384498342,0.03259571592726919,0.006340090027203501
6670.294384270264,0.030752052545201317,0.006242440568351259
6670.295384042187,0.029027180682061574,0.006134486710721086
6670.2963838141095,0.02743896209337708,0.006017121597041473
6670.297383586033,0.026004225109861098,0.0058914161898401774
6670.298383357956,0.024738514647877474,0.005758609910026262
6670.299383129878,0.02365585724873877,0.005620098783119843
6670.300382901801,0.022768542633376174,0.005477421038486109
6670.301382673723,0.02208692386978124,0.0053322400410703305
6670.302382445647,0.021619238824818556,0.0051863245165571555
6670.303382217569,0.021371455937678044,0.005041526237174618
6670.304381989492,0.021347147450081823,0.004899755563772619
6670.305381761415,0.021547393112042765,0.004762955379639567
6670.306381533337,0.02197071711567547,0.004633073970532801
6670.30738130526,0.022613060596394573,0.00451203736231556
6670.308381077183,0.023467791490879162,0.004401721596757316
6670.309380849106,0.02452575294611012,0.004303925428930823
6670.310380621028,0.025775350960610947,0.004220343939596266
6670.311380392951,0.027202681580652498,0.004152543544620382
6670.3123801648735,0.028791697756310373,0.004101938848072065
6670.313379936797,0.030524415769731465,0.004069771734524454
6670.31437970872,0.03238116077932582,0.004057093027279403
6670.315379480642,0.03434085032696783,0.004064746951286234
6670.316379252565,0.03638131368090291,0.004093358549984627
6670.317379024487,0.03847964383061719,0.00414332413643881
6670.31837879641,0.040612577937291706,0.0042148048131243595
6670.319378568333,0.04275690104465612,0.004307723057417243
6670.320378340256,0.04488986682633457,0.004421762334231153
6670.3213781121785,0.04698962816500893,0.004556369673338069
6670.322377884101,0.049035669541003024,0.00471076114835266
6670.323377656024,0.051009232539216486,0.0048839302112341386
6670.324377427947,0.0528937251373499,0.005074658846084949
6670.32537719987,0.05467510474841497,0.005281531480363612
6670.326376971792,0.056342224302778215,0.0055029515204770224
6670.327376743715,0.057887130002937694,0.005737160293600679
6670.3283765156375,0.05930529878869688,0.005982258136522268
6670.329376287561,0.060595803226598556,0.006236227399377337
6670.330376059484,0.06176139195084418,0.006496957181249118
6670.331375831406,0.06280847546845286,0.006762269610380693
6670.332375603329,0.06374701040302164,0.007029947385603629
6670.333375375251,0.06459027969505664,0.007297762123281703
6670.334375147175,0.06535457082924608,0.007563502853644633
6670.335374919097,0.06605875817139491,0.00782500384592085
6670.33637469102,0.06672379946077513,0.0080801708884978
6670.337374462943,0.06737216092723224,0.008327005275628102
6670.338374234865,0.06802718967209427,0.008563625066917126
6670.339374006788,0.06871245463573812,0.008788283603816192
6670.340373778711,0.06945107829244007,0.008999385630994604
6670.341373550634,0.07026508061466877,0.009195501541065925
6670.342373322556,0.07117475531767507,0.009375380196397281
6670.343373094479,0.07219809623434421,0.00953796053350393
6670.3443728664015,0.07335028912791335,0.009682381813060154
6670.345372638325,0.07464328149681253,0.009807992034116161
6670.346372410248,0.07608544010747285,0.009914353782192334
6670.34737218217,0.07768130329017016,0.010001246716246626
6670.348371954093,0.07943143251747689,0.010068666048284915
6670.349371726015,0.08133236533361456,0.010116816661492002
6670.350371497939,0.08337666914765358,0.010146102815636014
6670.351371269861,0.08555309263168004,0.010157113618679098
6670.352371041784,0.0878468085483773,0.01015060462858283
6670.3533708137065,0.0902397392370197,0.01012747614173749
6670.354370585629,0.09271095438577089,0.010088748900356355
6670.355370357553,0.095237130343957,0.010035538058348795
6670.356370129475,0.0977930605767394,0.009969026296681113
6670.357369901398,0.1003522070824322,0.009890437031955981
6670.35836967332,0.10288728195936865,0.009801008732641364
6670.359369445243,0.10537084659087287,0.00970197139104586
6670.3603692171655,0.10777591369478363,0.009594526114027474
6670.361368989089,0.11007653585407273,0.009479828557981029
6670.362368761012,0.1122483635814557,0.00935897658769489
6670.363368532934,0.11426915588164213,0.009233002177811275
6670.364368304857,0.11611922623809116,0.009102867309288522
6670.365368076779,0.11778180784804147,0.00896946351587601
6670.366367848703,0.11924332513156403,0.008833614770483491
6670.367367620625,0.12049356428636662,0.008696083424359475
6670.368367392548,0.12152574266037734,0.008557578799808119
6670.369367164471,0.1223364829755349,0.008418767793449506
6670.370366936393,0.12292570224373064,0.008280286573949318
6670.371366708316,0.12329642592858725,0.008142752261301494
6670.372366480239,0.12345453638532052,0.008006773408056306
6670.373366252162,0.12340846268715823,0.007872958187687153
6670.374366024084,0.12316881809189269,0.007741919459945376
6670.375365796007,0.12274799194806543,0.007614276330406781
6670.3763655679295,0.12215970450470999,0.0074906523496040284
6670.377365339853,0.12141853565135359,0.007371670915298485
6670.378365111776,0.12053944157177345,0.007257948604518964
6670.379364883698,0.11953727549739566,0.007150087076071898
6670.380364655621,0.11842632936054051,0.007048663981451753
6670.381364427543,0.11721991265324308,0.006954223157641418
6670.382364199467,0.11592998413692533,0.006867264334441901
6670.383363971389,0.1145668510782466,0.006788232653622613
6670.384363743312,0.11313894832448694,0.00671750838545211
6670.3853635152345,0.11165270524903714,0.006655397269737095
6670.386363287157,0.11011250306691138,0.006602121898845077
6670.387363059081,0.10852071937417299,0.006557814553002546
6670.388362831003,0.10687785174104036,0.006522511932469046
6670.389362602926,0.10518270813565522,0.006496152273077602
6670.390362374848,0.10343264935947377,0.006478575310563687
6670.391362146771,0.10162386806539143,0.006469525440396559
6670.3923619186935,0.09975168999499862,0.006468658220025116
6670.393361690617,0.09781088456661928,0.006475550119329555
6670.39436146254,0.09579597311782466,0.006489711176424937
6670.395361234462,0.0937015246271556,0.006510599969627191
6670.396361006385,0.09152243158803483,0.006537640074286107
6670.397360778307,0.08925416257848708,0.006570236977150785
6670.398360550231,0.08689299139735061,0.006607794368180253
6670.399360322153,0.08443620398730653,0.006649728904606959
6670.400360094076,0.08188228360496926,0.006695482919172127
6670.401359865999,0.07923107297159784,0.00674453497945482
6670.402359637921,0.07648391091942103,0.006796408533091625
6670.403359409845,0.07364374118549409,0.006850679007606024
6670.404359181767,0.07071519237566187,0.006906979683945359
6670.40535895369,0.06770462996960519,0.006965006501199262
6670.406358725612,0.06462018275432921,0.007024521760300866
6670.407358497535,0.06147174674611341,0.007085356527410412
6670.408358269458,0.05827096938656244,0.00714741140654747
6670.409358041381,0.055031215849957536,0.007210655277944117
6670.410357813304,0.05176751811166634,0.007275121625492588
6670.411357585226,0.04849650638735855,0.007340902212149592
6670.412357357149,0.04523632190209979,0.007408138063739535
6670.413357129071,0.04200650966063814,0.007477007949077955
6670.414356900995,0.03882788972841582,0.007547714779622467
6670.415356672917,0.03572240544797256,0.007620470548319889
6670.41635644484,0.032712947255921845,0.007695480502269814
6670.4173562167625,0.029823151408322673,0.007772927162295092
6670.418355988685,0.027077173719887437,0.007852954635235563
6670.419355760609,0.024499439300754766,0.007935653538404367
6670.420355532531,0.022114370431190362,0.008021046852398243
6670.421355304454,0.01994609604995324,0.00810907711198437
6670.422355076376,0.018018147320471696,0.00819959542743745
6670.423354848299,0.016353144039986594,0.008292352817791207
6670.4243546202215,0.014972476495013126,0.00838699424884859
6670.425354392145,0.013895987209117397,0.008483055673736993
6670.426354164068,0.013141657103855666,0.008579964306972943
6670.42735393599,0.012725300768898157,0.008677042302268994
6670.428353707913,0.012660275550834056,0.00877351392285716
6670.429353479835,0.012957208925332118,0.008868516185298977
6670.430353251759,0.013623748268067693,0.008961112824466193
6670.431353023681,0.014664336905779039,0.009050311292143141
6670.432352795604,0.016080020264528032,0.009135082427598076
6670.433352567527,0.01786828589625901,0.00921438246164796
6670.434352339449,0.02002294097720221,0.009287177068535293
6670.435352111373,0.022534030458243603,0.009352467138084648
6670.436351883295,0.025387798463127248,0.009409315753374815
6670.437351655218,0.028566694917237016,0.00945687560941377
6670.43835142714,0.03204942890532117,0.009494415943691988
6670.439351199063,0.03581106996113213,0.009521348056039406
6670.440350970986,0.039823198265349254,0.009537248629677092
6670.441350742909,0.04405410436048827,0.009541880204180802
6670.442350514832,0.048469038409414134,0.009535208197582247
6670.443350286754,0.05303050835133294,0.009517413820243311
6670.444350058677,0.05769862566553754,0.009488902135782934
6670.445349830599,0.06243149684658612,0.009450304514881495
6670.446349602523,0.06718565814387384,0.009402474898881578
6670.447349374445,0.07191655061661714,0.00934647965711885
6670.448349146368,0.07657903184903328,0.00928358127136441
6670.4493489182905,0.08112791944250015,0.009215216438396609
6670.450348690213,0.08551855979093251,0.00914296934219826
6670.451348462137,0.08970741419080443,0.0090685408449946
6670.452348234059,0.09365265327940966,0.008993714297884073
6670.453348005982,0.09731474986365064,0.008920318659277058
6670.454347777904,0.10065705910543024,0.008850189653220531
6670.455347549827,0.10364637370860096,0.008785129814122682
6670.4563473217495,0.10625344039855995,0.008726868444318272
6670.457347093673,0.10845342328594679,0.008677022675482654
6670.458346865596,0.11022630048166132,0.008637060873390511
6670.459346637518,0.11155718248199094,0.008608269543954777
6670.460346409441,0.11243654327065065,0.008591724743953748
6670.461346181363,0.11286035680853732,0.00858826880550808
6670.462345953287,0.11283013253112792,0.008598492932821073
6670.463345725209,0.11235284450461777,0.008622725913894526
6670.464345497132,0.11144075130659017,0.00866102886215212
6670.465345269055,0.11011110823810391,0.008713195657267912
6670.466345040977,0.1083857795577359,0.0087787586312682
6670.467344812901,0.10629076448012192,0.008856998984502408
6670.468344584823,0.10385565505526931,0.008946961344407606
6670.469344356746,0.10111304568246292,0.009047471825829002
6670.470344128668,0.09809791285917366,0.00915715900562213
6670.471343900591,0.09484698089957345,0.00927447739303161
6670.472343672514,0.09139808642552824,0.009397733130170336
6670.473343444437,0.08778955265323943,0.009525111653522187
6670.47434321636,0.08405958410748396,0.009654706881589838
6670.475342988282,0.08024569282669029,0.009784551272104184
6670.476342760205,0.07638416751570794,0.009912645928508323
6670.477342532127,0.07250959677712018,0.010036989924774694
6670.478342304051,0.06865445624899118,0.010155608224090874
6670.479342075973,0.06484876729535642,0.010266577928360266
6670.480341847896,0.061119832078804996,0.010368052907886047
6670.4813416198185,0.05749204671452133,0.010458286964739629
6670.482341391741,0.05398679122037969,0.010535655615195845
6670.483341163665,0.05062239259266157,0.010598676470258372
6670.484340935587,0.04741415563157702,0.010646028112092273
6670.48534070751,0.044374454723214,0.010676567290662319
6670.486340479432,0.0415128782553432,0.01068934418850621
6670.487340251355,0.03883641576164604,0.010683615453089608
6670.488340023278,0.036349676650963406,0.01065885471232145
6670.489339795201,0.03405512884223973,0.010614760362721453
6670.490339567124,0.03195334599361268,0.010551260494922565
6670.491339339046,0.030043253348618876,0.010468514848137002
6670.492339110969,0.02832236433467734,0.010366913666110781
6670.493338882892,0.026787002474499767,0.010247073297195382
6670.494338654815,0.025432505395258334,0.010109828392315327
6670.495338426737,0.024253409388415272,0.009956220667652657
6670.49633819866,0.023243613944873075,0.009787484405563486
6670.497337970583,0.022396526079278653,0.00960502903538685
6670.498337742505,0.021705184411393085,0.009410419149198984
6670.499337514429,0.02116236326393796,0.009205352250748951
6670.500337286351,0.02076065764125905,0.008991634612065843
6670.501337058274,0.020492550816437947,0.008771155869384635
6670.502336830196,0.02035046717006143,0.008545863239668047
6670.503336602119,0.020326813639021418,0.008317736267245038
6670.504336374042,0.02041401347561604,0.008088762776226497
6670.505336145965,0.02060453596488255,0.00786091631706532
6670.506335917888,0.020890925377740076,0.00763613499851516
6670.50733568981,0.021265831830820408,0.00741630132126033
6670.508335461733,0.02172204594685271,0.00720322256895534
6670.509335233655,0.022252538324570584,0.006998611455069805
6670.510335005579,0.022850503903780333,0.006804066952158661
6670.511334777501,0.02350941047746824,0.0066210554217850165
6670.512334549424,0.02422305005057503,0.006450892272347485
6670.5133343213465,0.024985591552009093,0.006294724419369277
6670.514334093269,0.025791633364810728,0.006153513863015553
6670.515333865193,0.026636253925361862,0.006028022781326777
6670.516333637115,0.02751505815780958,0.005918800654830301
6670.517333409038,0.02842421691437549,0.0058261740147549125
6670.51833318096,0.02936049608077089,0.005750239383411425
6670.519332952883,0.030321271715827682,0.005690859858349038
6670.520332724806,0.03130452759291817,0.005647665628471821
6670.521332496729,0.03230883174182465,0.005620058559652602
6670.522332268652,0.03333328901559188,0.005607220909609335
6670.523332040574,0.03437746753697611,0.005608128239453
6670.524331812497,0.03544129841838427,0.005621566618728536
6670.52533158442,0.03652495037822175,0.005646154196763342
6670.526331356343,0.03762868331492258,0.005680367116470428
6670.527331128265,0.03875268690783815,0.005722569595336217
6670.528330900188,0.03989691156155814,0.005771047815251134
6670.529330672111,0.04106089969317491,0.005824047081418968
6670.530330444033,0.04224362587068422,0.005879811559124168
6670.531330215957,0.04344335469166181,0.005936625769686089
6670.532329987879,0.04465752521560672,0.005992856897982963
6670.533329759802,0.04588267000257575,0.006046996820511252
6670.534329531724,0.047114375496926486,0.0060977026085199705
6670.535329303647,0.048347288869373305,0.006143834110321244
6670.53632907557,0.04957517455865308,0.0061844871033796414
6670.537328847493,0.05079102158626013,0.006219020492110677
6670.538328619416,0.05198720029123329,0.006247076196250388
6670.539328391338,0.05315566461032503,0.006268590768306144
6670.540328163261,0.05428819358981044,0.006283798303284369
6670.541327935183,0.05537666354349212,0.006293224670891598
6670.542327707107,0.05641334012707185,0.006297673408121642
6670.543327479029,0.05739117750261982,0.006298203821870596
6670.544327250952,0.05830410985952636,0.006296102059620993
6670.5453270228745,0.059147319442328476,0.006292846115157095
6670.546326794797,0.05991746569615155,0.006290065910629623
6670.547326566721,0.06061286229416212,0.006289499730901955
6670.548326338643,0.06123359169943568,0.0062929483825427375
6670.549326110566,0.06178154947483386,0.006302228484829652
6670.550325882488,0.06226041296835302,0.006319126245657388
6670.551325654411,0.06267553243506949,0.006345352928186337
6670.552325426334,0.06303374764238362,0.006382503002570541
6670.553325198257,0.06334313861234862,0.006432015745360472
6670.55432497018,0.06361272375607731,0.00649514083138385
6670.555324742102,0.06385212113625892,0.006572908277332082
6670.556324514025,0.06407118893477057,0.006666102969416796
6670.557324285948,0.06427966020815075,0.006775243968966276
6670.558324057871,0.06448678553534415,0.006900568817688783
6670.559323829793,0.06470099556316707,0.0070420230767949
6670.560323601716,0.06492959382472042,0.007199255266943736
6670.561323373639,0.0651784888273463,0.0073716172382295945
6670.562323145561,0.06545197361495536,0.0075581698524469524
6670.563322917485,0.06575256060425949,0.007757693768527636
6670.564322689407,0.06608087874938116,0.007968705104606238
6670.56532246133,0.06643563851408078,0.008189475748178958
6670.566322233252,0.06681366789433882,0.008418058011810952
6670.567322005175,0.06721002023816092,0.008652313165787705
6670.568321777098,0.06761815197219576,0.00888994318692156
6670.569321549021,0.06803016543891705,0.009128524917051455
6670.570321320944,0.06843710884104254,0.00936554575430182
6670.571321092866,0.0688293219642087,0.009598440012433943
6670.572320864789,0.06919681315174389,0.009824625179765805
6670.573320636712,0.06952965023053659,0.010041537474797113
6670.574320408635,0.06981834632754945,0.010246666304158917
6670.575320180557,0.07005422161236717,0.010437587436355079
6670.57631995248,0.07022972423176684,0.01061199485268085
6670.5773197244025,0.0703386970628725,0.010767731290141934
6670.578319496326,0.07037657983684534,0.010902817465012158
6670.579319268249,0.07034053824353338,0.011015479894119676
6670.580319040171,0.07022951397242988,0.011104177133750464
6670.581318812094,0.07004419358653514,0.011167624130859964
6670.582318584016,0.06978689968385929,0.011204814218882751
6670.583318355939,0.06946141367728763,0.011215038116332001
6670.584318127862,0.06907274403682126,0.011197899188942007
6670.585317899785,0.0686268559100395,0.011153324309164454
6670.586317671708,0.06813037768604496,0.011081569885944479
6670.58731744363,0.06759029817697795,0.010983222930344776
6670.588317215553,0.06701366572615135,0.010859197241434151
6670.589316987476,0.06640729849392009,0.010710724872826538
6670.590316759399,0.06577751382595644,0.010539342993437086
6670.591316531321,0.06512988399908298,0.010346876209910956
6670.592316303244,0.06446902546319269,0.010135414522954484
6670.593316075167,0.06379842852803064,0.00990728737150043
6670.594315847089,0.06312033391877545,0.00966503453780086
6670.595315619013,0.062435661479786096,0.009411374859808412
6670.596315390935,0.06174399443733214,0.009149173630492141
6670.597315162858,0.06104362022889202,0.008881409290129788
6670.59831493478,0.06033162636109897,0.008611139654907366
6670.599314706703,0.059604047313720016,0.008341467600301232
6670.600314478626,0.05885605608584758,0.008075505917974606
6670.601314250549,0.058082191470956036,0.007816341044629728
6670.602314022472,0.057276609876669084,0.007566995543439987
6670.603313794394,0.05643334934064965,0.007330389547402293
6670.604313566317,0.055546594046422884,0.007109301711338306
6670.60531333824,0.05461092966657811,0.006906330453216343
6670.606313110163,0.05362158175654919,0.006723856391446442
6670.607312882085,0.05257463011379375,0.0065640069439222536
6670.608312654008,0.05146719195569913,0.006428624043045029
6670.6093124259305,0.05029756734922969,0.00631923581181618
6670.610312197854,0.049065342481799966,0.006237032863464484
6670.611311969777,0.047771449849480965,0.006182849700776188
6670.612311741699,0.04641818814163339,0.006157151543894471
6670.613311513622,0.04500920733050482,0.006160026791253692
6670.614311285544,0.04354946559510053,0.006191185178362766
6670.615311057467,0.042045164289446116,0.006249961530130368
6670.61631082939,0.04050366571437622,0.006335324848858633
6670.617310601313,0.038933396586715116,0.006445892415734743
6670.618310373236,0.03734373842799841,0.006579948618374536
6670.619310145158,0.0357449051939939,0.0067354682598654075
6670.620309917081,0.03414780868559957,0.006910144062384645
6670.621309689004,0.03256391346470629,0.007101417956200224
6670.622309460927,0.031005084515123876,0.007306515616430985
6670.623309232849,0.029483432037361684,0.007522483625150495
6670.624309004772,0.028011158143538873,0.007746228597148289
6670.625308776695,0.02660040977368958,0.007974557615327121
6670.626308548618,0.02526314107001261,0.008204219404999196
6670.627308320541,0.02401098703505743,0.00843194584230746
6670.628308092463,0.0228551489240404,0.008654493567795456
6670.629307864386,0.021806290795401438,0.008868685553765793
6670.630307636308,0.02087444611849814,0.009071452416350016
6670.631307408232,0.020068933194446876,0.009259873123218194
6670.632307180154,0.01939827806444914,0.009431214599314695
6670.633306952077,0.01887014331616664,0.009582969625633238
6670.634306724,0.01849126084022542,0.00971289238272071
6670.635306495922,0.018267366521754053,0.009819031004748197
6670.636306267845,0.01820313544143088,0.009899756559022524
6670.637306039768,0.01830211741897409,0.009953787942110399
6670.638305811691,0.01856667429431713,0.009980212289483523
6670.639305583613,0.01899792175700464,0.009978500598507278
6670.640305355536,0.019595679534400258,0.009948518295859686
6670.6413051274585,0.02035843425409149,0.00989053041806052
6670.642304899382,0.021283319290763856,0.00980520101008545
6670.643304671305,0.022366115418300463,0.00969358640985296
6670.644304443227,0.023601275229120006,0.00955712228959235
6670.64530421515,0.024981973240862727,0.009397604560528277
6670.646303987072,0.026500182561579794,0.009217164431265917
6670.647303758995,0.028146778035604968,0.009018238069536354
6670.648303530918,0.029911664948967052,0.008803531495404785
6670.649303302841,0.031783931537700136,0.008575981480529906
6670.650303074764,0.03375202257839345,0.008338713258135427
6670.651302846686,0.03580393015876772,0.008094995775615673
6670.652302618609,0.03792739630472341,0.007848195138556217
6670.653302390532,0.04011012050654726,0.007601726852357315
6670.654302162455,0.04233996349042635,0.007359007447918538
6670.655301934377,0.04460513727426943,0.007123406063535673
6670.6563017063,0.046894371360311014,0.00689819656500123
6670.657301478223,0.04919704630468959,0.0066865108443078134
6670.658301250146,0.05150328843065072,0.006491294037736389
6670.659301022069,0.05380402204177601,0.006315262500178772
6670.660300793991,0.05609097733625354,0.006160865400531887
6670.661300565914,0.058356653277983644,0.006030250730079997
6670.662300337836,0.06059423550710987,0.005925236366136199
6670.66330010976,0.06279747074535809,0.0058472866491510065
6670.664299881682,0.06496050155618936,0.005797494722577586
6670.665299653605,0.06707766858475155,0.005776570639353088
6670.666299425528,0.06914329083879833,0.005784834978769163
6670.66729919745,0.07115143742043918,0.0058222175277611804
6670.668298969373,0.07309570581810247,0.005888260569567102
6670.669298741296,0.07496902210148794,0.005982126512823853
6670.670298513219,0.07676347714139378,0.00610260985051032
6670.671298285141,0.07847021072273132,0.006248153565502653
6670.672298057064,0.08007935275375386,0.006416870018929997
6670.6732978289865,0.08158002809571409,0.006606566144084152
6670.67429760091,0.0829604288502525,0.006814772546253788
6670.675297372833,0.08420795507102909,0.00703877596040298
6670.676297144755,0.08530942170351993,0.007275654473880071
6670.677296916678,0.0862513261166368,0.007522314987061793
6670.6782966886,0.08702016700804356,0.007775532553359085
6670.679296460523,0.08760280210362452,0.008031991444305499
6670.680296232446,0.08798682951452255,0.00828832789350317
6670.681296004369,0.08816097633508714,0.008541174399854811
6670.682295776292,0.08811547814464335,0.00878720527108671
6670.683295548214,0.0878424343534675,0.00902318288662687
6670.684295320137,0.08733612646120528,0.009246004005849674
6670.68529509206,0.0865932884792663,0.009452745301552722
6670.686294863983,0.08561332016968404,0.00964070713551681
6670.687294635905,0.08439843465338208,0.009807454494136392
6670.688294407828,0.08295373379536025,0.009950854084144489
6670.689294179751,0.08128720853264403,0.010069106842784524
6670.690293951674,0.07940966621383318,0.010160775366027433
6670.691293723597,0.07733459139421374,0.010224805821391843
6670.692293495519,0.07507794924147639,0.010260543780784635
6670.693293267442,0.07265794161344473,0.010267743217142815
6670.694293039364,0.07009472542173732,0.010246567791655954
6670.695292811288,0.0674101016382849,0.010197583627621866
6670.69629258321,0.06462718163571321,0.010121743131915033
6670.697292355133,0.06177003585863131,0.010020360080290627
6670.698292127056,0.05886332866739212,0.009895076902648077
6670.699291898978,0.05593194313687498,0.009747825592771207
6670.700291670901,0.053000600712099576,0.009580783818238537
6670.701291442824,0.05009348238179903,0.009396327736340233
6670.702291214747,0.04723385962358942,0.009196982888135901
6670.703290986669,0.0444437441986363,0.008985374430667124
6670.704290758592,0.041743565743725466,0.008764177914709648
6670.7052905305145,0.03915188514744231,0.008536071831378042
6670.706290302438,0.03668515014143514,0.008303693183866541
6670.707290074361,0.03435749764378527,0.008069597289201693
6670.708289846283,0.032180605431679485,0.00783622281513669
6670.709289618206,0.030163593964918245,0.007605862743051053
6670.710289390128,0.02831297780989224,0.007380641602347902
6670.711289162052,0.026632665137612376,0.007162498997360155
6670.712288933974,0.02512400308032594,0.006953179158046449
6670.713288705897,0.023785866214670614,0.006754226009152962
6670.71428847782,0.022614785021516745,0.006566983089791412
6670.715288249742,0.021605110792288947,0.006392597547581904
6670.716288021666,0.020749213047398567,0.006232027333227785
6670.717287793588,0.020037705087252795,0.006086050631444301
6670.718287565511,0.019459692870831255,0.00595527654355746
6670.719287337433,0.01900304208409484,0.005840156141842201
6670.720287109356,0.018654658006046848,0.005740993232817103
6670.721286881279,0.018400772525682035,0.0056579544238839026
6670.722286653202,0.01822723237216636,0.00559107831136025
6670.723286425125,0.018119782327507886,0.005540283759387215
6670.724286197047,0.018064336986671356,0.005505377309743614
6670.72528596897,0.0180472346965755,0.005486059768610678
6670.726285740892,0.01805546788144477,0.005481932001002517
6670.727285512816,0.018076885158323584,0.005492499973384848
6670.728285284738,0.01810036228048396,0.005517179131228713
6670.729285056661,0.018115940599273295,0.005555298252309482
6670.730284828584,0.018114933037045075,0.005606102945083393
6670.731284600506,0.018089998453752372,0.005668758960215154
6670.732284372429,0.018035185944393243,0.005742355479885449
6670.733284144352,0.01794595114268324,0.005825908572884947
6670.734283916275,0.017819146979011845,0.005918365046701091
6670.735283688197,0.01765299148553066,0.006018606945458457
6670.73628346012,0.017447015215681424,0.006125456891686222
6670.7372832320425,0.017201990780297324,0.006237684352399244
6670.738283003966,0.016919846971825456,0.0063540127738921795
6670.739282775889,0.016603569921647587,0.006473127431664143
6670.740282547811,0.016257093644740685,0.0065936838198279125
6670.741282319734,0.015885182136720893,0.006714316475127048
6670.742282091656,0.015493304917682775,0.0068336482703725224
6670.74328186358,0.01508750763409571,0.006950300332874
6670.744281635502,0.014674279139161596,0.007062902745418499
6670.745281407425,0.01426041645595192,0.007170106054335453
6670.746281179348,0.013852889180691795,0.007270593424390493
6670.74728095127,0.013458705110176479,0.007363093144921272
6670.748280723194,0.013084779059443634,0.007446391145201826
6670.749280495116,0.012737806899756622,0.00751934318643693
6670.750280267039,0.012424146785968792,0.007580886410672839
6670.751280038961,0.012149709393674315,0.007630049946963088
6670.752279810884,0.01191985878114784,0.0076659643797393475
6670.753279582807,0.01173932522999914,0.007687870126313355
6670.75427935473,0.01161213109854653,0.007695125064675333
6670.755279126653,0.011541530360822009,0.007687211923246844
6670.756278898575,0.011529962128227322,0.007663745896473785
6670.757278670498,0.011579018083205632,0.007624482747895972
6670.75827844242,0.011689423442198596,0.007569327433879419
6670.759278214344,0.0118610308852091,0.007498343097798434
6670.760277986266,0.01209282686560804,0.007411760134475774
6670.761277758189,0.012382949755624055,0.007309984866215777
6670.762277530112,0.012728719264208413,0.007193607190942345
6670.763277302034,0.013126676454423263,0.007063406394109389
6670.764277073958,0.013572633578000813,0.006920354218774352
6670.76527684588,0.014061732952231818,0.006765614308164257
6670.766276617803,0.014588514240125082,0.006600537280916915
6670.767276389725,0.015146989618974998,0.006426650942406133
6670.768276161648,0.015730726264368798,0.006245645431230924
6670.769275933571,0.01633293530152376,0.0060593534212132994
6670.770275705494,0.016946566012833824,0.005869725838675835
6670.771275477417,0.017564403823785456,0.00567880387255798
6670.772275249339,0.018179170520451933,0.005488688261627461
6670.773275021262,0.018783625221659956,0.005301506877896577
6670.774274793184,0.019370664685729937,0.00511938152209699
6670.775274565108,0.01993342149142072,0.0049443946886469905
6670.77627433703,0.020465358540887088,0.0047785569038586205
6670.777274108953,0.02096035828675047,0.004623775121722552
6670.778273880876,0.021412805156484964,0.004481822598594144
6670.779273652798,0.021817659846641205,0.004354310677087723
6670.780273424722,0.02217052439721133,0.004242662973400781
6670.781273196644,0.022467697025983866,0.004148092517795354
6670.782272968567,0.02270621541231265,0.004071582382041304
6670.783272740489,0.02288388654399111,0.004013870236307282
6670.784272512412,0.022999300834695778,0.003975437150957352
6670.785272284335,0.023051828559602923,0.003956500826853111
6670.786272056258,0.023041597933496128,0.003957013317311634
6670.787271828181,0.022969455921894127,0.003976663215622856
6670.788271600103,0.02283691441124473,0.004014882233004076
6670.789271372026,0.02264608527013577,0.004070856062088322
6670.790271143948,0.022399608160464896,0.004143539384023706
6670.791270915872,0.022100574872641415,0.004231674833610058
6670.792270687794,0.02175245354505524,0.004333815697568311
6670.793270459717,0.021359015474799705,0.0044483520749261495
6670.79427023164,0.020924266471256944,0.0045735401545368435
6670.795270003562,0.02045238395539737,0.004707534160077108
6670.796269775486,0.019947660351139984,0.004848420386342531
6670.797269547408,0.0194144528460885,0.004994252609691286
6670.798269319331,0.01885713934143901,0.005143088021178124
6670.799269091253,0.018280080268915533,0.005293022742221648
6670.800268863176,0.017687585826591922,0.005442225964369091
6670.801268635099,0.017083888057479412,0.005588971798645214
6670.802268407022,0.016473117045433788,0.005731668003299471
6670.803268178945,0.015859280276408642,0.005868880857512107
6670.804267950867,0.015246243958879432,0.0059993555322884005
6670.80526772279,0.014637715034516814,0.006122031362660294
6670.806267494712,0.014037222918959183,0.006236051492221336
6670.807267266636,0.013448100594366129,0.006340766524259178
6670.808267038558,0.012873465242355761,0.006435732088642701
6670.809266810481,0.012316199001718174,0.006520700538157667
6670.810266582404,0.011778930721380197,0.006595607246129719
6670.811266354326,0.01126401981373365,0.006660552179326703
6670.81226612625,0.010773543448181114,0.006715777560824772
6670.813265898172,0.010309288324890174,0.006761642496875128
6670.814265670095,0.009872748155460642,0.006798595456844002
6670.815265442017,0.00946512775381287,0.006827145545321567
6670.81626521394,0.00908735429384664,0.006847833602231054
6670.817264985863,0.008740095845900561,0.006861204239888701
6670.818264757786,0.008423786825503961,0.006867779915771677
6670.819264529709,0.008138659540163119,0.006868038041689295
6670.820264301631,0.007884780642570817,0.006862391970863892
6670.821264073554,0.00766209101219245,0.006851176523533304
6670.822263845476,0.007470447433576907,0.006834638541641764
6670.8232636174,0.007309664471657878,0.006812932799155279
6670.824263389322,0.00717955512351102,0.006786123398793233
6670.825263161245,0.007079968997488612,0.006754190534897985
6670.826262933168,0.007010826815922389,0.006717042227427506
6670.82726270509,0.0069721500021439255,0.006674530408571586
6670.828262477014,0.00696408411693596,0.006626470619524387
6670.829262248936,0.006986914992134635,0.006572664523377618
6670.830262020859,0.007041076532087461,0.006512924404666896
6670.831261792781,0.007127149319474479,0.006447098784285439
6670.832261564704,0.007245849436066667,0.0063750982224368815
6670.833261336627,0.00739800732732595,0.00629692029291919
6670.83426110855,0.0075845370447541185,0.006212672607009661
6670.835260880473,0.007806396688314052,0.006122592726892415
6670.836260652395,0.008064541297291419,0.006027063907312477
6670.837260424318,0.008359869836077753,0.0059266258179844
6670.83826019624,0.008693168304783571,0.005821979657391715
6670.839259968164,0.009065051284962634,0.005713987354471051
6670.840259740086,0.009475904285159098,0.005603664898206216
6670.841259512009,0.009925829046609458,0.005492170204663522
6670.842259283932,0.010414593599682262,0.005380786213680109
6670.843259055854,0.010941588490060411,0.005270900020714431
6670.844258827778,0.01150579036254203,0.005163978819005072
6670.8452585997,0.012105734026707678,0.00506154334262678
6670.846258371623,0.01273949411727639,0.004965139432089304
6670.847258143545,0.013404677340117662,0.004876308311243903
6670.848257915468,0.014098425983221063,0.004796556161246363
6670.849257687391,0.014817432903280636,0.004727323593986155
6670.850257459314,0.015557967645004287,0.004669955649382511
6670.851257231237,0.016315912766822902,0.0046256729522206694
6670.852257003159,0.017086808894309434,0.004595544660397058
6670.853256775082,0.017865906605245528,0.004580463818137834
6670.854256547005,0.018648223077649885,0.0045811256812557976
6670.855256318928,0.019428601513134133,0.004598009496571239
6670.85625609085,0.0202017715404891,0.004631364120446186
6670.857255862773,0.020962408959200127,0.004681197791736929
6670.858255634696,0.02170519336452965,0.004747272333989744
6670.859255406618,0.02242486263460392,0.004829102017573065
6670.860255178542,0.023116264000695212,0.004925957240713631
6670.861254950464,0.02377440214466582,0.005036873085780699
6670.862254722387,0.024394485070293574,0.0051606626730162225
6670.863254494309,0.024971968305018796,0.005295935068035964
6670.864254266232,0.025502597633746144,0.005441117322042946
6670.865254038155,0.025982450480309675,0.00559448008381832
6670.866253810078,0.026407976406311186,0.0057541661648008195
6670.867253582001,0.026776037758086117,0.005918221449701316
6670.868253353923,0.027083951828817888,0.006084627548863376
6670.869253125846,0.02732953572735013,0.006251335513806687
6670.870252897768,0.027511154447103628,0.006416299789054648
6670.871252669692,0.02762777155101957,0.006577511434892899
6670.872252441614,0.027679000590391748,0.006733029632845427
6670.873252213537,0.027665154041281014,0.006881010630542869
6670.87425198546,0.027587285507275905,0.007019733540145211
6670.875251757382,0.027447220689570704,0.007147622650654829
6670.876251529306,0.027247573464992993,0.00726326607795715
6670.877251301228,0.026991745038959673,0.007365430692998051
6670.878251073151,0.026683905745969575,0.007453073394251556
6670.879250845073,0.0263289599523443,0.007525348906349124
6670.880250616996,0.02593249454617966,0.007581614326657376
6670.881250388919,0.025500711057701506,0.007621430591816581
6670.882250160842,0.02504034107844046,0.00764456095765591
6670.883249932765,0.024558544769673497,0.0076509665381849085
