Time,Filtered_EMG_Bicep,Filtered_EMG_Tricep
6604.758334962033,0.0026028588939962572,0.002179265979116269
6604.759334733956,0.002630610178596088,0.0022690496253657717
6604.760334505879,0.002660329571101167,0.002356546113764689
6604.761334277801,0.002691964704468335,0.0024410127045320367
6604.762334049724,0.002725443005761482,0.0025217410250770534
6604.763333821647,0.0027606706471081563,0.0025980701887821796
6604.76433359357,0.002797531487511088,0.0026693991299982112
6604.765333365493,0.0028358860999148834,0.002735197734332837
6604.766333137415,0.0028755710036556907,0.002795016373432714
6604.767332909338,0.002916398185527294,0.00284849352058196
6604.76833268126,0.0029581549219212084,0.0028953612244850555
6604.769332453183,0.003000603858698284,0.0029354483493913928
6604.770332225106,0.0030434832964826228,0.002968681628113705
6604.771331997029,0.003086507669915098,0.002995084673451842
6604.772331768952,0.003129368276357055,0.0030147751176614413
6604.773331540874,0.00317173436640294,0.003027960011202847
6604.774331312797,0.0032132547344848397,0.0030349295570252038
6604.77533108472,0.00325355994926696,0.0030360492343685457
6604.776330856643,0.003292265352743677,0.003031750412064254
6604.777330628565,0.0033289749342441375,0.0030225196640770815
6604.778330400488,0.003363286148154388,0.0030088871310778535
6604.7793301724105,0.0033947956923567942,0.002991414361643985
6604.780329944334,0.003423106192833973,0.00297068208917841
6604.781329716257,0.0034478336404954865,0.0029472783663741396
6604.782329488179,0.0034686153057784217,0.0029217874089294874
6604.783329260102,0.003485117743677948,0.0028947794121887247
6604.784329032024,0.0034970444319269846,0.0028668015196778294
6604.785328803948,0.0035041425783022143,0.002838370060132109
6604.78632857587,0.003506208690283682,0.0028099641271849434
6604.787328347793,0.00350309261317658,0.0027820205336345303
6604.788328119716,0.0034946998967023647,0.0027549301219529356
6604.789327891638,0.003480992517783914,0.0027290353672547044
6604.790327663561,0.0034619881335148594,0.0027046291782586
6604.791327435484,0.003437758140454523,0.0026819547778854564
6604.792327207407,0.0034084248750883934,0.0026612065191938205
6604.793326979329,0.003374158313741021,0.002642531469545682
6604.794326751252,0.003335172617204359,0.002626031583199374
6604.795326523175,0.003291722809804782,0.002611766278451273
6604.796326295098,0.003244101786478275,0.002599755243758774
6604.797326067021,0.0031926377182272623,0.002589981334273893
6604.798325838943,0.0031376917983163477,0.0025823934931589426
6604.799325610866,0.0030796561674130835,0.0025769097191069876
6604.800325382788,0.003018951804992655,0.0025734201618855574
6604.801325154711,0.0029560261897887746,0.002571790432280996
6604.802324926634,0.0028913505956143257,0.002571865169017398
6604.803324698557,0.0028254169615426136,0.00257347185167645
6604.80432447048,0.002758734327899531,0.002576424819546092
6604.805324242402,0.002691824857977877,0.0025805294532325112
6604.806324014325,0.0026252194790956918,0.0025855864732961236
6604.807323786248,0.002559453181138575,0.0025913962842478667
6604.808323558171,0.0024950600112727405,0.002597763248925905
6604.809323330093,0.002432567812597234,0.002604499753865555
6604.810323102016,0.0023724927775188812,0.0026114299492255894
6604.8113228739385,0.0023153339078982164,0.0026183931021404607
6604.812322645862,0.002261567474651615,0.00262524654658455
6604.813322417785,0.0022116415496962233,0.0026318682171804953
6604.814322189707,0.0021659706584284013,0.00263815872267693
6604.81532196163,0.0021249305909678134,0.002644042872446417
6604.816321733552,0.0020888534303126673,0.002649470545784649
6604.817321505476,0.0020580229008549575,0.0026544168052253857
6604.818321277398,0.002032670182746806,0.002658881197034993
6604.819321049321,0.002012970347378368,0.0026628862406772253
6604.820320821244,0.0019990395462371586,0.0026664751734397116
6604.821320593166,0.0019909330555762657,0.0026697090764789826
6604.822320365089,0.001988644262098915,0.002672663552875411
6604.823320137012,0.0019921046616509543,0.0026754251516571815
6604.824319908935,0.002001184917447242,0.0026780877345488345
6604.825319680857,0.0020156969937589774,0.002680748960352419
6604.82631945278,0.0020353973661024973,0.0026835070134820557
6604.827319224703,0.002059991308802451,0.0026864576464855814
6604.828318996626,0.002089138248357959,0.0026896915713026386
6604.829318768549,0.002122458125651543,0.0026932922305634936
6604.830318540471,0.0021595386388882174,0.0026973339876706836
6604.831318312394,0.002199943166990769,0.0027018807648385404
6604.832318084316,0.002243219121407993,0.002706985125541359
6604.83331785624,0.0022889064491583106,0.0027126877625040075
6604.834317628162,0.002336546005812252,0.002719017338763563
6604.835317400085,0.0023856875304900027,0.002725990636449343
6604.836317172008,0.002435896989133987,0.002733612970747303
6604.83731694393,0.002486763104568682,0.002741878809594694
6604.838316715854,0.0025379029457437943,0.0027507725143804383
6604.839316487776,0.002588966487441138,0.0027602691006380006
6604.840316259699,0.002639640076235103,0.0027703349155450375
6604.841316031621,0.002689648765361963,0.0027809281432481714
6604.842315803544,0.002738757523687808,0.0027919990856060603
6604.8433155754665,0.0027867713768041976,0.0028034902207056717
6604.84431534739,0.0028335345840330827,0.002815336094689283
6604.8453151193125,0.0028789289809627197,0.0028274631349615668
6604.846314891235,0.0029228716221577113,0.0028397894776164448
6604.847314663158,0.0029653118528676333,0.002852224881851367
6604.84831443508,0.0030062279356990198,0.0028646707701699254
6604.849314207004,0.0030456233621644164,0.0028770203999199054
6604.850313978926,0.0030835229795366115,0.0028891591516639376
6604.851313750849,0.0031199690524456444,0.0029009649232195835
6604.852313522772,0.0031550173639827827,0.0029123086478775356
6604.853313294694,0.0031887334526726012,0.0029230549957630875
6604.854313066617,0.003221189071026258,0.0029330633414124258
6604.85531283854,0.0032524589218995486,0.002942189075668516
6604.856312610463,0.0032826176819512327,0.0029502853131813398
6604.857312382385,0.0033117372780273146,0.00295720500499367
6604.858312154308,0.003339884363113959,0.002962803413910237
6604.859311926231,0.0033671179475963826,0.0029669408683001453
6604.860311698154,0.003393487164935338,0.002969485700099958
6604.8613114700765,0.0034190291737023534,0.0029703172886750007
6604.862311241999,0.0034437672175176943,0.002969329142255454
6604.863311013922,0.0034677088798224943,0.0029664319366970006
6604.864310785844,0.003490844572923329,0.0029615564151337483
6604.865310557768,0.0035131462882254864,0.00295465605499302
6604.86631032969,0.003534566623297262,0.0029457094320284416
6604.867310101613,0.0035550381109683863,0.002934722240418604
6604.868309873536,0.003574472908666791,0.0029217289495781715
6604.869309645458,0.003592762945742457,0.0029067940845587986
6604.870309417382,0.0036097806438359892,0.002890013109849382
6604.871309189304,0.0036253802974108213,0.0028715128823245456
6604.872308961227,0.0036394001388436767,0.0028514516199552504
6604.873308733149,0.0036516650574133923,0.002830018310358612
6604.874308505072,0.0036619899205076706,0.0028074314651797415
6604.8753082769945,0.003670183437679772,0.0027839371251630923
6604.876308048918,0.0036760524788896905,0.0027598060490538036
6604.8773078208405,0.003679406704340324,0.0027353300748464023
6604.878307592763,0.003680063317747289,0.002710817698314197
6604.879307364686,0.0036778517564670476,0.0026865889498157614
6604.880307136608,0.0036726181879170564,0.0026629696773846634
6604.881306908532,0.003664229754757271,0.002640285383081222
6604.882306680454,0.0036525785537720435,0.0026188548087857032
6604.883306452377,0.0036375853327396254,0.002598983508598932
6604.8843062243,0.0036192028673422746,0.002580957660027173
6604.885305996222,0.0035974189589915422,0.0025650383454409393
6604.886305768146,0.003572258982372969,0.002551456486548329
6604.887305540068,0.0035437879074447266,0.002540408561951107
6604.888305311991,0.003512111723722543,0.0025320531993986797
6604.889305083913,0.003477378208917,0.002526508706582535
6604.890304855836,0.003439777004244354,0.0025238515729568704
6604.891304627759,0.0033995389603234108,0.0025241159328390555
6604.892304399682,0.0033569346876982124,0.0025272939329278083
6604.8933041716045,0.003312272213821215,0.002533336910806192
6604.894303943527,0.0032658936558709376,0.0025421572779576198
6604.89530371545,0.0032181708779580355,0.0025536310110314056
6604.896303487372,0.0031695001919885696,0.002567600675493828
6604.897303259296,0.0031202962549340377,0.0025838789166409233
6604.898303031218,0.003070985393060082,0.0026022523378443937
6604.899302803141,0.0030219986363439273,0.00262248564573613
6604.900302575064,0.0029737647587678427,0.002644325896417506
6604.901302346986,0.0029267035768149605,0.0026675066515357234
6604.90230211891,0.0028812196698750044,0.002691751867161761
6604.903301890832,0.0028376965967606177,0.002716779392472182
6604.904301662755,0.002796491637400252,0.0027423040317434157
6604.905301434677,0.0027579310917141392,0.0027680402012873395
6604.9063012066,0.002722306182564311,0.0027937042743865696
6604.9073009785225,0.0026898696072262802,0.002819016733120413
6604.908300750446,0.002660832766725378,0.002843704227954248
6604.9093005223685,0.002635363690925072,0.0028675016007753172
6604.910300294291,0.002613585670912322,0.0028901538855158593
6604.911300066214,0.002595576600563995,0.00291141827893013
6604.912299838136,0.0025813690168859575,0.002931066066043795
6604.91329961006,0.0025709508260011453,0.0029488844833459567
6604.914299381982,0.0025642667128392537,0.002964678511287067
6604.915299153905,0.002561220241799917,0.0029782726025117667
6604.916298925828,0.0025616766444588254,0.0029895123585852064
6604.91729869775,0.002565466259884221,0.002998266159910174
6604.918298469674,0.002572388558653563,0.003004426744531549
6604.919298241596,0.002582216652795716,0.0030079127380561945
6604.920298013519,0.00259470216818517,0.0030086701557741897
6604.921297785441,0.0026095803269477256,0.003006673905604229
6604.922297557364,0.0026265750562200325,0.003001929294410559
6604.923297329287,0.002645403920732183,0.0029944734782881076
6604.92429710121,0.002665782684630862,0.0029843767205040904
6604.9252968731325,0.0026874293355103086,0.0029717432624291854
6604.926296645055,0.002710067434050768,0.00295671159736149
6604.927296416978,0.0027334286919132467,0.002939453963172287
6604.9282961889,0.0027572547467966477,0.0029201749168933744
6604.929295960824,0.0027812981867788846,0.002899108906887904
6604.930295732746,0.002805322937854239,0.002876516815546802
6604.931295504669,0.0028291041444072746,0.002852681510356476
6604.932295276592,0.0028524276580964513,0.0028279025085940998
6604.933295048514,0.0028750892446881013,0.0028024899219332737
6604.934294820438,0.0028968936413082615,0.0027767578961467526
6604.93529459236,0.0029176536323040174,0.0027510177974921363
6604.936294364283,0.0029371893299869815,0.0027255714254829024
6604.937294136205,0.002955327835768968,0.002700704553435864
6604.938293908128,0.00297190343136924,0.0026766811036715906
6604.9392936800505,0.0029867584218467857,0.0026537382352066347
6604.940293451974,0.0029997447133379364,0.002632082549681122
6604.9412932238965,0.0030107261440690493,0.0026118875194836412
6604.942292995819,0.003019581508226042,0.0025932921350916892
6604.943292767742,0.003026208149310491,0.002576400677940497
6604.944292539664,0.0030305259639677425,0.0025612834699143823
6604.945292311588,0.003032481626459048,0.0025479784453087714
6604.94629208351,0.0030320527962691014,0.0025364934289112202
6604.947291855433,0.0030292520173470744,0.002526809051198352
6604.948291627356,0.003024129986076416,0.0025188822495990373
6604.949291399278,0.0030167778744491836,0.002512650279160877
6604.950291171202,0.0030073284465011573,0.0025080351080779433
6604.951290943124,0.002995955790080392,0.002504948035599695
6604.952290715047,0.0029828735855457205,0.002503294351563085
6604.953290486969,0.002968331934555006,0.0025029778487655916
6604.954290258892,0.0029526128690932716,0.002503905002214491
6604.955290030815,0.0029360247403302088,0.00250598865424769
6604.956289802738,0.0029188957334645932,0.002509151088983319
6604.9572895746605,0.002901566774834375,0.002513326426519024
6604.958289346583,0.0028843841138974525,0.002518462304933341
6604.959289118506,0.0028676918796250207,0.002524520843933685
6604.960288890428,0.0028518249064269727,0.002531478900607892
6604.961288662352,0.0028371020784338946,0.0025393276411446483
6604.962288434274,0.0028238203575443686,0.0025480714635201956
6604.963288206197,0.002812249568273903,0.0025577263122378755
6604.96428797812,0.002802627942760582,0.002568317438702367
6604.965287750042,0.0027951583948884417,0.0025798766987415954
6604.966287521966,0.0027900054820879567,0.002592439532877702
6604.967287293888,0.0027872930105202667,0.002606041804338756
6604.968287065811,0.0027871022372397357,0.0026207166466821327
6604.969286837733,0.0027894706191672167,0.0026364914138285907
6604.970286609656,0.002794391056206861,0.002653384774657711
6604.971286381579,0.002801811593857415,0.0026714039859466435
6604.972286153502,0.002811635608219837,0.002690542408565528
6604.9732859254245,0.0028237225761987947,0.002710777366854142
6604.974285697347,0.0028378895877612127,0.0027320684550511095
6604.97528546927,0.0028539137557404256,0.0027543563666954335
6604.976285241193,0.0028715356362710148,0.0027775622895891143
6604.977285013116,0.0028904637202694433,0.0028015878869023284
6604.978284785038,0.0029103800058012798,0.002826315868248992
6604.979284556961,0.002930946604498543,0.002851611133088822
6604.980284328884,0.0029518132644857195,0.0028773224400541293
6604.981284100806,0.002972625616521742,0.0029032845241378784
6604.98228387273,0.002993033889249944,0.002929320558842483
6604.983283644652,0.0030127018027778624,0.0029552448491936083
6604.984283416575,0.0030313153285458972,0.0029808656451140976
6604.985283188497,0.0030485909892935415,0.003005987981539582
6604.98628296042,0.00306428337268025,0.003030416471380974
6604.987282732343,0.003078191555253837,0.0030539579880757704
6604.988282504266,0.0030901641749895457,0.003076424184874643
6604.9892822761885,0.003100102938649983,0.0030976338272163703
6604.990282048111,0.0031079644029892205,0.003117414962270779
6604.991281820034,0.0031137599326665276,0.0031356069988810846
6604.992281591956,0.0031175538155091597,0.003152062804140638
6604.99328136388,0.0031194596064938952,0.0031666509235486902
6604.994281135802,0.003119634874923802,0.0031792579924723226
6604.995280907725,0.003118274639970074,0.0031897913414779405
6604.996280679648,0.0031156038787082687,0.0031981817346505154
6604.99728045157,0.0031118695449293917,0.003204386136000444
6604.998280223494,0.0031073325229233895,0.0032083903731728153
6604.999279995416,0.0031022598679215376,0.0032102115518023067
6605.000279767339,0.003096917587506759,0.0032099000639505388
6605.001279539261,0.003091564124727997,0.0032075410265740715
6605.002279311184,0.003086444627372212,0.0032032549780298862
6605.003279083107,0.0030817860348232493,0.003197197662601361
6605.00427885503,0.0030777929854592084,0.0031895587660598352
6605.0052786269525,0.003074644537735941,0.003180559535266803
6605.006278398875,0.0030724916971838355,0.00317044929945193
6605.007278170798,0.003071455739951399,0.003159500981676011
6605.008277942721,0.0030716273122246584,0.003148005739100715
6605.009277714644,0.003073066260053513,0.003136266907491083
6605.010277486566,0.003075802115286585,0.0031245934440585522
6605.011277258489,0.003079835149824397,0.0031132930500928253
6605.012277030412,0.0030851379222448017,0.003102665119067393
6605.013276802334,0.0030916572638583733,0.0030929936302393096
6605.014276574258,0.003099316662363362,0.003084540119507592
6605.01527634618,0.0031080189974608077,0.003077536903519284
6605.016276118103,0.0031176495790251092,0.0030721807789224394
6605.017275890025,0.0031280794384125274,0.003068627440414377
6605.018275661948,0.003139168810517826,0.0030669868541028686
6605.019275433871,0.003150770704363793,0.0030673197872274315
6605.020275205794,0.0031627344051133877,0.003069635626748491
6605.0212749777165,0.0031749087123960225,0.0030738915276806483
6605.022274749639,0.003187144721392866,0.0030799928547637625
6605.023274521562,0.0031992979883318294,0.003087794853539532
6605.024274293484,0.003211229971641944,0.003097105503489708
6605.025274065408,0.0032228086952658932,0.0031076895263120454
6605.02627383733,0.0032339086426845035,0.003119273515565239
6605.027273609253,0.0032444099580189963,0.003131552120128366
6605.028273381176,0.0032541970990937643,0.003144195167972539
6605.029273153099,0.0032631571496147776,0.003156855568397613
6605.030272925022,0.003271178044643713,0.0031691777848541157
6605.031272696944,0.0032781469868132947,0.0031808066350255924
6605.032272468867,0.003283949325965089,0.003191396161297313
6605.033272240789,0.0032884681429660514,0.0032006183242647224
6605.034272012712,0.0032915847232864205,0.0032081712906701894
6605.035271784635,0.003293180030831657,0.003213787099606979
6605.036271556558,0.0032931371995456407,0.003217238491517747
6605.0372713284805,0.0032913449533898834,0.0032183446793332725
6605.038271100403,0.003287701753661201,0.0032169758461108628
6605.039270872326,0.003282120373895407,0.0032130561856569197
6605.040270644249,0.0032745325418208605,0.0032065653628446824
6605.041270416172,0.003264893283108226,0.0031975383419451317
6605.042270188094,0.003253184646256912,0.0031860635997437176
6605.043269960017,0.003239418554399135,0.003172279806718922
6605.04426973194,0.003223638598995816,0.0031563711291596745
6605.045269503862,0.0032059206687687363,0.003138561370266779
6605.046269275786,0.003186372406375012,0.0031191072114086014
6605.047269047708,0.0031651315937470397,0.003098290824241344
6605.048268819631,0.003142363652725628,0.003076412108640561
6605.049268591553,0.0031182584857429897,0.0030537807961400596
6605.050268363476,0.0030930268749398333,0.003030708662740472
6605.051268135399,0.0030668966328255077,0.003007502107420064
6605.052267907322,0.003040108675672478,0.0029844553469067455
6605.0532676792445,0.0030129131727718006,0.0029618444459249054
6605.054267451167,0.002985565896659228,0.002939922358401043
6605.05526722309,0.002958324853830642,0.0029189151074659526
6605.056266995013,0.0029314472210757317,0.002899019177155
6605.057266766936,0.002905186564424204,0.00288040011989691
6605.058266538858,0.0028797902804057326,0.0028631922981630603
6605.059266310781,0.0028554971691281987,0.0028474995868628325
6605.060266082704,0.002832535029588188,0.0028333967933628847
6605.061265854627,0.0028111181723682924,0.0028209315308292287
6605.06226562655,0.002791444780850609,0.002810126311657785
6605.063265398472,0.002773694112540061,0.0028009806932353773
6605.064265170395,0.0027580235984294415,0.002793473384638304
6605.065264942317,0.0027445659515929473,0.002787564292626308
6605.06626471424,0.002733426427586245,0.002783196534822825
6605.067264486163,0.002724680387517097,0.002780298461634004
6605.068264258086,0.002718371300302253,0.0027787857027043086
6605.0692640300085,0.002714509290231503,0.0027785632183958352
6605.070263801931,0.0027130703068685494,0.0027795273346769445
6605.071263573854,0.0027139959835715054,0.002781567776573896
6605.072263345777,0.00271719425586908,0.0027845697549787256
6605.0732631177,0.0027225408097811135,0.0027884161725523476
6605.074262889622,0.00272988140624166,0.002792989992608809
6605.075262661545,0.0027390350824254036,0.0027981767667191715
6605.076262433468,0.0027497981714345123,0.0028038672533080584
6605.07726220539,0.002761949014185474,0.002809960005483499
6605.078261977314,0.0027752531728886514,0.0028163637859482463
6605.079261749236,0.0027894689113276716,0.0028229996779605758
6605.080261521159,0.0028043526910980893,0.0028298027853172897
6605.081261293081,0.0028196644372819927,0.002836723446685787
6605.082261065004,0.0028351723430684174,0.0028437279366734136
6605.083260836927,0.0028506570134194725,0.0028507986777575153
6605.08426060885,0.0028659147982460285,0.0028579340172078813
6605.0852603807725,0.002880760231773521,0.002865147614905184
6605.086260152695,0.0028950275648086544,0.002872467449579218
6605.087259924618,0.0029085714370926173,0.0028799344067674806
6605.088259696541,0.002921266783258593,0.0028876003835600398
6605.089259468464,0.0029330081039436236,0.0028955258388189413
6605.090259240386,0.0029437082634258894,0.002903776728081002
6605.091259012309,0.0029532969840816094,0.002912420791806198
6605.092258784232,0.0029617191894733517,0.002921523224291867
6605.093258556155,0.0029689333165819425,0.002931141836304328
6605.094258328078,0.0029749096966484707,0.00294132191609815
6605.0952581,0.0029796291017132838,0.0029520910688495827
6605.096257871923,0.0029830815558978454,0.0029634543606561962
6605.097257643845,0.002985265493478146,0.0029753901013212353
6605.098257415768,0.0029861872991811364,0.0029878465667341953
6605.099257187691,0.002985861198848768,0.003000739892887178
6605.100256959614,0.002984309401066837,0.003013953282368224
6605.1012567315365,0.002981562346722488,0.0030273375703317638
6605.102256503459,0.0029776589198962007,0.0030407131220541663
6605.103256275382,0.002972646505653174,0.0030538729817306824
6605.104256047305,0.002966580834015114,0.003066587145933687
6605.105255819228,0.002959525615859358,0.003078607788536784
6605.10625559115,0.002951552041923965,0.0030896752286353217
6605.107255363073,0.0029427382579332215,0.00309952441461337
6605.108255134996,0.0029331689361824826,0.0031078916927431174
6605.109254906919,0.002922935040499977,0.003114521645010382
6605.110254678842,0.0029121338308821564,0.00311917382472934
6605.111254450764,0.0029008690864335608,0.0031216292680602206
6605.112254222687,0.0028892514672970594,0.003121696678762823
6605.113253994609,0.002877398909683657,0.0031192181611153246
6605.114253766533,0.0028654369473038593,0.003114074331228235
6605.115253538455,0.0028534988564298254,0.0031061885976713145
6605.116253310378,0.002841725517526447,0.003095530393752295
6605.1172530823005,0.002830264879342742,0.0030821171842553936
6605.118252854223,0.002819270918960887,0.0030660151518330236
6605.119252626146,0.0028089020217008424,0.0030473385548020937
6605.120252398069,0.002799318747462766,0.0030262478051950206
6605.121252169992,0.0027906809960459773,0.0030029463497496496
6605.122251941914,0.0027831446373262,0.002977676477848772
6605.123251713837,0.002776857730433293,0.0029507142390053157
6605.12425148576,0.0027719564999110807,0.0029223637024180993
6605.125251257683,0.002768561250953686,0.0028929508007160404
6605.126251029606,0.0027667723986136918,0.002862816965888244
6605.127250801528,0.0027666667823742475,0.0028323127100284744
6605.128250573451,0.0027682944529727194,0.0028017912448524696
6605.129250345373,0.0027716761391811907,0.002771602178091033
6605.130250117296,0.002776801596768947,0.0027420852891606533
6605.131249889219,0.0027836289923466153,0.002713564395933166
6605.132249661142,0.0027920853932019703,0.002686341373771799
6605.1332494330645,0.002802068346454945,0.002660690438427912
6605.134249204987,0.0028134484540271974,0.0026368528275419493
6605.13524897691,0.0028260727888753607,0.0026150320163979106
6605.136248748833,0.002839768953777946,0.002595389599156207
6605.137248520756,0.0028543495594566134,0.002578041965369038
6605.138248292678,0.0028696168999028954,0.002563057901110668
6605.139248064601,0.0028853676322160644,0.002550457234307362
6605.140247836524,0.002901397313611025,0.002540210615813573
6605.141247608447,0.0029175046902793805,0.002532240485900781
6605.14224738037,0.002933495667211621,0.0025264232316062544
6605.143247152292,0.0029491869162321833,0.002522592496540284
6605.144246924215,0.002964409085942187,0.0025205435581273313
6605.145246696137,0.0029790095514048653,0.0025200386450434354
6605.146246468061,0.0029928546118842417,0.0025208130483170285
6605.147246239983,0.003005831057546914,0.002522581892109132
6605.148246011906,0.003017847089295122,0.002525047456653772
6605.1492457838285,0.003028832650437531,0.0025279069545405416
6605.150245555751,0.003038739268820714,0.0025308606378971186
6605.151245327674,0.003047539500711586,0.002533620068652439
6605.152245099597,0.0030552260379309464,0.0025359163330650305
6605.15324487152,0.003061810523036436,0.0025375079375923974
6605.154244643442,0.0030673221256413852,0.0025381881016500346
6605.155244415365,0.003071805946536153,0.002537791174472508
6605.156244187288,0.0030753213132693733,0.002536197940146057
6605.157243959211,0.00307794001450006,0.002533339622066598
6605.158243731134,0.003079744510032169,0.0025292004507260755
6605.159243503056,0.003080826158052688,0.0025238187166982643
6605.160243274979,0.003081283510164362,0.0025172862884496635
6605.161243046901,0.0030812207243636324,0.002509746623985141
6605.162242818824,0.0030807461392825595,0.0025013913424535034
6605.163242590747,0.0030799710513285646,0.002492455448495141
6605.16424236267,0.003079008733129151,0.002483211325054632
6605.1652421345925,0.003077973707937817,0.002473961642154368
6605.166241906515,0.0030769812523450367,0.0024650313804769667
6605.167241678438,0.003076147065511936,0.00245675923079183
6605.168241450361,0.0030755870378005247,0.002449488672779037
6605.169241222284,0.0030754170711172982,0.0024435590316124957
6605.170240994206,0.003075752929377092,0.0024392967585243597
6605.171240766129,0.0030767101110128333,0.00243700711544494
6605.172240538052,0.003078403721323074,0.002436966404664343
6605.173240309975,0.0030809482806672425,0.002439414886879837
6605.174240081898,0.0030844573589435156,0.002444550551714645
6605.17523985382,0.003089042911353396,0.002452523908768192
6605.176239625743,0.003094814220799612,0.002463433941464813
6605.177239397665,0.0031018764087702914,0.002477325322560788
6605.178239169589,0.0031103285186269572,0.002494186945622042
6605.179238941511,0.0031202611808365537,0.002513951790708538
6605.180238713434,0.003131753858882114,0.0025364981186946204
6605.1812384853565,0.003144871684673496,0.0025616519715129563
6605.182238257279,0.003159661931960952,0.0025891909311539533
6605.183238029202,0.0031761502174038393,0.002618849052562324
6605.184237801125,0.0031943365403213197,0.0026503228450710926
6605.185237573048,0.003214191291921328,0.0026832781427447083
6605.18623734497,0.00323565141051374,0.0027173576690550315
6605.187237116893,0.0032586169229141186,0.002752189061646725
6605.188236888816,0.003282948155494115,0.002787393098222053
6605.189236660739,0.0033084638905538626,0.0028225918764699883
6605.190236432662,0.0033349406874220427,0.002857416741543312
6605.191236204584,0.003362113514178136,0.002891515798020842
6605.192235976507,0.003389677774741557,0.002924560874297634
6605.193235748429,0.0034172927669340555,0.0029562538242548704
6605.194235520353,0.0034445865488710575,0.0029863320594528077
6605.195235292275,0.003471162112992608,0.0030145732138367283
6605.196235064198,0.0034966046776218175,0.0030407988537581843
6605.1972348361205,0.0035204898218790634,0.0030648771532788073
6605.198234608043,0.0035423921298104286,0.0030867244612784103
6605.199234379967,0.0035618939844480244,0.003106305706881402
6605.200234151889,0.00357859415768521,0.0031236336306433117
6605.201233923812,0.0035921158740128954,0.0031387668824543725
6605.202233695734,0.0036021140940819575,0.0031518070760648085
6605.203233467657,0.0036082818644443595,0.0031628949211223913
6605.20423323958,0.0036103556782956783,0.003172205566344475
6605.205233011503,0.00360811985037792,0.0031799432925273935
6605.206232783426,0.003601409927884662,0.003186335703307896
6605.207232555348,0.0035901151737711095,0.003191627577726615
6605.208232327271,0.0035741801923767354,0.003196074557133819
6605.209232099193,0.0035536058057392245,0.003199936819201298
6605.210231871117,0.003528449301776558,0.003203472847059084
6605.211231643039,0.003498824141778735,0.00320693336367296
6605.212231414962,0.00346489914124579,0.0032105554960367862
6605.2132311868845,0.0034268970669371693,0.003214557251695154
6605.214230958807,0.003385092572139139,0.0032191324022520194
6605.21523073073,0.003339809426165657,0.0032244458618703414
6605.216230502653,0.0032914170420306746,0.0032306296403979673
6605.217230274576,0.003240326336930285,0.0032377794597447575
6605.218230046498,0.0031869849819465474,0.003245952137753477
6605.219229818421,0.0031318721233824986,0.0032551638381186137
6605.220229590344,0.0030754926770351692,0.0032653892506299743
6605.221229362267,0.0030183712928803313,0.0032765617236669557
6605.22222913419,0.0029610460643092096,0.0032885743420860104
6605.223228906112,0.002904062027034482,0.0033012819293908625
6605.224228678035,0.0028479644671487196,0.003314503936665077
6605.225228449957,0.002793292042688645,0.003328028149566332
6605.226228221881,0.0027405697337549513,0.003341615107921256
6605.227227993803,0.0026903016869496243,0.0033550031100602483
6605.228227765726,0.002642964099063067,0.003367913669253161
6605.2292275376485,0.002598998353304434,0.0033800572887439555
6605.230227309571,0.0025588046435717385,0.003391139420963835
6605.231227081495,0.002522736296277127,0.0034008664860359036
6605.232226853417,0.002491094951689241,0.0034089518455179234
6605.23322662534,0.0024641267231548082,0.003415121641363994
6605.234226397262,0.0024420194156369933,0.0034191204001233788
6605.235226169185,0.002424900841827316,0.00342071627357079
6605.236225941108,0.002412838221590887,0.003419705765338608
6605.237225713031,0.002405838604954303,0.0034159178025810724
6605.238225484954,0.0024038502339412664,0.003409217053202491
6605.239225256876,0.0024067647469551917,0.0033995064434204094
6605.240225028799,0.00241442011832624,0.003386728878156972
6605.241224800721,0.0024266042185115463,0.0033708682019499402
6605.242224572645,0.002443058888373373,0.0033519494584412163
6605.243224344567,0.0024634844399874347,0.00333003850006
6605.24422411649,0.0024875445068083557,0.003305240957241094
6605.2452238884125,0.0025148711546909438,0.0032777005197016642
6605.246223660335,0.0025450701395670623,0.003247596461684175
6605.247223432259,0.0025777261711545946,0.003215140392907491
6605.248223204181,0.002612408018340548,0.0031805723105296922
6605.249222976104,0.002648673278005344,0.0031441560997828937
6605.250222748026,0.002686072651795652,0.0031061746483074413
6605.251222519949,0.00272415365092018,0.003066924723355846
6605.252222291872,0.002762463748909688,0.003026711746301493
6605.253222063795,0.00280055308012552,0.0029858445914394812
6605.2542218357175,0.0028379768211484013,0.002944630523999438
6605.25522160764,0.002874297408937862,0.0029033703734629426
6605.256221379563,0.0029090867646532586,0.0028623540192143854
6605.257221151485,0.002941928709368816,0.0028218562485323425
6605.258220923409,0.002972421759705473,0.002782133032074021
6605.259220695331,0.0030001824554882948,0.0027434182463235974
6605.260220467254,0.0030248492980891203,0.0027059208485040237
6605.2612202391765,0.003046087292420716,0.002669822485219768
6605.262220011099,0.0030635930125130755,0.0026352755201403824
6605.263219783023,0.0030771000512699364,0.00260240150788779
6605.264219554945,0.0030863846546817283,0.0025712901875595533
6605.265219326868,0.0030912712816128026,0.002541999079527921
6605.26621909879,0.0030916378017173457,0.0025145537350131117
6605.267218870713,0.0030874200675083652,0.0024889486272517873
6605.268218642636,0.0030786156541845367,0.0024651486084819553
6605.269218414559,0.0030652866170837287,0.002443090810679953
6605.2702181864815,0.003047561156253984,0.002422686861589208
6605.271217958404,0.0030256341052427764,0.00240382533031524
6605.272217730327,0.0029997661836303428,0.0023863743901760457
6605.273217502249,0.0029702819730180676,0.002370184751465095
6605.274217274173,0.0029375665905987808,0.0023550929433258363
6605.275217046095,0.002902061041923514,0.002340925008105828
6605.276216818018,0.00286425625298042,0.002327500627891571
6605.2772165899405,0.002824685832348559,0.002314637651957484
6605.278216361863,0.002783917689598578,0.002302156950452435
6605.279216133787,0.002742544708433006,0.0022898874851488924
6605.280215905709,0.002701174720179098,0.0022776714563093655
6605.281215677632,0.002660420032799463,0.0022653693563130894
6605.282215449554,0.0026208867458207613,0.0022528647488387486
6605.283215221477,0.002583164052600385,0.0022400686073702296
6605.2842149934,0.0025478137309039193,0.0022269230760640015
6605.285214765323,0.002515360048118807,0.0022134045393515465
6605.2862145372455,0.002486280329460103,0.0021995259070852033
6605.287214309168,0.002460996438689259,0.0021853380528984367
6605.288214081091,0.002439867402058336,0.002170930376162123
6605.289213853013,0.002423183368017909,0.0021564304749388586
6605.290213624937,0.0024111610341554963,0.0021420029189436755
6605.291213396859,0.002403940593476576,0.002127847107339672
6605.292213168782,0.0024015841717726924,0.002114194196669303
6605.2932129407045,0.002404075665919983,0.002101303108795634
6605.294212712627,0.00241132186009006,0.0020894556903509665
6605.295212484551,0.002423154693189648,0.002078951174941799
6605.296212256473,0.0024393345665526017,0.0020701001602841064
6605.297212028396,0.0024595545988116314,0.0020632183335338042
6605.298211800318,0.0024834457451470876,0.0020586201620898968
6605.299211572241,0.002510582707783613,0.0020566127277059656
6605.300211344164,0.002540490582284371,0.0020574898347421513
6605.301211116087,0.002572652204365348,0.002061526482574023
6605.3022108880095,0.0026065161726212204,0.002068973764225238
6605.303210659932,0.0026415055154639967,0.0020800542364415382
6605.304210431855,0.002677026939675256,0.0020949577921394666
6605.305210203777,0.002712480544541953,0.002113838044091112
6605.306209975701,0.00274726982884764,0.002136809197090986
6605.307209747623,0.0027808117867595,0.002163943357922952
6605.308209519546,0.0028125468992900634,0.002195268228284001
6605.3092092914685,0.00284194887407685,0.002230765154320431
6605.310209063391,0.0028685340400844642,0.0022703675547461753
6605.311208835315,0.0028918703289546204,0.0023139597961301453
6605.312208607237,0.0029115857531853907,0.0023613766196317132
6605.31320837916,0.0029273762412391773,0.0024124032479894055
6605.314208151082,0.00293901264412268,0.0024667763087104218
6605.315207923005,0.0029463467026186524,0.0025241856899638057
6605.316207694928,0.002949315756766555,0.002584277397469632
6605.317207466851,0.0029479459846366777,0.002646657410868627
6605.3182072387735,0.002942353970058996,0.0027108964612137802
6605.319207010696,0.002932746415348213,0.0027765355829708726
6605.320206782619,0.0029194178473019375,0.0028430922466767127
6605.321206554541,0.002902746230318925,0.0029100668607648333
6605.322206326465,0.002883186496092315,0.002976949440117577
6605.323206098387,0.0028612621016150036,0.003043226258070666
6605.32420587031,0.0028375548176703307,0.003108386315456655
6605.3252056422325,0.002812693027115416,0.003171927481939118
6605.326205414155,0.002787338878069257,0.003233362207743414
6605.327205186079,0.002762174681011289,0.0032922227698255913
6605.328204958001,0.0027378889461936043,0.003348066082704963
6605.329204729924,0.0027151624286626285,0.0034004781390432506
6605.330204501846,0.0026946544981608363,0.003449078139194287
6605.331204273769,0.0026769901028783154,0.003493522345170543
6605.332204045692,0.0026627475687271227,0.0035335076782963865
6605.333203817615,0.0026524474686181253,0.00356877507317709
6605.3342035895375,0.0026465427872915644,0.0035991125913276533
6605.33520336146,0.002645410580968243,0.0036243582736896107
6605.336203133383,0.0026493452953224627,0.0036444026674506327
6605.337202905306,0.0026585538736034393,0.003659190917457468
6605.338202677229,0.0026731527569092313,0.003668724298891765
6605.339202449151,0.002693166837257351,0.003673061087166441
6605.340202221074,0.002718530361400759,0.00367231667515634
6605.3412019929965,0.0027490897003919074,0.003666662833714354
6605.342201764919,0.002784607813158547,0.0036563259893817018
6605.343201536843,0.0028247701686914093,0.0036415843956237657
6605.344201308765,0.0028691918680612037,0.0036227641155906916
6605.345201080688,0.002917425717960731,0.003600233808416661
6605.34620085261,0.0029689710285294504,0.003574398392154925
6605.347200624533,0.003023282917216647,0.0035456917204255544
6605.348200396456,0.0030797818914024807,0.003514568457147731
6605.349200168379,0.0031378634689455645,0.0034814953798919055
6605.3501999403015,0.0031969075966914082,0.0034469423879659134
6605.351199712224,0.0032562876540804826,0.00341137351716001
6605.352199484147,0.00331537888412228,0.0033752382558012175
6605.353199256069,0.0033735661647395993,0.0033389634251653755
6605.354199027993,0.0034302510985554408,0.003302945850268369
6605.355198799915,0.0034848584480221896,0.0032675460164516544
6605.356198571838,0.0035368419765534308,0.0032330828824986245
6605.3571983437605,0.0035856897682248834,0.003199829991884925
6605.358198115683,0.0036309290766488303,0.0031680129765824182
6605.359197887607,0.0036721307081132256,0.003137808478038177
6605.360197659529,0.0037089129116988626,0.0031093444333783454
6605.361197431452,0.0037409447564649115,0.003082701619442508
6605.362197203374,0.00376794900973611,0.003057916326387877
6605.363196975297,0.0037897045567481928,0.0030349840356787873
6605.36419674722,0.0038060484016615007,0.003013863985078967
6605.365196519143,0.0038168772644098787,0.0029944844978494227
6605.3661962910655,0.0038221487410269985,0.002976748920303553
6605.367196062988,0.0038218819350922402,0.00296054195379788
6605.368195834911,0.003816157420159433,0.002945736110192045
6605.369195606834,0.0038051163877569154,0.0029321979939397704
6605.370195378757,0.0037889588774217262,0.0029197941319098557
6605.371195150679,0.003767941049842796,0.002908396125845322
6605.372194922602,0.0037423715238038328,0.00289788497424636
6605.3731946945245,0.003712606838562851,0.0028881544845042635
6605.374194466447,0.0036790461234769214,0.0028791137601796163
6605.375194238371,0.003642125059505752,0.0028706887943299154
6605.376194010293,0.003602309212729053,0.0028628232294066916
6605.377193782216,0.0035600868263551033,0.002855478363273486
6605.378193554138,0.0035159611911058037,0.0028486324907186157
6605.379193326061,0.0034704427720282107,0.0028422796768368874
6605.380193097984,0.0034240413274055463,0.0028364280746844875
6605.381192869907,0.003377258280804719,0.0028310979212810843
6605.3821926418295,0.003330579588036602,0.0028263193554422636
6605.383192413752,0.0032844692913002148,0.0028221301892319283
6605.384192185675,0.003239363894708947,0.002818573737792492
6605.385191957597,0.0031956676392628715,0.002815696780339202
6605.386191729521,0.0031537487015583458,0.002813547698233219
6605.387191501443,0.003113936288274539,0.0028121748201741545
6605.388191273366,0.0030765185508386758,0.0028116249971288925
6605.3891910452885,0.0030417412090537137,0.0028119424209898333
6605.390190817212,0.003009806759208195,0.002813167681655078
6605.391190589135,0.002980874161208043,0.0028153370263353963
6605.392190361057,0.002955058947301916,0.002818481752011113
6605.39319013298,0.0029324337466350063,0.002822627639322624
6605.394189904902,0.0029130292479967474,0.002827794329221292
6605.395189676825,0.00289683562553406,0.002833994551610585
6605.396189448748,0.002883804443102298,0.002841233137500494
6605.397189220671,0.00287385103869003,0.0028495057827665864
6605.3981889925935,0.0028668573713193915,0.0028587975802231865
6605.399188764516,0.0028626752956170945,0.0028690813931219737
6605.400188536439,0.002861130218115673,0.002880316196491069
6605.401188308362,0.002862025076651639,0.0028924455457285106
6605.402188080285,0.002865144563687432,0.0029053963335925774
6605.403187852207,0.0028702594895509376,0.0029190779692243383
6605.40418762413,0.002877131154143514,0.0029333820695272637
6605.4051873960525,0.0028855155653137424,0.0029481827154084973
6605.406187167975,0.002895167320484452,0.0029633373040888777
6605.407186939899,0.0029058429727070287,0.002978688008340839
6605.408186711821,0.002917303738590107,0.0029940638135121066
6605.409186483744,0.0029293174681575334,0.0030092830497217954
6605.410186255666,0.0029416598763226786,0.003024156294976483
6605.411186027589,0.0029541151147845276,0.0030384895133574695
6605.412185799512,0.0029664758197883757,0.003052087314062124
6605.413185571435,0.002978542795680052,0.0030647562601155208
6605.4141853433575,0.0029901244940586037,0.003076308194564236
6605.41518511528,0.003001036435990081,0.003086563562165755
6605.416184887203,0.0030111007065669877,0.0030953546815666
6605.417184659126,0.003020145628894291,0.0031025288891010348
6605.418184431049,0.0030280057007476095,0.003107951461363924
6605.419184202971,0.003034521853604615,0.003111508237733329
6605.420183974894,0.0030395420720419576,0.0031131078883507007
6605.4211837468165,0.0030429223949251572,0.0031126837945097234
6605.42218351874,0.00304452830612155,0.0031101955328042843
6605.423183290663,0.0030442364996858136,0.003105629986211481
6605.424183062585,0.0030419369649265613,0.0030990021321482112
6605.425182834508,0.0030375352909912815,0.003090355562661493
6605.42618260643,0.0030309550630226167,0.003079762770055951
6605.427182378353,0.0030221402305159865,0.003067325189313489
6605.428182150276,0.0030110573653017317,0.0030531729412270362
6605.429181922199,0.002997697764069748,0.0030374641840453125
6605.4301816941215,0.0029820793713605884,0.0030203839660216994
6605.431181466044,0.0029642485103587167,0.003002142480623199
6605.432181237967,0.002944281420162188,0.002982972669764242
6605.43318100989,0.0029222856007259006,0.002963127201177843
6605.434180781813,0.002898400946889081,0.00294287493747841
6605.435180553735,0.0028728006148199432,0.002922497074415292
6605.436180325658,0.0028456915218603353,0.0029022831337800494
6605.4371800975805,0.002817314339490853,0.002882526961982392
6605.438179869503,0.0027879428035838,0.0028635228280460595
6605.439179641427,0.0027578821572910766,0.0028455616508384607
6605.440179413349,0.002727466583964667,0.0028289273267146026
6605.441179185272,0.0026970555778025704,0.002813893088508809
6605.442178957194,0.002667029305736875,0.002800717821495877
6605.443178729117,0.0026377830988743743,0.002789642297691738
6605.44417850104,0.0026097212588780745,0.002780885349572465
6605.445178272963,0.0025832503779306165,0.0027746400638579264
6605.4461780448855,0.0025587723607715025,0.0027710701251423457
6605.447177816808,0.0025366773146437063,0.002770306470277634
6605.448177588731,0.002517336455129688,0.002772444409508432
6605.449177360654,0.00250109517808911,0.002777541324808318
6605.450177132577,0.002488266458944025,0.0027856149986947693
6605.451176904499,0.0024791247287705444,0.002796642591700612
6605.452176676422,0.00247390033239291,0.0028105602776413393
6605.4531764483445,0.0024727746237823626,0.002827263546781851
6605.454176220268,0.0024758757287560917,0.002846608184829276
6605.455175992191,0.002483275009489589,0.0028684119235436742
6605.456175764113,0.00249498428480407,0.0028924567369256375
6605.457175536036,0.0025109538756521296,0.002918491732506578
6605.458175307958,0.002531071542741127,0.0029462365638337376
6605.459175079881,0.002555162358668395,0.0029753852703006314
6605.460174851804,0.002582989520417968,0.003005610445275061
6605.461174623727,0.0026142560821935555,0.0030365676463742276
6605.4621743956495,0.002648607594203922,0.003067899972826743
6605.463174167572,0.00268563567014701,0.003099242724848564
6605.464173939495,0.0027248825496780722,0.0031302280332478655
6605.465173711418,0.0027658467413379487,0.003160489321740568
6605.466173483341,0.002807989814637633,0.0031896654580330116
6605.467173255263,0.0028507443704327453,0.0032174044772815815
6605.468173027186,0.0028935231786450803,0.0032433668192336953
6605.4691727991085,0.0029357294435681685,0.003267228078660662
6605.470172571032,0.0029767681334865763,0.00328868129663151
6605.471172342955,0.00301605828226471,0.003307438817021547
6605.472172114877,0.003053046142879792,0.0033232337286621177
6605.4731718868,0.0030872190694316657,0.0033358209361744385
6605.474171658722,0.003118120028869813,0.0033449779467561503
6605.475171430646,0.003145362666978257,0.0033505055007445714
6605.476171202568,0.0031686468450039876,0.0033522281982412607
6605.477170974491,0.0031877745242216093,0.0033499952865673546
6605.4781707464135,0.0032026658296035945,0.0033436817724316623
6605.479170518336,0.003213375092483297,0.0033331899962837984
6605.480170290259,0.0032201066587519934,0.003318451748794875
6605.481170062182,0.0032232302410352427,0.0032994309304912035
6605.482169834105,0.003223295576767694,0.003276126670912654
6605.483169606027,0.0032210461226365892,0.003248576747941405
6605.48416937795,0.0032174314692506828,0.003216861094972634
6605.4851691498725,0.00321361810027798,0.003181105159018462
6605.486168921796,0.0032109980481846954,0.003141482867889375
6605.487168693719,0.003211194914482687,0.0030982189675534677
6605.488168465641,0.003216066629186492,0.003051590501950042
6605.489168237564,0.003227704226783664,0.003001927237270545
6605.490168009486,0.0032484258271931526,0.0029496108859844404
6605.491167781409,0.0032807649552366335,0.002895073053685928
6605.492167553332,0.0033274523382105623,0.0028387919008605526
6605.493167325255,0.0033913904231762937,0.0027812875740055787
6605.4941670971775,0.0034756201091037464,0.0027231165074402667
6605.4951668691,0.0035832796121941946,0.002664864716864964
6605.496166641023,0.0037175558730733606,0.002607140197080715
6605.497166412946,0.0038816292968411954,0.0025505645171997986
6605.498166184869,0.004078612800988706,0.002495763703761241
6605.499165956791,0.004311486195233914,0.002443358526813674
6605.500165728714,0.004583026960376989,0.0023939543391827077
6605.5011655006365,0.004895738610755412,0.0023481306423508664
6605.50216527256,0.005251778019839952,0.0023064305691103608
6605.503165044483,0.005652883322414968,0.002269350506108465
6605.504164816405,0.006100304229431699,0.0022373301276221672
6605.505164588328,0.006594736751834544,0.002210743145319587
6605.50616436025,0.007136264390466444,0.0021898890748949028
6605.507164132174,0.00772430780058771,0.002174986286916349
6605.508163904096,0.0083575847939456,0.002166166569436984
6605.509163676019,0.00903408232155913,0.002163471399683699
6605.5101634479415,0.009751041812669366,0.0021668501002825528
6605.511163219864,0.010504958957879448,0.002176160030097851
6605.512162991787,0.011291598744445764,0.0021911689195594683
6605.51316276371,0.012106026288153415,0.0022115593998423104
6605.514162535633,0.01294265373209306,0.0022369356941694483
6605.515162307555,0.013795303151988653,0.002266832341888689
6605.516162079478,0.01465728500562763,0.002300724720046787
6605.5171618514005,0.015521491221975403,0.0023380410255031264
6605.518161623324,0.016380501579399968,0.0023781752989302336
6605.519161395247,0.017226701581863305,0.0024205010244313955
6605.520161167169,0.01805240961049033,0.002464384833430418
6605.521160939092,0.018850010726226003,0.0025091998818940883
6605.522160711014,0.019612094156393447,0.0025543385461930523
6605.523160482937,0.02033159121359964,0.0025992241622507096
6605.52416025486,0.021001910111595124,0.002643321576879217
6605.525160026783,0.021617063809215575,0.0026861462871859243
6605.5261597987055,0.022171786745518635,0.0027272719545856543
6605.527159570628,0.02266163643953655,0.0027663361323319495
6605.528159342551,0.023083076645176087,0.002803044135025178
6605.529159114474,0.023433539884673428,0.0028371710721616294
6605.530158886397,0.02371146824685598,0.0028685621439153396
6605.531158658319,0.023916332055111275,0.0028971313583238257
6605.532158430242,0.024048626515027254,0.002922858878679542
6605.5331582021645,0.024109846969461717,0.0029457872361401535
6605.534157974088,0.024102443991239272,0.0029660166316345924
6605.535157746011,0.024029760200457717,0.002983699512243754
6605.536157517933,0.023895951330398804,0.002999034567433783
6605.537157289856,0.023705894555975895,0.0030122602608363205
6605.538157061778,0.023465087322249584,0.0030236479787918223
6605.539156833702,0.02317953981571876,0.003033494831004072
6605.540156605624,0.02285566380002297,0.003042116103071526
6605.541156377547,0.022500159819474022,0.0030498373590051755
6605.5421561494695,0.02211990386992276,0.003056986227376167
6605.543155921392,0.021721833756657368,0.0030638839672087175
6605.544155693315,0.021312834774673786,0.003070836979624057
6605.545155465238,0.020899624327467288,0.0030781284814024603
6605.546155237161,0.020488635782295473,0.0030860105715188268
6605.547155009083,0.020085903053892764,0.003094696910489832
6605.548154781006,0.019696948591909094,0.0031043562142842635
6605.5491545529285,0.019326678114443732,0.0031151067525437754
6605.550154324852,0.018979285489026453,0.0031270120426038894
6605.551154096775,0.01865817089537255,0.003140077948483127
6605.552153868697,0.01836587508545014,0.003154251413795721
6605.55315364062,0.018104032230206478,0.003169421049078405
6605.554153412542,0.017873343418587435,0.003185419734180156
6605.555153184466,0.01767357229265652,0.0032020292938143707
6605.556152956388,0.01750356357570855,0.0032189871871751313
6605.557152728311,0.017361284424860773,0.003235995033192888
6605.5581525002335,0.017243887676317134,0.003252728666469154
6605.559152272156,0.017147795241478667,0.0032688492940025613
6605.56015204408,0.017068799260293064,0.003284015231223801
6605.561151816002,0.01700217817579951,0.0032978936646312924
6605.562151587925,0.016942824611783324,0.0033101719179260444
6605.563151359847,0.0168853817000869,0.003320567767195722
6605.56415113177,0.01682438424885959,0.0033288384283814993
6605.5651509036925,0.016754400962783283,0.0033347879054057045
6605.566150675616,0.01667017402403283,0.0033382724434352787
6605.567150447539,0.01656675276063871,0.0033392039023631527
6605.568150219461,0.016439618610260835,0.0033375509616430346
6605.569149991384,0.016284798857647304,0.0033333381669801983
6605.570149763306,0.016098966717479374,0.0033266429030995976
6605.57114953523,0.015879525473475157,0.003317590424474986
6605.572149307152,0.015624674655424293,0.0033063471181690295
6605.573149079075,0.01533345658924225,0.00329311222847329
6605.5741488509975,0.015005782131578358,0.0032781083546190412
6605.57514862292,0.014642435094906946,0.00326157113559523
6605.576148394843,0.014245055684169916,0.00324373862681697
6605.577148166766,0.013816103933139867,0.0032248409192560555
6605.578147938689,0.013358804523406771,0.0032050905473207138
6605.579147710611,0.012877074651136898,0.003184674184225527
6605.580147482534,0.012375437000515509,0.003163746040637754
6605.5811472544565,0.011858920416900884,0.0031424232828005426
6605.58214702638,0.01133295137031601,0.0031207836912073524
6605.583146798303,0.01080323955510468,0.0030988656922005253
6605.584146570225,0.010275660907931097,0.0030766707988170066
6605.585146342148,0.00975614102993926,0.003054168384882602
6605.58614611407,0.009250541626906444,0.0030313025967264604
6605.587145885994,0.008764552226526667,0.0030080011067520206
6605.588145657916,0.008303589086670614,0.002984185357367114
6605.589145429839,0.007872702852231376,0.002959781926223468
6605.5901452017615,0.007476496173946975,0.002934734630077569
6605.591144973684,0.007119052190663688,0.0029090169547479096
6605.592144745608,0.006803874495736097,0.0028826443725145784
6605.59314451753,0.006533838985506587,0.002855686118615671
6605.594144289453,0.0063111578691250605,0.002828276050552516
6605.595144061375,0.006137356090259675,0.0028006222875116555
6605.596143833298,0.006013260385808286,0.002773015404493669
6605.5971436052205,0.0059390011043593625,0.0027458350286388915
6605.598143377144,0.0059140267091205775,0.0027195547483527434
6605.599143149067,0.00593713062205096,0.0026947452943050297
6605.600142920989,0.0060064897646624855,0.00267207597633684
6605.601142692912,0.006119713852438987,0.002652314350130671
6605.602142464834,0.006273904241548643,0.0026363240485420877
6605.603142236758,0.006465720940953261,0.0026250606832053827
6605.60414200868,0.006691456291911573,0.002619565747102857
6605.605141780603,0.006947113736677221,0.002620958530939897
6605.6061415525255,0.007228489992403312,0.0026304261569386734
6605.607141324448,0.007531258796056461,0.00264921188331187
6605.608141096372,0.007851054221404976,0.002678601834564949
6605.609140868294,0.00818355143732314,0.0027199102923971554
6605.610140640217,0.008524542711127936,0.0027744636632854053
6605.611140412139,0.008870006482061751,0.002843583229419603
6605.612140184062,0.0092161674738903,0.0029285667865404236
6605.613139955985,0.009559546132808792,0.0030306692696183157
6605.614139727908,0.00989699617837772,0.003151082452205563
6605.615139499831,0.01022572966062651,0.003290913758794279
6605.616139271753,0.010543329483354315,0.0034511641552460548
6605.617139043676,0.010847749785694891,0.003632705032529896
6605.618138815598,0.011137304914264927,0.0038362540469048276
6605.619138587522,0.011410648111617669,0.004062350051153267
6605.620138359444,0.011666741578121505,0.00431132749794924
6605.621138131367,0.011904820143212097,0.004583290940978467
6605.6221379032895,0.01212435120780249,0.004878090442975453
6605.623137675212,0.012324993750519767,0.005195298784755154
6605.624137447136,0.01250655903488796,0.005534191344729727
6605.625137219058,0.01266897531754985,0.005893729419436771
6605.626136990981,0.012812258425783072,0.006272547644563496
6605.627136762903,0.012936489567853399,0.006668946082675315
6605.628136534826,0.013041801169371533,0.007080887442586112
6605.6291363067485,0.013128370932801944,0.007505999761847437
6605.630136078672,0.013196423738371871,0.007941584759921407
6605.631135850595,0.013246240438308682,0.008384632032827754
6605.632135622517,0.013278172008878089,0.00883183932300261
6605.63313539444,0.013292656935685059,0.009279639175131381
6605.634135166362,0.013290239263660242,0.009724232283655295
6605.635134938286,0.013271584690207113,0.010161627729175443
6605.636134710208,0.01323749257949111,0.010587690121139437
6605.637134482131,0.013188902685839717,0.010998193431157835
6605.6381342540535,0.013126896279418222,0.011388881000546618
6605.639134025976,0.013052691927085264,0.011755530826400072
6605.6401337979,0.01296763642446329,0.012094024807503462
6605.641133569822,0.012873191568301749,0.012400420237560278
6605.642133341745,0.012770917729576113,0.01267102152914577
6605.643133113667,0.012662455400931753,0.012902449970006592
6605.64413288559,0.012549505860509126,0.013091709291858399
6605.645132657513,0.012433811786600553,0.013236245019391732
6605.646132429436,0.012317138179587175,0.013333995968338922
6605.647132201359,0.012201253440357213,0.013383436777204568
6605.648131973281,0.012087910056398539,0.013383610796958658
6605.649131745204,0.011978824166102681,0.013334152868419553
6605.650131517126,0.011875653336675849,0.013235301508359592
6605.65113128905,0.011779972152438598,0.013087899994875246
6605.652131060972,0.011693245579229305,0.012893385996433863
6605.653130832895,0.011616800421012128,0.012653769811668025
6605.6541306048175,0.011551795396817976,0.01237160190534651
6605.65513037674,0.011499190451156242,0.012049931043444897
6605.656130148664,0.011459716030783799,0.011692254740866511
6605.657129920586,0.01143384334226896,0.011302463860576692
6605.658129692509,0.011421756987207675,0.010884783096503346
6605.659129464431,0.011423331679737917,0.010443708813711122
6605.660129236354,0.01143811485201673,0.009983945379148545
6605.6611290082765,0.01146531681929128,0.00951034079737076
6605.6621287802,0.011503809856126875,0.009027822268780772
6605.6631285521225,0.011552137101937542,0.008541332233390753
6605.664128324045,0.011608531718625753,0.008055765499190565
6605.665128095968,0.011670946196437736,0.007575908134203853
6605.66612786789,0.011737091187524282,0.007106378907620974
6605.667127639814,0.011804482798346857,0.0066515741614510335
6605.668127411736,0.011870496934891107,0.006215617010170302
6605.669127183659,0.011932429076862311,0.005802311659561334
6605.6701269555815,0.011987557758465632,0.005415103431067742
6605.671126727504,0.012033210073155517,0.00505704483696501
6605.672126499428,0.012066827695525494,0.0047307678479688465
6605.67312627135,0.012086032126456666,0.0044384623893992765
6605.674126043273,0.012088687951396258,0.004181861089696304
6605.675125815195,0.012072962758413413,0.003962230306291583
6605.676125587118,0.012037382029873284,0.0037803674011956225
6605.677125359041,0.011980876930671572,0.003636604142624069
6605.678125130964,0.011902822663803573,0.0035308160112322877
6605.679124902887,0.011803065172882432,0.0034624370969462506
6605.680124674809,0.011681934552735595,0.003430480169108698
6605.681124446732,0.011540244461534451,0.003433561398807387
6605.682124218654,0.011379277801246587,0.0034699291491121992
6605.683123990578,0.01120075963653656,0.003537496254335532
6605.6841237625,0.011006818631830931,0.00363387526498058
6605.685123534423,0.01079993832405357,0.0037564161999244033
6605.6861233063455,0.010582899553589509,0.003902246401881675
6605.687123078268,0.010358715501283514,0.004068312137548835
6605.688122850192,0.0101305610124255,0.004251421606825515
6605.689122622114,0.009901698137578773,0.004448288997384411
6605.690122394037,0.009675400015049365,0.004655579141972237
6605.691122165959,0.009454875325945153,0.004869952251062545
6605.692121937882,0.009243195543660042,0.005088108148720503
6605.693121709805,0.009043227059127861,0.005306829447014788
6605.694121481728,0.008857570001638154,0.005523023142074879
6605.6951212536505,0.008688505233290959,0.0057337601723865955
6605.696121025573,0.00853795062864365,0.005936312493968009
6605.697120797496,0.008407427394423975,0.006128187158830854
6605.698120569419,0.008298036835297984,0.006307156754531138
6605.699120341342,0.00821044762125911,0.006471285438708826
6605.700120113264,0.008144893279853231,0.006618949743904452
6605.701119885187,0.008101179370432213,0.006748853375305963
6605.7021196571095,0.008078699635802688,0.006860035390832438
6605.703119429032,0.008076460348420968,0.006951871415171644
6605.704119200956,0.008093112002876195,0.007024067856813419
6605.705118972878,0.00812698742076061,0.007076649434786857
6605.706118744801,0.008176145289962826,0.007109940631647741
6605.707118516723,0.008238418233090902,0.007124541908977421
6605.708118288646,0.008311464649193512,0.007121301629356283
6605.709118060569,0.008392823658373112,0.007101284666596459
6605.710117832492,0.00847997241926189,0.007065738699658277
6605.711117604415,0.00857038495493065,0.0070160591744664385
6605.712117376337,0.0086615915372226,0.0069537538615814095
6605.71311714826,0.008751237683456014,0.006880407831450547
6605.714116920182,0.008837141856769645,0.006797649521242614
6605.715116692106,0.008917350949307533,0.006707118403187571
6605.716116464028,0.008990192517583926,0.0066104346327999575
6605.717116235951,0.009054322542141627,0.006509170999442494
6605.7181160078735,0.009108767270004632,0.006404827518999823
6605.719115779796,0.009152957599904891,0.00629880905029224
6605.72011555172,0.009186754640903442,0.006192406324130204
6605.721115323642,0.009210465562820331,0.006086780720438957
6605.722115095565,0.009224849490978196,0.005982953030848882
6605.723114867487,0.009231113689773522,0.0058817963227973166
6605.72411463941,0.009230900473636323,0.005784032880229635
6605.725114411333,0.009226265247500058,0.005690235046144338
6605.726114183256,0.009219645972184692,0.005600829659397949
6605.7271139551785,0.009213824307474142,0.005516105672033095
6605.728113727101,0.009211878788212542,0.005436224445665165
6605.729113499024,0.009217130622821215,0.00536123216743582
6605.730113270947,0.009233082938850168,0.005291073826534936
6605.73111304287,0.009263354396075802,0.005225608251148391
6605.732112814792,0.009311608045336426,0.0051646237859748
6605.733112586715,0.009381476282477026,0.0051078542580030376
6605.7341123586375,0.009476482893393456,0.005054994916412213
6605.73511213056,0.009599963554115942,0.005005718026353718
6605.736111902484,0.00975498665302214,0.004959687734611357
6605.737111674406,0.009944276774498155,0.004916573716794577
6605.738111446329,0.010170143455364596,0.004876063001892431
6605.739111218251,0.010434417823597008,0.004837869330606126
6605.740110990174,0.010738399521758365,0.004801739534055239
6605.741110762097,0.011082816028773097,0.0047674567483155985
6605.74211053402,0.01146779618114706,0.004734840703254275
6605.743110305943,0.01189285934211006,0.004703745664445006
6605.744110077865,0.01235692125253418,0.004674056759655932
6605.745109849788,0.012858317126173578,0.004645685407084774
6605.74610962171,0.013394842035669338,0.004618564458153512
6605.747109393634,0.013963808074903529,0.004592643536642775
6605.748109165556,0.014562117184653051,0.004567884937812571
6605.749108937479,0.015186347924689007,0.004544260370765924
6605.7501087094015,0.015832853893985307,0.004521748785373418
6605.751108481325,0.016497870926823196,0.004500335487499194
6605.752108253248,0.017177629595297752,0.0044800126696237464
6605.75310802517,0.017868468937523058,0.004460781358852403
6605.754107797093,0.018566946790274354,0.0044426546384215395
6605.755107569015,0.019269941833913715,0.004425661857985462
6605.756107340938,0.01997474274408155,0.0044098534148133426
6605.757107112861,0.020679120803973473,0.004395305572826688
6605.758106884784,0.02138138363489129,0.004382124744162951
6605.7591066567065,0.022080408823454578,0.0043704507520820005
6605.760106428629,0.022775657007960984,0.004360458804624879
6605.761106200552,0.023467164754980497,0.0043523601145085385
6605.762105972475,0.024155518625517236,0.004346401184758297
6605.763105744398,0.02484181311611981,0.004342861732829454
6605.76410551632,0.02552759624904767,0.004342051141044668
6605.765105288243,0.026214807061232512,0.004344303297027589
6605.7661050601655,0.026905708991600167,0.004349969747246528
6605.767104832088,0.027602822433180938,0.004359411184444654
6605.768104604012,0.02830885885345703,0.004372987392845193
6605.769104375934,0.029026658049267347,0.0043910459042401425
6605.770104147857,0.029759129196144287,0.004413909791295111
6605.771103919779,0.0305091952564495,0.004441865195652655
6605.772103691702,0.03127973911271665,0.004475149280460944
6605.773103463625,0.03207354880303703,0.004513939276936658
6605.774103235548,0.032893258815150726,0.004558343187392312
6605.775103007471,0.0337412847609486,0.004608392554264965
6605.776102779393,0.03461974989056796,0.004664037537743702
6605.777102551316,0.03553040353865897,0.0047251443853077845
6605.778102323239,0.036474533196849554,0.004791495239768492
6605.779102095162,0.037452872993827095,0.004862790125853634
6605.780101867084,0.03846551188405469,0.004938650878941964
6605.781101639007,0.03951180501400213,0.005018626727012924
6605.7821014109295,0.040590291578370914,0.005102201196444766
6605.783101182853,0.041698621923341055,0.005188799978332389
6605.784100954776,0.04283349591540251,0.005277799383017543
6605.785100726698,0.04399061406961306,0.005368535049225783
6605.786100498621,0.045164642813707585,0.005460310647985794
6605.787100270543,0.0463491955041472,0.005552406398880931
6605.788100042466,0.047536831227619876,0.005644087287328172
6605.789099814389,0.04871907369142265,0.005734610932402135
6605.790099586312,0.04988645228498216,0.00582323508167838
6605.7910993582345,0.051028566607864145,0.005909224695279396
6605.792099130157,0.05213417462200828,0.005991858566224058
6605.79309890208,0.053191303445858804,0.0060704354511604535
6605.794098674003,0.05418738113098039,0.006144279741026729
6605.795098445926,0.05510938791330639,0.006212746729003624
6605.796098217848,0.05594402617733205,0.006275227495607138
6605.797097989771,0.056677908958132246,0.006331153344377595
6605.7980977616935,0.05729776676794018,0.0063799996380176915
6605.799097533616,0.05779067202650304,0.006421288846595287
6605.80009730554,0.05814427958603997,0.0064545926465343515
6605.801097077462,0.05834708058897279,0.006479533008074867
6605.802096849385,0.0583886649830584,0.006495782353029363
6605.803096621307,0.0582599856382545,0.006503062981801315
6605.80409639323,0.057953614760213094,0.006501145998870384
6605.805096165153,0.05746398202107558,0.006489849929869337
6605.806095937076,0.05678758413952653,0.006469039202517557
6605.807095708999,0.055923157202773854,0.006438622718551124
6605.808095480921,0.054871804744515196,0.00639855286287202
6605.809095252844,0.05363707591295403,0.006348825408405134
6605.810095024767,0.05222498952574457,0.0062894808021012666
6605.81109479669,0.05064400212479623,0.006220607222743291
6605.812094568612,0.04890492120571846,0.006142345598969588
6605.813094340535,0.047020767764233126,0.006054896505687294
6605.8140941124575,0.04500659427026901,0.005958528563988292
6605.815093884381,0.04287926478090723,0.005853587704025517
6605.816093656304,0.040657203550334836,0.005740506459668716
6605.817093428226,0.038360118039739245,0.005619812373581821
6605.818093200149,0.03600870226020016,0.005492134613365301
6605.819092972071,0.03362432687520559,0.005358208058484372
6605.820092743994,0.031228723050423835,0.005218874422335926
6605.821092515917,0.028843667283339775,0.0050750803471570115
6605.82209228784,0.026490674206005285,0.004927872705751858
6605.8230920597625,0.024190703690526182,0.004778391469943383
6605.824091831685,0.021963887670875752,0.004627860498355744
6605.825091603608,0.019829281060010966,0.004477576558924595
6605.826091375531,0.017804640036233412,0.004328896892598175
6605.827091147454,0.015906229826115868,0.004183225630110838
6605.828090919376,0.014148663004198196,0.004041999357859415
6605.829090691299,0.012544768392871207,0.0039066720809051575
6605.8300904632215,0.011105489977626863,0.0037786997766550176
6605.831090235145,0.009839814828554238,0.0036595247135939577
6605.832090007068,0.008754728709974346,0.003550559736148292
6605.83308977899,0.007855197763786464,0.003453172748472367
6605.834089550913,0.007144174375961521,0.0033686716223106507
6605.835089322835,0.006622625143073685,0.003298289709180498
6605.836089094759,0.006289578786613105,0.003243172083776356
6605.837088866681,0.006142191942838714,0.003204362595268809
6605.838088638604,0.006175831013165361,0.003182791751130681
6605.839088410527,0.006384168658172579,0.0031792654095412483
6605.840088182449,0.006759293917921353,0.0031944542319450524
6605.841087954372,0.007291835190929671,0.0032288838658513707
6605.842087726295,0.007971095350802255,0.0032829258860014973
6605.843087498218,0.008785198180777862,0.0033567895878324435
6605.84408727014,0.009721245177963965,0.003450514763094136
6605.845087042063,0.010765481726020494,0.003563965580803085
6605.8460868139855,0.01190347167989612,0.0036968256641336837
6605.847086585909,0.0131202794623586,0.003848594418344244
6605.848086357832,0.014400658709592843,0.004018584633164695
6605.849086129754,0.015729246253506846,0.004205921351151873
6605.850085901677,0.017090759831149525,0.0044095419720092364
6605.851085673599,0.018470197471889636,0.004628197584138723
6605.852085445522,0.019853036106351685,0.004860455608637697
6605.853085217445,0.02122542654109456,0.005104704003376866
6605.854084989368,0.022574381467509886,0.005359157449988373
6605.8550847612905,0.023887952629776953,0.005621866051205778
6605.856084533213,0.025155392801291063,0.005890727059329975
6605.857084305136,0.026367297916335942,0.006163500075229586
6605.858084077059,0.027515724538768424,0.0064378260523208445
6605.859083848982,0.02859427784250731,0.00671125031042494
6605.860083620904,0.029598165737063885,0.006981249582895662
6605.861083392827,0.03052421604604918,0.007245262887317161
6605.8620831647495,0.03137085558268921,0.007500725757346792
6605.863082936673,0.03213805189038052,0.007745107150210956
6605.864082708596,0.0328272198337856,0.007975948206512254
6605.865082480518,0.03344109629150743,0.00819090200272906
6605.866082252441,0.03398358734618102,0.008387773442787764
6605.867082024363,0.03445959369003623,0.008564558412624353
6605.868081796287,0.03487482116477842,0.00871948128360575
6605.869081568209,0.03523558412729662,0.008851029868874425
6605.870081340132,0.03554860961711072,0.00895798703345929
6605.871081112055,0.03582085016805491,0.009039458270226267
6605.872080883977,0.03605931255512827,0.009094894597244064
6605.8730806559,0.03627090874712694,0.009124110096448451
6605.874080427823,0.036462333892949575,0.009127293386959683
6605.875080199746,0.036639974463436226,0.009105012436224613
6605.876079971668,0.03680984788145007,0.009058212409962184
6605.877079743591,0.03697757326966814,0.008988206666068855
6605.8780795155135,0.03714837147452302,0.008896661364932421
6605.879079287437,0.037327091328222796,0.008785574404995236
6605.88007905936,0.03751825807843228,0.008657249473529811
6605.881078831282,0.03772613887064291,0.0085142659330007
6605.882078603205,0.037954819018765594,0.008359445074546841
6605.883078375127,0.03820828168444273,0.008195813050437028
6605.88407814705,0.038490482968139,0.00802656068070404
6605.885077918973,0.038805414843728195,0.007855000415081416
6605.886077690896,0.03915714986607706,0.007684520996287527
6605.8870774628185,0.03954986339547408,0.007518540669479324
6605.888077234741,0.03998783034912372,0.007360459954993039
6605.889077006664,0.04047539410871535,0.0072136149801821986
6605.890076778587,0.041016905915590436,0.007081232195267113
6605.89107655051,0.041616634675834645,0.006966385070298077
6605.892076322432,0.042278649683435476,0.006871953159455969
6605.893076094355,0.043006681652725046,0.006800583761024695
6605.8940758662775,0.043803969650115425,0.006754656306476073
6605.895075638201,0.044673102372864426,0.00673624956801433
6605.896075410124,0.045615861692791186,0.006747111754551579
6605.897075182046,0.04663307493361102,0.006788633560633745
6605.898074953969,0.047724480672672855,0.006861824259349018
6605.899074725891,0.04888861161413751,0.006967291007185528
6605.900074497815,0.05012269767478184,0.007105221637287456
6605.901074269737,0.051422592716701264,0.007275371305436023
6605.90207404166,0.05278272869486465,0.0074770533838058924
6605.903073813583,0.05419610075279014,0.007709134983338034
6605.904073585505,0.05565428597738713,0.007970037471334044
6605.905073357428,0.05714749757008153,0.008257742378399427
6605.906073129351,0.0586646754927651,0.00856980315836779
6605.907072901274,0.060193614177102776,0.008903363313523632
6605.908072673196,0.061721127305704934,0.009255181342867876
6605.909072445119,0.06323324869661891,0.009621662799762785
6605.9100722170415,0.06471546694616957,0.009998899539192961
6605.911071988965,0.0661529898285484,0.01038271608177675
6605.912071760888,0.06753103249237508,0.01076872290883303
6605.91307153281,0.06883512118866844,0.011152376343192782
6605.914071304733,0.07005140188704713,0.011529044427166577
6605.915071076655,0.07116694140426813,0.011894077933187305
6605.916070848579,0.07217000843133708,0.01224288538366143
6605.917070620501,0.07305032337624971,0.01257101069933243
6605.918070392424,0.07379926841132575,0.012874211803831373
6605.9190701643465,0.07441005114036792,0.013148538208119549
6605.920069936269,0.07487781625950979,0.013390405392327465
6605.921069708193,0.07519970025723587,0.013596663822369303
6605.922069480115,0.07537482596711945,0.013764660704408013
6605.923069252038,0.07540423725377071,0.013892292973020238
6605.92406902396,0.07529077849155628,0.013978050378624426
6605.925068795883,0.07503892728092432,0.014021047800932128
6605.9260685678055,0.07465459109666885,0.014021046051553677
6605.927068339729,0.07414487948240522,0.013978460465085931
6605.928068111652,0.07351786359291859,0.013894356561659469
6605.929067883574,0.07278233440190726,0.013770432077098148
6605.930067655497,0.071947569543739,0.013608984844526929
6605.931067427419,0.07102311683222015,0.01341286651867798
6605.932067199343,0.07001860055917841,0.013185422941489075
6605.933066971265,0.06894355484764456,0.012930422809770399
6605.934066743188,0.06780728630024586,0.01265197691478718
6605.935066515111,0.06661876588429695,0.012354450439139119
6605.936066287033,0.06538654811832255,0.012042370735689742
6605.937066058956,0.0641187151445484,0.011720332926286343
6605.938065830879,0.06282284437055204,0.011392905693385505
6605.939065602802,0.06150599999383954,0.011064539733262827
6605.940065374724,0.060174749448778556,0.010739481331595456
6605.941065146647,0.058835204978851745,0.01042169331671397
6605.9420649185695,0.05749308855034377,0.01011478527586324
6605.943064690493,0.05615381605483834,0.009821954487181761
6605.944064462416,0.05482259480944962,0.009545938612007759
6605.945064234338,0.053504526918856994,0.009288980845244769
6605.946064006261,0.052204710148641316,0.00905280793576398
6605.947063778183,0.05092832776969336,0.008838621240921399
6605.948063550107,0.04968071956972388,0.00864710072402933
6605.949063322029,0.04846742780833708,0.008478421498336509
6605.950063093952,0.047294213917923114,0.008332282163191165
6605.9510628658745,0.04616704365936132,0.00820794380370487
6605.952062637797,0.045092039756648036,0.008104278170478034
6605.953062409721,0.04407540179505079,0.008019823234381381
6605.954062181643,0.04312329409504034,0.007952844024478902
6605.955061953566,0.042241704145354886,0.007901396416545994
6605.956061725488,0.04143627686874631,0.007863391391425851
6605.957061497411,0.04071213244199896,0.007836657307343117
6605.9580612693335,0.04007367662138427,0.00781899799395905
6605.959061041257,0.039524412480702924,0.007808244971732311
6605.96006081318,0.03906676183906815,0.00780230273256508
6605.961060585102,0.03870190411570349,0.00779918663843206
6605.962060357025,0.038429640049499204,0.007797053491217767
6605.963060128947,0.03824828734932312,0.007794225192139871
6605.964059900871,0.03815461454205596,0.007789206191695281
6605.965059672793,0.0381438179777278,0.007780695633420222
6605.966059444716,0.038209545286111715,0.007767595171176548
6605.967059216639,0.03834396672257801,0.007749013374116819
6605.968058988561,0.038537893892413536,0.007724267460942862
6605.969058760485,0.038780943422685926,0.007692882871303193
6605.970058532407,0.03906174147566464,0.007654590932160559
6605.97105830433,0.03936816382639245,0.007609324670532814
6605.972058076252,0.03968760567736128,0.007557212710337131
6605.973057848175,0.0400072752556581,0.007498571163448454
6605.974057620098,0.04031450509432809,0.007433893439149815
6605.975057392021,0.040597074445782685,0.007363837925291487
6605.976057163944,0.04084353564536151,0.007289213530373151
6605.977056935866,0.0410435368000449,0.0072109631004492235
6605.978056707789,0.04118813305451301,0.007130144733533315
6605.979056479711,0.04127007863149192,0.007047911059300455
6605.980056251635,0.041284091489661286,0.006965486712310993
6605.981056023557,0.04122708171423952,0.006884144498953405
6605.98205579548,0.04109833408982084,0.006805181012162995
6605.9830555674025,0.04089963547796958,0.006729892546765045
6605.984055339325,0.040635339152973994,0.006659552094491202
6605.985055111249,0.04031236083787194,0.006595388024007176
6605.986054883171,0.03994010389213896,0.006538564843332045
6605.987054655094,0.03953031330006451,0.006490166235115349
6605.988054427016,0.03909686007581476,0.006451180379001905
6605.989054198939,0.038655460105330795,0.0064224874481604915
6605.9900539708615,0.03822333442825507,0.006404849077274715
6605.991053742785,0.03781882094321307,0.006398899522292267
6605.992053514708,0.03746094968162962,0.006405138165830006
6605.99305328663,0.03716899465411701,0.0064239229934649564
6605.994053058553,0.03696201496132228,0.006455464706833032
6605.995052830475,0.036858396962805406,0.006499821262404052
6605.996052602399,0.03687540833042374,0.006556892820156939
6605.997052374321,0.03702877386798641,0.00662641731856813
6605.998052146244,0.03733228189217821,0.006707967098164747
6605.999051918167,0.03779742871128977,0.006800947114217423
6606.000051690089,0.038433107499287036,0.0069045952904878355
6606.001051462013,0.03924534681058085,0.0070179854886261925
6606.002051233935,0.04023710305369669,0.007140033428980386
6606.003051005858,0.04140811020073357,0.007269505728096231
6606.00405077778,0.042754788657744416,0.007405032053262784
6606.005050549703,0.0442702135918965,0.007545120264879025
6606.006050321626,0.045944141407765586,0.007688174327702724
6606.007050093549,0.04776309196132407,0.00783251472054184
6606.008049865472,0.04971048385098904,0.007976401083957273
6606.009049637394,0.05176682056291914,0.008118056929107229
6606.010049409317,0.053909925686362895,0.008255696322943047
6606.011049181239,0.05611522532262609,0.008387552455156533
6606.012048953163,0.05835607537668361,0.008511907824163322
6606.013048725085,0.06060413120178618,0.008627125477571683
6606.014048497008,0.0628297571931545,0.008731680368211836
6606.0150482689305,0.06500247391851685,0.008824189529563717
6606.016048040853,0.06709143975154927,0.00890343958088693
6606.017047812777,0.0690659627849257,0.008968410187365227
6606.018047584699,0.07089603743502322,0.0090182925110446
6606.019047356622,0.07255289886624655,0.00905250218321943
6606.020047128544,0.07400958712180947,0.009070686686584839
6606.021046900467,0.07524151143399058,0.009072727208917004
6606.0220466723895,0.07622700330491695,0.009058735116238243
6606.023046444313,0.07694784441903704,0.009029043292137388
6606.024046216236,0.07738975260738769,0.008984192723004134
6606.025045988158,0.07754280702276824,0.008924914825603716
6606.026045760081,0.07740179382322698,0.008852110062687638
6606.027045532003,0.07696645667663683,0.00876682339955274
6606.028045303927,0.07624164139730501,0.00867021718884686
6606.029045075849,0.07523732901700539,0.0085635421449432
6606.030044847772,0.07396855509537391,0.00844810713647342
6606.031044619695,0.07245521527724792,0.008325248566423533
6606.032044391617,0.07072175942104805,0.008196300149350412
6606.033044163541,0.06879678018572323,0.008062563946787846
6606.034043935463,0.06671250657882825,0.007925283553157381
6606.035043707386,0.06450421733772121,0.007785620289093205
6606.036043479308,0.062209591818176625,0.007644633134592144
6606.037043251231,0.0598680169310936,0.0075032629348135
6606.038043023154,0.05751986826062267,0.007362321173288031
6606.039042795077,0.05520578265740243,0.007222483371766561
6606.040042567,0.05296593856935465,0.007084286979552796
6606.041042338922,0.05083935894006127,0.006948133482322107
6606.042042110845,0.04886324964926905,0.006814294396493132
6606.043041882767,0.04707238454524119,0.006682920807827853
6606.044041654691,0.04549854646126982,0.006554056128049529
6606.045041426613,0.04417003218348201,0.006427651723110324
6606.046041198536,0.04311122788097768,0.006303584963825036
6606.0470409704585,0.042342259939569755,0.006181679071068181
6606.048040742381,0.04187872466596027,0.006061723934326274
6606.049040514305,0.04173149915100679,0.00594349695650989
6606.050040286227,0.04190663461346154,0.00582678299452618
6606.05104005815,0.042405332485655325,0.005711392657107329
6606.052039830072,0.04322400208961583,0.005597178540066924
6606.053039601995,0.044354396946014375,0.00548404929427058
6606.054039373918,0.04578382478359746,0.005371981608626938
6606.055039145841,0.04749542460980085,0.00526103024195317
6606.056038917764,0.04946850319632557,0.005151336244239609
6606.057038689686,0.05167892310482446,0.005043133522586967
6606.058038461609,0.054099534494978806,0.004936753897835491
6606.059038233532,0.05670064280756314,0.004832630734119829
6606.060038005455,0.05945050376671837,0.004731301132983398
6606.061037777377,0.062315836273259845,0.004633406616327818
6606.0620375493,0.06526234297168385,0.004539692205982741
6606.063037321223,0.06825522757313893,0.004451003832115931
6606.064037093145,0.07125969747419504,0.004368284023171948
6606.065036865069,0.0742414403977184,0.004292565799272233
6606.066036636991,0.07716706543887747,0.004224964607434922
6606.067036408914,0.08000450215357278,0.004166668054999126
6606.068036180836,0.08272335536884956,0.0041189231871512685
6606.069035952759,0.08529521687837939,0.0040830211485878365
6606.070035724682,0.08769393700101595,0.004060279246236848
6606.071035496605,0.08989585893291073,0.004052020635637103
6606.072035268528,0.09188001768557208,0.004059552027839697
6606.07303504045,0.09362830421676413,0.004084139903190313
6606.074034812373,0.09512559470067325,0.004126985700552107
6606.075034584295,0.09635984469376228,0.004189200357689104
6606.076034356219,0.09732214788308864,0.004271778481400815
6606.077034128141,0.09800675899327133,0.004375572382774252
6606.078033900064,0.09841108052157031,0.004501266236111322
6606.0790336719865,0.09853561347136092,0.004649350692831383
6606.080033443909,0.09838387276007979,0.004820098387526574
6606.081033215833,0.09796226786648743,0.005013540890258739
6606.082032987755,0.09727994870593618,0.005229447739189172
6606.083032759678,0.09634861668289103,0.00546730818165562
6606.0840325316,0.09518230213038768,0.005726316171015723
6606.085032303523,0.09379711157833366,0.0060053590953188405
6606.086032075446,0.09221095033978415,0.00630301072757919
6606.087031847369,0.09044322668557536,0.00661752896821092
6606.088031619292,0.08851454321715652,0.0069468590190086225
6606.089031391214,0.08644637991331619,0.0072886426370502525
6606.090031163137,0.08426077302763609,0.007640234062074257
6606.09103093506,0.08197999482756249,0.007998723083741362
6606.092030706983,0.0796262400077979,0.008360965502205699
6606.093030478905,0.07722132435281716,0.00872362095157553
6606.094030250828,0.0747864000033371,0.009083197736528407
6606.095030022751,0.07234169057775797,0.009436104003735504
6606.096029794673,0.06990624916526895,0.009778704245553174
6606.097029566597,0.067497742655476,0.010107379820589794
6606.098029338519,0.06513226623460171,0.010418591888443934
6606.099029110442,0.06282419154712976,0.010708944954574497
6606.100028882364,0.06058605106528717,0.010975249198684636
6606.101028654287,0.05842846027086749,0.011214579925827367
6606.10202842621,0.05636007886317359,0.011424332700884735
6606.103028198133,0.05438761228275656,0.011602272860728544
6606.104027970056,0.05251585486964696,0.011746578152272194
6606.105027741978,0.05074777548603892,0.011855873346748484
6606.106027513901,0.04908464526179437,0.011929255913221372
6606.107027285823,0.047526205366772684,0.01196631216392594
6606.108027057747,0.04607087059425167,0.011967123643482735
6606.109026829669,0.044715962336322114,0.011932263895486045
6606.110026601592,0.04345796263524484,0.01186278606522367
6606.1110263735145,0.04229277980109134,0.011760201979480807
6606.112026145438,0.04121601565754112,0.011626453292541335
6606.113025917361,0.040223224411581715,0.01146387507625391
6606.114025689283,0.0393101530447644,0.011275152096935675
6606.115025461206,0.03847295319649186,0.011063268165772886
6606.116025233128,0.03770835547240484,0.010831449373431501
6606.117025005051,0.03701379948222561,0.010583102546715024
6606.118024776974,0.03638751641415203,0.010321750681352162
6606.119024548897,0.035828564588873305,0.010050967276754471
6606.12002432082,0.035336821121981166,0.009774311424494487
6606.121024092742,0.03491293406407119,0.009495265286404174
6606.122023864665,0.034558239502758825,0.009217175356965273
6606.123023636588,0.034274647874998,0.008943198701391845
6606.124023408511,0.03406450376228538,0.008676255210592853
6606.125023180433,0.03393042382379424,0.008418986798140793
6606.126022952356,0.03387511799095009,0.0081737243371942
6606.127022724279,0.03390119932307715,0.007942462956602375
6606.128022496201,0.034010987939357196,0.007726846075500681
6606.129022268125,0.03420631431289894,0.007528158264858118
6606.130022040047,0.03448832709108607,0.007347326701242437
6606.13102181197,0.034857310538252785,0.007184930654575565
6606.132021583892,0.035312516554847004,0.007041218159851138
6606.133021355815,0.035852015813736496,0.006916128778007457
6606.134021127738,0.036472571846518795,0.006809321177757564
6606.135020899661,0.037169541183535895,0.0067202042185436055
6606.136020671584,0.037936802271745444,0.00664797030356697
6606.137020443506,0.038766716023642414,0.006591629925460032
6606.138020215429,0.03965012131078509,0.006550046419583082
6606.139019987352,0.04057636910129133,0.006521969921713663
6606.140019759275,0.04153339885168854,0.006506069498881596
6606.141019531197,0.04250786000690552,0.006500962561038554
6606.14201930312,0.043485280070350275,0.006505241046845969
6606.1430190750425,0.04445027882192155,0.006517494387890812
6606.144018846966,0.04538682608917264,0.006536329660974259
6606.145018618889,0.046278538307370394,0.006560389495206826
6606.146018390811,0.047109007238049685,0.0065883682445027104
6606.147018162734,0.04786215277751713,0.006619026796272488
6606.148017934656,0.04852259069617782,0.006651206268701628
6606.149017706579,0.04907600528261978,0.006683840786807021
6606.150017478502,0.04950951614373698,0.006715969499852045
6606.151017250425,0.04981202783252719,0.006746747958775229
6606.152017022348,0.049974550764998286,0.006775458862277133
6606.15301679427,0.04999048239240012,0.00680152199415441
6606.154016566193,0.049855838742902774,0.006824502961544269
6606.155016338116,0.04956942772175137,0.006844120172927366
6606.156016110039,0.04913295685652805,0.0068602493885375265
6606.157015881961,0.048551070161576386,0.006872925107762029
6606.158015653884,0.04783131202089964,0.006882338035544055
6606.159015425807,0.04698402001486666,0.006888827986803046
6606.160015197729,0.046022152261587256,0.006892871930952808
6606.161014969653,0.044961057072784257,0.006895067376875297
6606.162014741575,0.0438181933257807,0.006896111736670438
6606.163014513498,0.04261280957153632,0.006896778508025079
6606.16401428542,0.04136558941602777,0.0068978910812949185
6606.165014057343,0.0400982705579214,0.006900294854142979
6606.166013829266,0.038833244923659124,0.0069048282854175715
6606.167013601189,0.037593147379685,0.006912293610378723
6606.168013373112,0.03640044047605891,0.006923428121150757
6606.169013145034,0.03527700265838291,0.006938877068265126
6606.170012916957,0.03424372737638656,0.006959169252574798
6606.17101268888,0.033320140379429306,0.006984696226374284
6606.172012460803,0.032524042067198555,0.007015695779619801
6606.173012232725,0.031871181094416265,0.007052240153925553
6606.174012004648,0.03137496476534063,0.0070942292485391654
6606.1750117765705,0.031046211324509684,0.0071413889258037135
6606.176011548494,0.030892949007813836,0.007193274337088301
6606.177011320417,0.030920266373245242,0.007249277976515626
6606.178011092339,0.031130217720779934,0.007308641997523341
6606.179010864262,0.031521786330271716,0.007370474259206144
6606.180010636184,0.03209090703132363,0.0074337675907181515
6606.181010408107,0.03283054852970993,0.0074974218021472815
6606.18201018003,0.03373085501289892,0.00756026796733674
6606.183009951953,0.03477934566149301,0.007621094424261299
6606.184009723876,0.03596116956107138,0.007678673789253369
6606.185009495798,0.03725941207657064,0.007731790140231215
6606.186009267721,0.03865544717668367,0.007779265492333356
6606.187009039644,0.04012932866064463,0.007819984785078712
6606.188008811567,0.04166021175950622,0.007852918755095462
6606.189008583489,0.043226795069272635,0.007877144241187246
6606.190008355412,0.044807771273780925,0.007891861682712813
6606.191008127335,0.0463822738793401,0.007896409827861946
6606.192007899258,0.04793030645045993,0.007890277887331392
6606.193007671181,0.04943314082653249,0.00787311544965703
6606.194007443103,0.050873671909050906,0.007844740369524048
6606.195007215026,0.052236719037609014,0.007805144582879448
6606.196006986948,0.053509267056988837,0.0077544974857358855
6606.197006758872,0.054680642872651834,0.0076931462648431245
6606.198006530794,0.05574262545313291,0.007621612526151483
6606.199006302717,0.05668948965242533,0.007540584805057003
6606.20000607464,0.057517987325322185,0.007450906969877673
6606.201005846562,0.05822727237240879,0.007353562919407041
6606.202005618485,0.05881877850092711,0.007249658159621872
6606.203005390408,0.059296059052444276,0.007140398859751107
6606.204005162331,0.05966459751887728,0.007027068977995948
6606.205004934253,0.05993159600784279,0.006911006079822635
6606.206004706176,0.0601057473234747,0.006793576505229426
6606.2070044780985,0.06019699464076801,0.006676150524606723
6606.208004250022,0.06021628126274704,0.006560078060662529
6606.209004021945,0.0601752921721309,0.006446665486134226
6606.210003793867,0.060086189378920976,0.006337153957649781
6606.21100356579,0.05996134421611661,0.00623269970111213
6606.212003337712,0.05981307097515189,0.006134356591507261
6606.213003109635,0.05965336681554516,0.006043061256986043
6606.214002881558,0.059493662589940835,0.005959620813085269
6606.215002653481,0.059344588653594106,0.005884703253248525
6606.216002425404,0.0592157595103213,0.005818830508183774
6606.217002197326,0.05911558141192312,0.0057623741993105895
6606.218001969249,0.059051087412905406,0.0057155540945375595
6606.219001741172,0.0590278044391669,0.005678439211080919
6606.220001513095,0.05904965638940944,0.005650951433812703
6606.221001285017,0.05911890604813604,0.005632871481377852
6606.22200105694,0.0592361366654488,0.005623847072936778
6606.223000828863,0.0594002717096891,0.005623403188821515
6606.224000600786,0.05960862917085657,0.005630954336290549
6606.225000372709,0.059857005680207874,0.00564581871618719
6606.226000144631,0.06013978585700255,0.0056672341322550465
6606.226999916554,0.060450073017945444,0.005694375375239955
6606.227999688476,0.06077983779829241,0.005726372652201042
6606.2289994604,0.06112008123515983,0.0057623304568092705
6606.229999232322,0.061461009013853714,0.0058013461457980045
6606.230999004245,0.061792214120738986,0.005842527469648748
6606.231998776168,0.06210286565832813,0.005885008454431111
6606.23299854809,0.06238190159844904,0.00592796330432098
6606.233998320013,0.06261822296139909,0.005970618257864471
6606.234998091936,0.06280088705228028,0.0060122614882707134
6606.235997863859,0.0629192983864264,0.006052251201269265
6606.236997635781,0.06296339722282127,0.006090022120651544
6606.237997407704,0.06292384611887347,0.006125090606451983
6606.2389971796265,0.06279221417721623,0.006157058709407269
6606.23999695155,0.06256115719289466,0.0061856174688585544
6606.240996723473,0.062224590453276656,0.006210549669780952
6606.241996495395,0.06177784976265658,0.006231732109498472
6606.242996267318,0.061217835380993776,0.006249137249912814
6606.24399603924,0.060543133181019365,0.006262834020918825
6606.244995811163,0.05975410757060722,0.006272987549628113
6606.245995583086,0.05885296127690628,0.006279857712061713
6606.246995355009,0.05784375761478467,0.006283796553708161
6606.247995126932,0.05673240165066226,0.006285244685295452
6606.248994898854,0.055526578268711255,0.006284726670503894
6606.249994670777,0.054235647480329975,0.006282845232321757
6606.2509944427,0.05287049955608579,0.006280273944815266
6606.251994214623,0.05144337383707662,0.006277748074437964
6606.252993986545,0.049967645337444584,0.0062760534103357465
6606.253993758468,0.04845758332144326,0.006276013159700704
6606.254993530391,0.04692808680289977,0.00627847313566184
6606.255993302314,0.045394403355527344,0.006284285484411188
6606.256993074237,0.04387183897809759,0.006294291145208788
6606.257992846159,0.04237546739776191,0.006309301203002181
6606.258992618082,0.04091984697901546,0.006330077333290054
6606.259992390004,0.039518752434424216,0.006357311643392018
6606.260992161928,0.038184927030520656,0.0063916063399729215
6606.26199193385,0.036929859394265206,0.0064334537640649845
6606.262991705773,0.0357635878935739,0.006483217399314551
6606.263991477696,0.034694535164602705,0.006541114440920709
6606.264991249618,0.03372937546252817,0.006607200420232766
6606.265991021541,0.032872937554648055,0.006681356290992672
6606.266990793464,0.03212814539893955,0.006763278371323709
6606.267990565387,0.031495997833779,0.006852471579146948
6606.268990337309,0.030975587261680714,0.006948246398909751
6606.269990109232,0.030564156149596153,0.007049719907645483
6606.2709898811545,0.030257189151321813,0.00715582100657971
6606.271989653078,0.03004853768683012,0.007265299860750815
6606.272989425001,0.02993057292391749,0.007376741521955371
6606.273989196923,0.029894362562994374,0.007488583767666901
6606.274988968846,0.029929866814567385,0.007599139223760178
6606.275988740768,0.030026149260229305,0.007706621781779486
6606.276988512692,0.030171598430890786,0.007809177175741375
6606.277988284614,0.03035415570650244,0.007904917369346941
6606.278988056537,0.03056154476802065,0.007991958133193464
6606.27998782846,0.030781497669646024,0.008068458905683968
6606.280987600382,0.031001972802721597,0.008132663815909722
6606.281987372306,0.031211360523241326,0.008182942658511138
6606.282987144228,0.03139867282396546,0.008217830604443484
6606.283986916151,0.031553713925989796,0.008236065404709583
6606.284986688073,0.03166722890201735,0.008236620779140745
6606.285986459996,0.031731027526525644,0.008218734716402549
6606.286986231919,0.031738080875917084,0.008181931703492934
6606.287986003842,0.03168258920457861,0.008126038418372067
6606.288985775765,0.031560021282493605,0.008051192908468438
6606.289985547687,0.031367127094573365,0.007957847515062979
6606.29098531961,0.03110192685294151,0.007846765803570537
6606.291985091532,0.03076367939669008,0.007719013719337165
6606.292984863456,0.030352832544905277,0.0075759452560280926
6606.293984635378,0.02987095736411456,0.007419183074631735
6606.294984407301,0.029320668027014565,0.007250594639396063
6606.295984179224,0.02870552910979902,0.007072264501289776
6606.296983951146,0.028029952669663485,0.0068864633937242474
6606.297983723069,0.027299087954842798,0.006695614821130171
6606.298983494992,0.02651870679701721,0.006502259774973029
6606.299983266915,0.02569508749841697,0.00630902008448834
6606.300983038837,0.024834899558934333,0.006118560772198368
6606.30198281076,0.023945091250128458,0.005933551743597024
6606.3029825826825,0.02303278204880591,0.005756629215064643
6606.303982354606,0.022105162226019544,0.00559035737959853
6606.304982126529,0.021169402165680508,0.005437190841561661
6606.305981898451,0.020232573973734656,0.005299438342499094
6606.306981670374,0.01930158754644313,0.005179228312599417
6606.307981442296,0.01838314261029604,0.005078476813910186
6606.30898121422,0.017483697492753317,0.004998858447029997
6606.309980986142,0.01660945464676167,0.0049417807569676
6606.310980758065,0.015766362287930522,0.004908362603238975
6606.311980529988,0.014960130923090634,0.004899416854302697
6606.31298030191,0.014196263039653765,0.004915437643809003
6606.313980073834,0.013480093763265538,0.00495659233550982
6606.314979845756,0.012816839844113071,0.005022718324071223
6606.315979617679,0.012211653879427372,0.005113324832515698
6606.316979389601,0.011669680251736151,0.005227599890795891
6606.317979161524,0.011196108923445563,0.0053644226392723
6606.318978933447,0.01079622301827609,0.005522380983892112
6606.31997870537,0.010475436068824765,0.005699794460326508
6606.320978477293,0.010239314982640267,0.005894741980234827
6606.321978249215,0.010093585215966575,0.00610509396952474
6606.322978021138,0.010044115282621228,0.006328548275427833
6606.32397779306,0.010096878501235243,0.006562669095397883
6606.324977564984,0.01025789085971952,0.006804928055967517
6606.325977336906,0.010533125127507734,0.007052746479311807
6606.326977108829,0.010928402746397607,0.007303537862987469
6606.327976880752,0.011449266277721769,0.007554749652232452
6606.328976652674,0.012100836059603529,0.0078039034528613535
6606.329976424598,0.012887655250852168,0.008048632893219271
6606.33097619652,0.013813527750735277,0.008286718405360596
6606.331975968443,0.014881353678989814,0.00851611825721605
6606.332975740365,0.016092967188118378,0.008734995211380825
6606.333975512288,0.01744898136551457,0.008941738190089019
6606.334975284211,0.01894864491748072,0.009134978272991619
6606.335975056134,0.020589715284930917,0.00931359828803005
6606.336974828057,0.022368352856386584,0.009476735326083046
6606.337974599979,0.02427904096322419,0.009623775882118935
6606.338974371902,0.026314536219353264,0.009754343991530539
6606.339974143824,0.028465853338202268,0.00986828345141921
6606.340973915748,0.03072228775797294,0.009965635705534975
6606.34197368767,0.03307147831170821,0.010046615120379397
6606.342973459593,0.03549951093927734,0.01011158327968538
6606.343973231516,0.037991063146212235,0.010161023714941313
6606.344973003438,0.04052958755650118,0.010195518247579704
6606.345972775362,0.043097531421980334,0.010215725848741116
6606.346972547284,0.045676587317108795,0.010222364603751194
6606.347972319207,0.0482479685146255,0.010216197011525638
6606.348972091129,0.05079270083834694,0.010198018513351595
6606.349971863052,0.05329192136980044,0.010168648899610219
6606.350971634975,0.05572717361447255,0.010128926133518476
6606.351971406898,0.05808068897747055,0.01007970217082906
6606.352971178821,0.06033564565167253,0.010021840492020316
6606.353970950743,0.06247639761398676,0.009956215175670562
6606.354970722666,0.06448866745097191,0.009883711317970513
6606.355970494588,0.06635969703384328,0.009805226446239107
6606.356970266512,0.0680783505533804,0.0097216723919876
6606.357970038434,0.06963516621689357,0.00963397699528277
6606.358969810357,0.07102235621461211,0.009543085039552682
6606.35996958228,0.07223375855842228,0.00944995791368635
6606.360969354202,0.07326474786951535,0.009355571609881595
6606.361969126126,0.07411211421886406,0.009260912788385953
6606.362968898048,0.07477391953988367,0.009166972783302448
6606.363968669971,0.07524934066698066,0.009074739556680101
6606.364968441893,0.0755385077820039,0.008985187708217218
6606.365968213816,0.07564234744839396,0.008899266753076503
6606.366967985739,0.07556244000439791,0.008817888037295999
6606.367967757662,0.07530090098766501,0.008741910851727494
6606.368967529585,0.07486029491617167,0.008672128463293858
6606.369967301507,0.07424358720578401,0.008609254840355633
6606.37096707343,0.0734541367236974,0.008553912769922399
6606.371966845352,0.07249572798931564,0.00850662386623713
6606.372966617276,0.07137263876614963,0.008467800745666337
6606.373966389198,0.07008973606254727,0.008437741498890117
6606.374966161121,0.06865259160425104,0.008416626543015542
6606.375965933044,0.06706760675691531,0.008404517906338282
6606.376965704966,0.0653421365295755,0.008401360922642905
6606.37796547689,0.06348460231996368,0.008406988193296312
6606.378965248812,0.06150458329701007,0.008421125553656672
6606.379965020735,0.05941287716819443,0.008443399682965974
6606.380964792657,0.05722152312300742,0.008473346913657708
6606.38196456458,0.054943782870811454,0.00851042270678529
6606.382964336503,0.052594078966233214,0.008554011187625386
6606.383964108426,0.0501878919964731,0.008603434139076353
6606.384963880349,0.04774161945051811,0.008657958967341787
6606.385963652271,0.045272399971477154,0.008716805358456006
6606.386963424194,0.04279790808532701,0.008779150566404659
6606.387963196116,0.040336126297779856,0.008844133474609047
6606.38896296804,0.037905102737114824,0.008910857774877498
6606.389962739962,0.035522702686104725,0.008978394818814383
6606.390962511885,0.03320636164015135,0.009045786844962912
6606.391962283808,0.030972846557380695,0.009112051288732412
6606.39296205573,0.02883803103274676,0.009176186738811501
6606.393961827654,0.026816689187080786,0.009237180877128852
6606.394961599576,0.02492231207328852,0.009294020495680158
6606.395961371499,0.023166949437717722,0.009345703466924746
6606.396961143421,0.021561078741432985,0.009391252380543896
6606.397960915344,0.020113502379305072,0.009429729450572627
6606.398960687267,0.01883127308509043,0.00946025223940296
6606.39996045919,0.017719646743981476,0.009482009756701302
6606.400960231113,0.016782061344974068,0.009494278580798841
6606.401960003035,0.01602014054331273,0.009496438766056834
6606.402959774958,0.015433720156762165,0.009487989353744737
6606.40395954688,0.015020895788825497,0.00946856323786088
6606.404959318804,0.014778089587298357,0.009437940946226334
6606.405959090726,0.014700133909887447,0.0093960626126953
6606.406958862649,0.014780369508943635,0.009343037101170069
6606.407958634572,0.015010755960936217,0.009279147017498006
6606.408958406494,0.015381992520764838,0.009204848396103499
6606.409958178418,0.015883648178351542,0.009120764302342507
6606.41095795034,0.01650430009394175,0.00902767233307061
6606.411957722263,0.0172316795965481,0.008926486684580267
6606.412957494185,0.01805282463524411,0.00881823581672872
6606.413957266108,0.018954237173089042,0.008704036805575334
6606.414957038031,0.01992204360372405,0.008585067463671246
6606.415956809954,0.02094215587555475,0.008462537347293438
6606.416956581877,0.022000430719018593,0.008337658807631388
6606.417956353799,0.023082824300284494,0.008211619167520442
6606.418956125722,0.024175539740100095,0.00808555489168653
6606.419955897645,0.025265165088077194,0.007960528333877557
6606.420955669568,0.026338799491093825,0.007837507382672103
6606.42195544149,0.027384165647886982,0.007717348172815337
6606.422955213413,0.02838970744884359,0.007600781028238113
6606.423954985336,0.029344672920619003,0.0074883999147052184
6606.424954757258,0.030239183880031183,0.0073806557685849985
6606.425954529182,0.031064294659846888,0.007277854007561191
6606.426954301104,0.0318120426686758,0.007180156304044576
6606.427954073027,0.032475493356467176,0.0070875863857553
6606.428953844949,0.03304878152288947,0.007000039298609478
6606.429953616872,0.03352715005289805,0.006917293289727832
6606.430953388795,0.03390698626112097,0.006839023331085422
6606.431953160718,0.03418585515045445,0.006764815401790498
6606.432952932641,0.03436252806704933,0.00669418098283022
6606.433952704563,0.03443700449851359,0.00662657163534318
6606.434952476486,0.034410524236023,0.0065613938036339125
6606.435952248408,0.03428556701213631,0.006498023999543399
6606.436952020332,0.03406583713602292,0.0064358243749389294
6606.437951792254,0.03375623139547054,0.00637415854132825
6606.438951564177,0.033362789219452245,0.006312407438724243
6606.4399513361,0.03289262451548502,0.00624998506111512
6606.440951108022,0.03235383871901443,0.006186353833705628
6606.441950879946,0.0317554147562739,0.006121039358869696
6606.442950651868,0.03110709223597422,0.006053644122018767
6606.443950423791,0.030419225325457766,0.005983859639248106
6606.444950195713,0.029702626116406443,0.005911476494566186
6606.445949967636,0.028968397435532443,0.0058363917750011525
6606.446949739559,0.02822775973726769,0.005758613539514308
6606.447949511482,0.027491876814730212,0.005678262096993526
6606.4489492834045,0.026771684632476273,0.0055955679809450674
6606.449949055327,0.026077726840499103,0.005510866602784712
6606.45094882725,0.02541999974392188,0.005424589675325763
6606.451948599173,0.024807808867656975,0.005337253634589318
6606.452948371096,0.024249638881581596,0.005249445424860999
6606.453948143018,0.02375303856855798,0.005161806112412434
6606.454947914941,0.02332452259257547,0.005075012846516313
6606.455947686864,0.022969491784827913,0.004989759702606807
6606.456947458786,0.022692173292248524,0.004906737929140605
6606.45794723071,0.022495581235327015,0.0048266160921419795
6606.458947002632,0.022381497713531526,0.004750020604659702
6606.459946774555,0.02235047332362149,0.004677517159043019
6606.460946546477,0.022401845959886826,0.0046095936178849675
6606.4619463184,0.02253377654540262,0.004546644924784563
6606.462946090323,0.02274330036829679,0.004488960560372033
6606.463945862246,0.0230263926719133,0.004436715010009606
6606.4649456341685,0.02337804698840058,0.004389961643313117
6606.465945406091,0.02379236456838822,0.004348630326127275
6606.466945178014,0.024262653379195396,0.004312528972897419
6606.467944949936,0.024781535508686035,0.004281349097631377
6606.46894472186,0.025341062137594902,0.004254675254659739
6606.469944493782,0.025932835317732602,0.004231998100374704
6606.470944265705,0.026548135718834232,0.004212730666878799
6606.471944037628,0.027178055519214067,0.004196227314778955
6606.472943809551,0.02781363576448845,0.004181804714137264
6606.473943581474,0.028446007630152318,0.004168764086986511
6606.474943353396,0.0290665369134964,0.004156413843557432
6606.475943125319,0.02966697070886358,0.004144091688390633
6606.476942897241,0.030239584679908456,0.004131185313685356
6606.477942669164,0.03077732874888649,0.004117150966075083
6606.478942441087,0.03127396839597388,0.004101529418674715
6606.47994221301,0.03172421801975491,0.004083959092723823
6606.4809419849325,0.03212386194405346,0.004064186178352341
6606.481941756855,0.03246985792794646,0.004042071615873275
6606.482941528778,0.03276041791247189,0.004017594793505682
6606.483941300701,0.03299506146918197,0.003990853867941639
6606.484941072624,0.033174638661635336,0.0039620627280341795
6606.485940844546,0.03330132011270162,0.003931544742150704
6606.486940616469,0.033378552692371596,0.003899723511959271
6606.487940388392,0.03341097978816809,0.003867110919744027
6606.488940160314,0.03340432616454554,0.0038342928537749917
6606.489939932238,0.03336524910110123,0.0038019131371497743
6606.49093970416,0.03330115947628559,0.0037706563098312065
6606.491939476083,0.03322001822156551,0.0037412299437705964
6606.492939248005,0.033130114691768686,0.0037143470890477538
6606.493939019928,0.03303983384181712,0.0036907093033313864
6606.494938791851,0.03295741893327055,0.003670990575295682
6606.495938563774,0.03289073627427274,0.003655822368480376
6606.4969383356965,0.032847048435577224,0.0036457800040259666
6606.497938107619,0.032832802318486926,0.0036413706357843996
6606.498937879542,0.032853438109616856,0.0036430230870111036
6606.499937651465,0.032913224444106715,0.0036510797761620264
6606.500937423388,0.0330151241380173,0.003665790870924064
6606.50193719531,0.033160693865590174,0.003687310705533363
6606.502936967233,0.03335002026827408,0.0037156963962664464
6606.503936739156,0.03358169412284454,0.003750908509250124
6606.504936511079,0.03385282325296351,0.0037928136014445174
6606.505936283002,0.03415908385572438,0.0038411884868400667
6606.506936054924,0.03449480894216424,0.0038957261464769876
6606.507935826847,0.03485311171082685,0.003956043246220624
6606.508935598769,0.035226040824911126,0.0040216892184588016
6606.509935370692,0.03560476364041047,0.004092156812033521
6606.510935142615,0.03597977238287032,0.004166893946216955
6606.511934914538,0.03634110722071661,0.004245316641618766
6606.5129346864605,0.036678589497691635,0.004326822751363415
6606.513934458383,0.03698205842397579,0.004410806180738644
6606.514934230306,0.037241605218883644,0.0044966712599770345
6606.515934002229,0.03744779949191938,0.004583846903245458
6606.516933774152,0.03759190295816553,0.004671800123135901
6606.517933546074,0.037666065312788335,0.0047600483817056794
6606.518933317997,0.037663496699954516,0.004848170184772011
6606.51993308992,0.03757861134158653,0.004935813305254514
6606.520932861842,0.03740713793132447,0.0050227000813701395
6606.521932633766,0.03714619429512323,0.005108629376786848
6606.522932405688,0.03679432607097999,0.005193474983177737
6606.523932177611,0.03635151102818734,0.005277180473784295
6606.524931949533,0.03581913162812831,0.00535975077791892
6606.525931721456,0.035199918628587325,0.005441240992677899
6606.526931493379,0.03449786845913069,0.005521743095467283
6606.527931265302,0.03371813711181904,0.005601371242956094
6606.5289310372245,0.032866913467265245,0.005680246289715461
6606.529930809147,0.03195127537317342,0.005758480095563426
6606.53093058107,0.030979032535311847,0.005836160147013853
6606.531930352993,0.029958561225009252,0.005913334999683056
6606.532930124916,0.02889863645404783,0.005990001049652222
6606.533929896838,0.027808267187175995,0.006066091159081543
6606.534929668761,0.026696539348149986,0.0061414656737427
6606.535929440684,0.025572470163266102,0.00621590633231211
6606.536929212607,0.024444876193910062,0.006289113456922038
6606.53792898453,0.023322256516527543,0.0063607066588626015
6606.538928756452,0.02221269193130995,0.0064302291281528095
6606.539928528375,0.021123760644101493,0.006497155411484063
6606.540928300297,0.02006247040903973,0.006560902423143278
6606.54192807222,0.01903520661118015,0.0066208432935867334
6606.542927844143,0.018047695283060196,0.006676323549882092
6606.543927616066,0.01710497971198233,0.006726679018853261
6606.5449273879885,0.016211409212408608,0.006771254720421064
6606.545927159911,0.015370638802090181,0.006809423904995707
6606.546926931834,0.014585638765674595,0.006840606360404629
6606.547926703757,0.013858713179377329,0.0068642852058195605
6606.54892647568,0.01319152627075263,0.006880021567953108
6606.549926247602,0.012585135081104646,0.006887466749205428
6606.550926019525,0.012040026527814485,0.006886371709532159
6606.551925791448,0.011556156851696493,0.0068765938436720405
6606.552925563371,0.011132991647947463,0.006858101099464279
6606.553925335294,0.010769545155388038,0.006830973456864709
6606.554925107216,0.010464418113848937,0.006795401725188698
6606.555924879139,0.010215834168566074,0.006751683598709316
6606.556924651061,0.010021675338745177,0.00670021701878646
6606.557924422985,0.009879517329952589,0.006641491129073547
6606.558924194907,0.009786665429693532,0.006576075355001506
6606.55992396683,0.009740191476590923,0.006504607243216405
6606.5609237387525,0.009736972067343355,0.006427779644492888
6606.561923510675,0.009773727876984722,0.006346327705198434
6606.562923282598,0.00984706379870639,0.006261016019156118
6606.563923054521,0.009953509584672953,0.006172626208066396
6606.564922826444,0.010089560761313544,0.006081945150003536
6606.565922598366,0.01025171974931359,0.005989754031871098
6606.566922370289,0.010436537261633985,0.005896818311446647
6606.567922142212,0.010640654085088701,0.005803878547551967
6606.568921914135,0.010860843208787859,0.005711641985816869
6606.569921686058,0.011094051952059092,0.005620774845511437
6606.57092145798,0.011337443326631131,0.0055318953952486465
6606.571921229903,0.011588435440234848,0.005445568012717921
6606.572921001825,0.01184473743796436,0.005362298431022865
6606.573920773748,0.012104380390225503,0.0052825303133801444
6606.574920545671,0.01236574165052459,0.005206643220339156
6606.575920317594,0.012627561355332616,0.005134951951768505
6606.5769200895165,0.012888949795585965,0.005067707165120098
6606.577919861439,0.013149384463717662,0.00500509712539495
6606.578919633362,0.013408695924001467,0.0049472504549820774
6606.579919405285,0.013667042350863943,0.004894239788724258
6606.580919177208,0.013924873394102486,0.004846086231804269
6606.58191894913,0.014182884637047713,0.004802764436601003
6606.582918721053,0.014441964217635626,0.0047642080101287405
6606.583918492976,0.014703133300591318,0.004730314923137284
6606.584918264899,0.014967482107407578,0.004700952658278902
6606.585918036822,0.015236103130523709,0.0046759629684988225
6606.586917808744,0.015510023051164779,0.00465516623777737
6606.587917580667,0.01579013491267807,0.004638365495923915
6606.588917352589,0.016077132337415777,0.004625350135301906
6606.589917124513,0.016371447854404753,0.00461589931416261
6606.590916896435,0.016673197479211314,0.00460978491817294
6606.591916668358,0.01698213344369254,0.004606773849604394
6606.5929164402805,0.01729760649762186,0.004606629416988675
6606.593916212203,0.017618538699585566,0.004609111740046828
6606.594915984126,0.017943407301959972,0.004613977294657802
6606.595915756049,0.01827024033489497,0.00462097789329331
6606.596915527972,0.01859662469712737,0.004629859468710878
6606.597915299894,0.018919727661626414,0.00464036101320592
6606.598915071817,0.019236332455173432,0.004652213970071696
6606.59991484374,0.01954288798306628,0.004665142314581953
6606.600914615663,0.01983557203565402,0.00467886349833109
6606.601914387586,0.020110366605873873,0.004693090348322645
6606.602914159508,0.020363143329602824,0.004707533917977923
6606.603913931431,0.02058975655588561,0.004721907207379461
6606.604913703353,0.020786141241295127,0.004735929621582638
6606.605913475276,0.020948412832875976,0.004749332016948182
6606.606913247199,0.02107296649565415,0.0047618621779036184
6606.607913019122,0.021156573208778638,0.004773290539604823
6606.6089127910445,0.021196470191888403,0.0047834159101843915
6606.609912562967,0.021190442889698544,0.004792070879635924
6606.61091233489,0.021136895632828438,0.004799126583567636
6606.611912106813,0.021034908380279736,0.004804496538051893
6606.612911878736,0.02088427762734105,0.004808139347104371
6606.613911650658,0.020685540316015372,0.004810060169098151
6606.614911422581,0.020439980081948805,0.004810310904708326
6606.615911194504,0.020149615425676105,0.004808989157097718
6606.616910966427,0.01981716976180673,0.004806236131887952
6606.61791073835,0.01944602405619739,0.004802233768010187
6606.618910510272,0.01904015374906569,0.004797201458146584
6606.619910282195,0.018604052440079174,0.004791392675124065
6606.620910054117,0.01814264513516404,0.0047850916721633545
6606.621909826041,0.01766119383867642,0.004778610229004547
6606.622909597963,0.017165198116482913,0.0047722842479362105
6606.623909369886,0.01666029303984815,0.0047664699160758165
6606.6249091418085,0.01615214669767794,0.004761539150051468
6606.625908913731,0.015646359295624107,0.004757874098969502
6606.626908685654,0.015148365745364795,0.004755860566882925
6606.627908457577,0.014663343538850258,0.004755880301129739
6606.6289082295,0.014196127561031622,0.004758302169155029
6606.629908001422,0.013751133282581407,0.004763472328562763
6606.630907773345,0.01333228946626583,0.00477170360510018
6606.631907545268,0.012942981162578329,0.004783264431550394
6606.632907317191,0.012586003462058548,0.004798367841391928
6606.633907089114,0.012263526253440793,0.004817161119131509
6606.634906861036,0.01197707004625665,0.004839716751919122
6606.635906632959,0.011727492705824615,0.004866025282994236
6606.636906404881,0.011514986769904808,0.0048959905395817935
6606.637906176805,0.011339086947892,0.00492942752912348
6606.638905948727,0.011198687458788418,0.004966063113317285
6606.63990572065,0.011092068978175466,0.005005539411376555
6606.6409054925725,0.011016935018168045,0.005047419761624437
6606.641905264495,0.010970457474169776,0.005091196972736238
6606.642905036419,0.010949330890496937,0.005136303504552498
6606.643904808341,0.010949834862840202,0.0051821231342847355
6606.644904580264,0.01096790396900844,0.005228003612559124
6606.645904352186,0.010999204615017513,0.005273269814923279
6606.646904124109,0.011039218073458333,0.005317236941256842
6606.647903896032,0.011083328727181957,0.005359223393344986
6606.648903667955,0.011126916150703893,0.0053985630611325984
6606.649903439878,0.011165449220450577,0.005434616852291811
6606.6509032118,0.011194580012253192,0.005466783384084578
6606.651902983723,0.01121023494159446,0.00549450882107997
6606.652902755645,0.011208700538951349,0.005517295904148218
6606.653902527569,0.011186701388532644,0.005534712277216415
6606.654902299491,0.01114146792676549,0.005546398261382051
6606.655902071414,0.011070791929511036,0.005552074232415972
6606.6569018433365,0.010973067771839729,0.005551547714247886
6606.657901615259,0.010847318134718105,0.005544720202580054
6606.658901387182,0.010693203762203965,0.005531593587680084
6606.659901159105,0.010511017875000354,0.005512275876997203
6606.660900931028,0.01030166658718241,0.0054869857646267905
6606.66190070295,0.010066636994358018,0.005456055497439786
6606.662900474873,0.009807954592953897,0.005419931468526496
6606.663900246796,0.009528131578275404,0.005379172030655723
6606.664900018719,0.009230107555553396,0.005334442174841238
6606.665899790642,0.008917184348395496,0.005286504965326767
6606.666899562564,0.008592956810638448,0.005236209916107233
6606.667899334487,0.008261241677292877,0.005184478743581679
6606.668899106409,0.00792600642485996,0.005132289069173016
6606.669898878333,0.0075912998675978045,0.005080656681047454
6606.670898650255,0.007261185882527226,0.005030616934664862
6606.671898422178,0.006939681308659464,0.004983205797797499
6606.6728981941005,0.00663069873580704,0.004939440935851031
6606.673897966023,0.006337994594851489,0.004900303117524756
6606.674897737947,0.00606512269744504,0.004866718145203658
6606.675897509869,0.005815393154102014,0.00483953950576889
6606.676897281792,0.005591836419697932,0.004819531979909801
6606.677897053714,0.005397172086119481,0.004807356501872135
6606.678896825637,0.005233781997989085,0.004803556604877627
6606.67989659756,0.005103687325777466,0.004808546824792839
6606.680896369483,0.0050085293562931454,0.0048226034618392335
6606.681896141406,0.004949553884674976,0.0048458580861333355
6606.682895913328,0.004927599161977899,0.0048782940911664815
6606.683895685251,0.004943087370312906,0.004919746461808975
6606.684895457173,0.004996019614282492,0.004969904774524494
6606.685895229097,0.005085974484421453,0.0050283193279884696
6606.686895001019,0.005212110371641413,0.005094410218061881
6606.687894772942,0.005373171849247472,0.00516747910145595
6606.6888945448645,0.005567500530922606,0.0052467233199442595
6606.689894316787,0.005793050815107178,0.005331251972529507
6606.690894088711,0.006047410827328062,0.0054201034224880176
6606.691893860633,0.006327828694018982,0.005512263628691793
6606.692893632556,0.006631244070741221,0.005606684643351573
6606.693893404478,0.00695432465056792,0.0057023026622420574
6606.694893176401,0.007293507208440815,0.005798055146147503
6606.695892948324,0.00764504258526943,0.005892896708145032
6606.696892720247,0.008005043888889745,0.005985813623692638
6606.69789249217,0.008369537108243879,0.006075836936093678
6606.698892264092,0.008734513293741314,0.0061620542000150715
6606.699892036015,0.009095981405493116,0.006243619947041022
6606.700891807937,0.009450020827761618,0.006319764976291428
6606.701891579861,0.009792832396299614,0.006389804563950739
6606.702891351783,0.010120786665682143,0.0064531456426814866
6606.703891123706,0.01043046817530973,0.006509292918932922
6606.7048908956285,0.01071871470565398,0.006557853762423694
6606.705890667551,0.010982650888865901,0.006598541527830737
6606.706890439475,0.011219715957052257,0.006631176817416396
6606.707890211397,0.011427685791217645,0.006655686172866787
6606.70888998332,0.011604689664810805,0.006672097877036747
6606.709889755242,0.011749222114563623,0.006680534916706809
6606.710889527165,0.011860150340633488,0.006681205545502709
6606.711889299088,0.011936717576939804,0.006674392121194071
6606.712889071011,0.011978542929858177,0.006660438915240836
6606.713888842934,0.011985618094479972,0.006639739466756149
6606.714888614856,0.011958301073220155,0.00661272388680337
6606.715888386779,0.011897306677250636,0.006579846405378942
6606.716888158701,0.011803693403095446,0.0065415734410521915
6606.717887930625,0.011678846392754282,0.006498372545634756
6606.718887702547,0.011524456566574413,0.006450702652685092
6606.71988747447,0.011342496447986438,0.006399006049022715
6606.7208872463925,0.011135193462211939,0.0063437023679357605
6606.721887018315,0.010905001532360618,0.006285184721685671
6606.722886790239,0.010654571699141434,0.006223817911641309
6606.723886562161,0.010386722348975976,0.006159938494918746
6606.724886334084,0.010104409497424537,0.006093856336328406
6606.725886106006,0.009810697472947126,0.00602585716104807
6606.726885877929,0.009508730312314686,0.00595620561819831
6606.727885649852,0.009201704211217347,0.0058851484842116384
6606.728885421775,0.008892841424308467,0.005812917782483647
6606.729885193698,0.008585366022190647,0.005739733679612064
6606.73088496562,0.008282481851415915,0.0056658070586177445
6606.731884737543,0.007987352890726523,0.0055913417204442525
6606.732884509465,0.0077030859673523615,0.005516536204164945
6606.733884281389,0.0074327155484688046,0.005441585190257762
6606.734884053311,0.007179190123244553,0.005366680367855734
6606.735883825234,0.006945359561030455,0.005292010566679636
6606.7368835971565,0.006733962734056948,0.005217760935551877
6606.737883369079,0.006547614597623412,0.005144111016151685
6606.738883141003,0.006388791866467324,0.005071231692816011
6606.739882912925,0.006259816496457089,0.004999281156058852
6606.740882684848,0.006162836403664646,0.004928400177684328
6606.74188245677,0.0060998031637808925,0.004858707143928643
6606.742882228693,0.0060724467648601,0.004790293388778626
6606.743882000616,0.0060822478233868715,0.004723219379203329
6606.744881772539,0.006130408001913767,0.004657512243375834
6606.745881544462,0.006217819620691357,0.004593165034353108
6606.746881316384,0.006345035581040576,0.0045301380025044745
6606.747881088307,0.006512240734657173,0.004468362029037233
6606.748880860229,0.006719225815171302,0.004407744263023861
6606.749880632153,0.006965365048401264,0.004348175886644043
6606.750880404075,0.007249598549451168,0.004289541782073877
6606.751880175998,0.007570420526849061,0.0042317317002511295
6606.7528799479205,0.007925874124035111,0.004174652384263513
6606.753879719843,0.00831355350056755,0.004118240019552682
