Time,Filtered_EMG_Bicep,Filtered_EMG_Tricep
6572.678653276731,0.07755693228039612,0.003976600070177328
6572.679653048654,0.08199899418343676,0.004265149812248872
6572.680652820577,0.08675703529485335,0.004556077625542199
6572.6816525925,0.09181492302597445,0.004848008012544098
6572.682652364422,0.09715256950716893,0.005139648354417043
6572.683652136345,0.1027459624302504,0.005429820478463902
6572.684651908267,0.10856724355159894,0.00571749079494172
6572.685651680191,0.11458483332716381,0.0060017982691302025
6572.686651452113,0.12076359949022475,0.0062820794399213575
6572.687651224036,0.1270650670917249,0.006557889631717162
6572.688650995959,0.13344766717543138,0.006829019533147304
6572.689650767881,0.13986702110040491,0.00709550645588252
6572.690650539805,0.14627625833253896,0.007357639759558918
6572.691650311727,0.15262636731407195,0.007615960043931531
6572.69265008365,0.1588665805024268,0.007871251751892731
6572.693649855572,0.16494479459956282,0.008124528833730459
6572.694649627495,0.17080802568653644,0.008377013124549606
6572.6956493994185,0.17640289792603175,0.008630105119002104
6572.696649171341,0.18167616466487577,0.00888534696714231
6572.697648943264,0.18657526187914591,0.00914437784728588
6572.698648715186,0.19104889510587783,0.009408882387008185
6572.699648487109,0.19504766151950445,0.00968053334245399
6572.700648259031,0.1985247078778444,0.009960930112295274
6572.701648030955,0.20143642185853552,0.010251534803451798
6572.702647802877,0.20374314842229793,0.010553607587114964
6572.7036475748,0.20540991493411498,0.01086814311603777
6572.704647346723,0.2064071406800222,0.011195809882985608
6572.705647118645,0.2067113006065909,0.011536894559663407
6572.706646890569,0.20630551187362636,0.011891253443042628
6572.707646662491,0.20518001610746545,0.012258273017327414
6572.708646434414,0.20333253845640942,0.012636841298828923
6572.709646206336,0.200768512922418,0.013025331173830647
6572.710645978259,0.1975011692012764,0.013421596467864665
6572.711645750183,0.1935514802173746,0.01382298103357219
6572.712645522105,0.1889479743002642,0.014226340754846807
6572.713645294028,0.1837264220488582,0.014628078128121154
6572.71464506595,0.177929413046514,0.01502418903967511
6572.715644837873,0.1716058391084418,0.015410321414323575
6572.716644609795,0.16481029816239165,0.015781845401117326
6572.717644381719,0.1576024283927522,0.016133934582589216
6572.718644153641,0.15004617944857465,0.016461657333726076
6572.719643925564,0.14220902827724868,0.016760076951075915
6572.720643697487,0.13416115006893767,0.0170243585845368
6572.721643469409,0.1259745569760269,0.01724988041357356
6572.722643241333,0.11772221771675935,0.01743234596416722
6572.723643013255,0.1094771711555612,0.01756789396500426
6572.724642785178,0.10131164749575092,0.0176532017387656
6572.7256425571,0.09329621127280988,0.01768557800166356
6572.726642329023,0.08549893989805617,0.017663041318431365
6572.7276421009465,0.07798464998679237,0.017584381319250154
6572.728641872869,0.07081418196050976,0.017449200808320166
6572.729641644792,0.06404375224938515,0.017257937719996147
6572.730641416714,0.05772438180400731,0.017011866439202016
6572.731641188637,0.05190140883478734,0.016713078536028273
6572.732640960559,0.04661409213373437,0.016364443711514392
6572.733640732483,0.041895309021521075,0.015969552671800783
6572.734640504405,0.03777134937093306,0.015532644437334731
6572.735640276328,0.0342618047387838,0.015058520984960928
6572.736640048251,0.031379549603826454,0.014552452130038075
6572.737639820173,0.029130810072869957,0.014020073408653196
6572.738639592097,0.0275153141191952,0.013467279598208256
6572.739639364019,0.026526516409398838,0.01290011644820297
6572.740639135942,0.026151890028947963,0.012324673127322754
6572.741638907864,0.02637327687306256,0.011746977769385108
6572.742638679787,0.027167288067651722,0.011172898299296314
6572.743638451711,0.028505745542635966,0.01060805046992593
6572.744638223633,0.030356155855411373,0.010057714789589113
6572.745637995556,0.0326822075676436,0.009526763783915187
6572.746637767478,0.03544428389994288,0.009019600778503993
6572.747637539401,0.03859998303031728,0.008540111071553053
6572.748637311324,0.042104639233360386,0.008091626016805012
6572.749637083247,0.0459118389860648,0.00767690022005033
6572.750636855169,0.04997392717108248,0.00729810177769912
6572.751636627092,0.05424249968384729,0.006956815211040385
6572.752636399015,0.0586688800333992,0.006654056448345442
6572.753636170937,0.06320457850941497,0.006390298895901226
6572.754635942861,0.06780173274304117,0.006165509362100261
6572.755635714783,0.07241352803794536,0.005979192412074313
6572.756635486706,0.07699459517281464,0.0058304416679420806
6572.757635258628,0.08150138301551522,0.005717996591485966
6572.758635030551,0.08589250346172438,0.0056403032969589775
6572.7596348024745,0.09012904668820367,0.0055955778885910445
6572.760634574397,0.09417486495117955,0.005581870738758977
6572.76163434632,0.0979968228714528,0.005597130100738728
6572.762634118242,0.10156501188788271,0.005639263544580529
6572.763633890165,0.10485292727419258,0.005706195920988628
6572.764633662088,0.10783760787467579,0.0057959228409356104
6572.765633434011,0.11049974052979268,0.005906558926698061
6572.766633205933,0.11282373201077092,0.006036380290973866
6572.767632977856,0.11479775073822225,0.006183860830643988
6572.768632749779,0.11641373880325628,0.006347701994726826
6572.769632521701,0.11766739270737588,0.006526855714805771
6572.770632293625,0.11855810996834348,0.0067205402053903025
6572.771632065547,0.11908889878094318,0.006928248412655325
6572.77263183747,0.11926624861729881,0.007149749036924658
6572.773631609392,0.11909996003890712,0.0073850802117670705
6572.774631381315,0.11860293206671536,0.007634535990198617
6572.775631153239,0.11779090629467685,0.00789864574241769
6572.776630925161,0.1166821691463148,0.008178146496487758
6572.777630697084,0.11529721620191506,0.008473948256969741
6572.778630469006,0.11365838387807402,0.008787092425435315
6572.779630240929,0.11178945405265515,0.009118703558513797
6572.780630012852,0.10971523801786355,0.009469934824206718
6572.781629784775,0.10746114825457423,0.009841907718245991
6572.782629556697,0.10505276907960136,0.010235646906789905
6572.78362932862,0.10251543859090455,0.010652011442941887
6572.784629100543,0.09987385371177011,0.011091624054936548
6572.785628872465,0.09715170825629509,0.0115548006945437
6572.786628644389,0.09437137235309137,0.01204148292208837
6572.787628416311,0.09155362099789162,0.01255117580641319
6572.788628188234,0.08871741912826123,0.013082893773665347
6572.789627960156,0.08587976909967089,0.013635116347142047
6572.790627732079,0.0830556233923589,0.014205755158898022
6572.7916275040025,0.08025786143323108,0.014792133146892919
6572.792627275925,0.07749732555056613,0.015390976561202533
6572.793627047848,0.07478290832644115,0.01599842025622953
6572.79462681977,0.07212168290368856,0.016610026631054722
6572.795626591693,0.06951906913561727,0.017220818406293654
6572.796626363616,0.06697903038301818,0.01782532521790746
6572.797626135539,0.06450429642220393,0.018417643874129447
6572.798625907461,0.062096606718670594,0.01899151208258762
6572.799625679384,0.059756966200104844,0.019540395367726424
6572.800625451307,0.057485904178096334,0.020057586615541176
6572.80162522323,0.055283727217889524,0.02053631722530903
6572.802624995153,0.053150758394669706,0.020969878348104154
6572.803624767075,0.05108755741215386,0.02135175020332479
6572.804624538998,0.04909511733755586,0.02167573691226013
6572.80562431092,0.04717503387274993,0.021936103592102008
6572.806624082843,0.04532964272385423,0.022127711646103092
6572.807623854767,0.043562120707662515,0.022246147417174143
6572.808623626689,0.041876547297211415,0.02228783889128509
6572.809623398612,0.04027792506229707,0.022250155238039547
6572.810623170534,0.0387721590156141,0.0221314848427085
6572.811622942457,0.03736599559881592,0.021931289003916284
6572.81262271438,0.03606692216498243,0.02165013019738192
6572.813622486303,0.0348830281248496,0.02128967516245815
6572.814622258225,0.033822829955739445,0.020852673726899335
6572.815622030148,0.03289506392080282,0.020342914411822996
6572.816621802071,0.032108452174359196,0.019765157921906137
6572.817621573993,0.03147144954359461,0.019125049968997228
6572.818621345917,0.03099197940576147,0.01842901554087416
6572.819621117839,0.030677167550439095,0.017684137583868328
6572.820620889762,0.03053308269107248,0.0168980239349404
6572.821620661684,0.03056449146689404,0.01607866696950035
6572.822620433607,0.030774634523184307,0.015234300607714042
6572.8236202055305,0.03116502876229351,0.014373259020699816
6572.824619977453,0.0317352993210067,0.013503840760384097
6572.825619749376,0.03248304345260404,0.012634181284726154
6572.826619521298,0.03340372740250619,0.011772136083146293
6572.827619293221,0.034490616574034655,0.010925175908463453
6572.828619065144,0.035734738796216976,0.010100295052657929
6572.829618837067,0.037124880467867424,0.009303933191275102
6572.830618608989,0.03864761587522148,0.008541911055767822
6572.831618380912,0.040287370884975346,0.007819380031993785
6572.832618152835,0.04202652304836746,0.007140785654173974
6572.833617924758,0.04384554047680967,0.0065098447909898985
6572.834617696681,0.045723161473980964,0.005929536077835285
6572.835617468603,0.04763661589954742,0.005402102886724268
6572.836617240526,0.04956188776896367,0.004929067927924399
6572.837617012448,0.051474016814349585,0.004511258491271842
6572.838616784371,0.05334743480667528,0.004148841329667767
6572.839616556295,0.05515633065448627,0.0038413661845038954
6572.840616328217,0.05687503702924718,0.0035878168977801165
6572.84161610014,0.05847843071554818,0.003386668953619854
6572.842615872062,0.05994233875937623,0.0032359521819803542
6572.843615643985,0.06124394222765423,0.003133317270967587
6572.844615415908,0.06236216879319542,0.003076104675013508
6572.845615187831,0.06327806476448061,0.0030614144536933677
6572.846614959753,0.06397513692168554,0.003086175511636536
6572.847614731676,0.06443965454465483,0.0031472126497580997
6572.848614503599,0.06466090232219456,0.0032413098328729403
6572.849614275522,0.06463137587032872,0.0033652681765632846
6572.850614047445,0.06434691372688002,0.0035159573683987214
6572.851613819367,0.06380676242990216,0.0036903595356198005
6572.85261359129,0.063013573557242,0.003885604888788158
6572.853613363212,0.06197333294779074,0.004098998740259399
6572.854613135135,0.06069522348057092,0.004328039707038577
6572.8556129070585,0.05919142483403179,0.004570429125425922
6572.856612678981,0.05747685666801031,0.004824071998045128
6572.857612450904,0.05556887454785833,0.005087070137427612
6572.858612222826,0.05348692944941342,0.005357708451827454
6572.859611994749,0.05125220159763747,0.005634435458838535
6572.860611766672,0.04888721839254095,0.005915839143474027
6572.861611538595,0.046415465047383454,0.006200619288631123
6572.862611310517,0.04386099558776003,0.00648755746349442
6572.86361108244,0.041248051023234235,0.0067754859786589355
6572.864610854363,0.038600690895142495,0.007063257260626297
6572.865610626286,0.03594244410486801,0.007349715167042411
6572.866610398209,0.033295984719679685,0.007633669697072313
6572.867610170131,0.030682837964834075,0.007913876382516071
6572.868609942054,0.028123120683100737,0.008189021447645016
6572.869609713976,0.02563531932729772,0.00845771362613877
6572.870609485899,0.023236107313071384,0.00871848329762332
6572.871609257823,0.020940202496333923,0.008969789329114837
6572.872609029745,0.018760264728430304,0.009210033678365337
6572.873608801668,0.016706832839710677,0.009437583455172921
6572.87460857359,0.014788299899587297,0.00965079976319048
6572.875608345513,0.01301092512919006,0.009848072262071884
6572.876608117436,0.011378880427492594,0.01002785799983158
6572.877607889359,0.009894329163583338,0.010188722718625476
6572.878607661281,0.008557534671345004,0.01032938263266805
6572.879607433204,0.007366995686428341,0.010448744679756462
6572.880607205127,0.006319605732682211,0.010545943428018921
6572.88160697705,0.005410833195532936,0.010620373081256271
6572.882606748973,0.004634918548875079,0.010671713272118025
6572.883606520895,0.003985084972242338,0.010699947529408262
6572.884606292818,0.003453758458883233,0.010705373544783103
6572.88560606474,0.0030327935196231633,0.010688604795344442
6572.886605836664,0.002713700706774725,0.010650563710846609
6572.8876056085865,0.002487872318008761,0.010592467204984685
6572.888605380509,0.00234680272782246,0.01051580580619486
6572.889605152432,0.002282299859313705,0.010422317787365283
6572.890604924354,0.002286684394740117,0.010313959685831446
6572.891604696277,0.002352973434710428,0.010192874492439243
6572.8926044682,0.0024750454436525187,0.010061358618894196
6572.893604240123,0.002647783472455239,0.00992182857352844
6572.894604012045,0.002867193875713141,0.009776788091441132
6572.895603783968,0.0031304981240221773,0.009628796239363531
6572.896603555891,0.0034361958830019064,0.009480436759993813
6572.897603327814,0.003784098181658336,0.009334288723015848
6572.898603099737,0.004175330041360977,0.00919289847944135
6572.899602871659,0.0046123022807292155,0.009058752939683919
6572.900602643582,0.005098652377490093,0.008934254213060792
6572.901602415504,0.005639154357423914,0.008821695568712972
6572.902602187428,0.006239597837434732,0.008723238481673007
6572.90360195935,0.006906636750043006,0.008640890289560778
6572.904601731273,0.007647609030844231,0.008576481879657363
6572.905601503196,0.008470329570453496,0.008531645015075284
6572.906601275118,0.009382859767645406,0.008507789374146738
6572.907601047041,0.010393257868418177,0.008506079893853196
6572.908600818964,0.011509314887773165,0.008527415336316924
6572.909600590887,0.012738281307106848,0.008572409079587907
6572.910600362809,0.014086589960166903,0.008641373073336525
6572.911600134732,0.015559580672784153,0.0087343058053668
6572.912599906655,0.017161232439651043,0.008850885035718636
6572.913599678578,0.01889390922376086,0.008990465962367456
6572.914599450501,0.020758125720763302,0.00915208534716194
6572.915599222423,0.022752339481885136,0.009334471904516025
6572.916598994346,0.024872775578181346,0.009536062932856037
6572.917598766268,0.027113289605337085,0.009755026819086726
6572.918598538192,0.029465274433806126,0.009989290775672177
6572.919598310114,0.0319176157733263,0.010236573036626291
6572.920598082037,0.034456701213937894,0.010494418699330961
6572.92159785396,0.03706648669208946,0.010760238353299407
6572.922597625882,0.03972862317805221,0.011031348528685633
6572.923597397805,0.042422644856064,0.011305012865239964
6572.924597169728,0.045126218347514666,0.011578482852892424
6572.925596941651,0.04781545073705612,0.01184903712299946
6572.926596713573,0.05046525228308851,0.012114018557481277
6572.927596485496,0.05304974761781478,0.012370868785010416
6572.928596257419,0.05554272693656434,0.012617159798168789
6572.929596029342,0.057918126269229084,0.012850622415321967
6572.930595801265,0.06015052359196649,0.013069171164704942
6572.931595573187,0.062215635428120905,0.01327092493036937
6572.93259534511,0.0640907970647931,0.013454222471735082
6572.933595117032,0.0657554092899957,0.013617631920558877
6572.934594888956,0.06719133616720804,0.013759953741539656
6572.935594660878,0.06838324145566806,0.01388021732459789
6572.936594432801,0.06931885486623175,0.013977672052822618
6572.937594204724,0.06998916261747887,0.01405177415391439
6572.938593976646,0.07038851938214846,0.014102170935638045
6572.93959374857,0.07051468080651253,0.014128684209664198
6572.940593520492,0.07036875808657048,0.014131294755451078
6572.941593292415,0.06995509938670576,0.014110129458925183
6572.942593064337,0.06928110691505525,0.014065452308763245
6572.94359283626,0.06835700193045215,0.013997659881124056
6572.944592608183,0.06719555172502861,0.013907281400132145
6572.945592380106,0.06581177244397078,0.013794982969988387
6572.946592152029,0.06422261989479995,0.01366157515890986
6572.947591923951,0.06244667805567066,0.013508022798007903
6572.948591695874,0.06050385260435285,0.013335455643360764
6572.949591467796,0.058415074755195605,0.01314517842919517
6572.95059123972,0.05620201874063992,0.012938678817183724
6572.951591011642,0.053886834113905775,0.012717631807400494
6572.952590783565,0.05149189188855895,0.012483899268257746
6572.953590555488,0.049039541996341494,0.01223952335119032
6572.95459032741,0.0465518791973604,0.011986712768934973
6572.955590099333,0.044050515518642704,0.0117278213254496
6572.956589871256,0.04155635909763749,0.011465318651210324
6572.957589643179,0.03908940122367512,0.011201753692743614
6572.958589415101,0.03666851470307748,0.010939712040717395
6572.959589187024,0.034311267059284244,0.010681768606426138
6572.960588958947,0.032033751626719315,0.01043043739732546
6572.96158873087,0.029850438792303622,0.0101881201360965
6572.962588502793,0.027774049009117223,0.009957055270095147
6572.963588274715,0.02581544898298459,0.009739268714729642
6572.964588046638,0.023983572491152034,0.009536527635353287
6572.96558781856,0.022285367368065828,0.009350298683650357
6572.966587590484,0.02072577010475722,0.009181712180474871
6572.967587362406,0.019307709204148402,0.00903153360943459
6572.968587134329,0.018032137926973155,0.008900143442342332
6572.969586906252,0.01689809640351176,0.008787525861925816
6572.970586678174,0.01590280237661092,0.008693266489278595
6572.971586450098,0.015041769174526091,0.008616558845284485
6572.97258622202,0.014308948898632878,0.008556219050786752
6572.973585993943,0.013696898223536928,0.008510708248007986
6572.974585765865,0.013196963674395464,0.008478162356789472
6572.975585537788,0.012799482829672687,0.00845642891116996
6572.976585309711,0.012493997594411796,0.008443110714669442
6572.977585081634,0.012269475434270684,0.00843561588351728
6572.978584853557,0.012114534204991229,0.008431213590622481
6572.979584625479,0.012017665956438016,0.008427094560246071
6572.980584397402,0.011967454903062382,0.00842043511377467
6572.981584169324,0.011952784786434717,0.008408463296226312
6572.982583941248,0.011963031252234151,0.00838852530690506
6572.98358371317,0.011988235602045575,0.00835815018637013
6572.984583485093,0.012019257181832547,0.008315110600545638
6572.985583257016,0.012047902546652224,0.008257477678704361
6572.986583028938,0.012067030258798295,0.008183668151148082
6572.987582800862,0.012070630628717017,0.008092482392402827
6572.988582572784,0.012053879902617602,0.007983132355730609
6572.989582344707,0.012013168555716101,0.007855258767727835
6572.990582116629,0.011946103744091248,0.007708937294971776
6572.991581888552,0.011851486659576468,0.007544673681036153
6572.992581660475,0.011729266331602435,0.007363388173576524
6572.993581432398,0.011580472121665538,0.0071663900248968996
6572.994581204321,0.011407127683068315,0.0069553433834826425
6572.995580976243,0.011212149515821165,0.006732226264726351
6572.996580748166,0.01099923344686685,0.0064992843467206645
6572.997580520088,0.010772732399660808,0.006258981149946979
6572.998580292012,0.0105375286614472,0.006013945898822641
6572.999580063934,0.01029890353293314,0.005766920151165134
6573.000579835857,0.010062406857048067,0.005520704160873206
6573.00157960778,0.009833728586530642,0.005278103895064924
6573.002579379702,0.009618574285945827,0.0050418796094243825
6573.003579151626,0.009422546204382716,0.004814696839069652
6573.004578923548,0.009251031261409443,0.004599080561475765
6573.005578695471,0.009109097027919176,0.0043973731492834445
6573.006578467393,0.00900139665392377,0.004211696592487512
6573.007578239316,0.008932083696414994,0.004043919363749591
6573.008578011239,0.008904737820030291,0.003895628237026177
6573.009577783162,0.00892230227752273,0.003768105329668153
6573.010577555085,0.008987033923583437,0.003662310586445925
6573.011577327007,0.009100466342467866,0.0035788698387139756
6573.01257709893,0.009263386529001105,0.003518068463120511
6573.013576870852,0.009475825442026308,0.0034798505620907186
6573.014576642776,0.009737062590463452,0.003463823518959384
6573.015576414698,0.010045644570936405,0.003469267750254855
6573.016576186621,0.010399417159583991,0.0034951514687662963
6573.017575958544,0.01079557019235526,0.003540150255057303
6573.018575730466,0.011230694051640153,0.003602671198352409
6573.01957550239,0.011700846128282026,0.0036808813206970726
6573.020575274312,0.012201625215656318,0.0037727399501413157
6573.021575046235,0.012728251509619998,0.0038760346450435437
6573.022574818157,0.013275649789153802,0.003988420170976218
6573.02357459008,0.013838533457549419,0.00410745989523525
6573.024574362004,0.01441148745413802,0.004230668817563185
6573.025574133926,0.014989048563814038,0.004355557332027434
6573.026573905849,0.015565782183531355,0.004479674745635911
6573.027573677771,0.01613635493087422,0.004600651590518958
6573.028573449694,0.01669560249964112,0.00471623985460188
6573.029573221616,0.017238591974241626,0.0048243503700921815
6573.03057299354,0.017760677656485438,0.004923086680016409
6573.031572765462,0.01825754957868284,0.005010774744532145
6573.032572537385,0.018725274271261604,0.005085987908386097
6573.033572309308,0.01916032773235983,0.005147566688736726
6573.03457208123,0.01955962064650022,0.005194633158628409
6573.035571853154,0.019920515766928364,0.005226599938576611
6573.036571625076,0.02024083730143346,0.005243174005920549
6573.037571396999,0.020518872351770297,0.0052443556574769115
6573.038571168921,0.02075336490104636,0.005230433013328466
6573.039570940844,0.0209435032534875,0.005201972455990175
6573.040570712767,0.02108890196298336,0.005159805402731989
6573.04157048469,0.021189579100644586,0.005105011831611171
6573.042570256613,0.02124592937573133,0.00503890102136318
6573.043570028535,0.021258693394291754,0.004962990007433859
6573.044569800458,0.021228923417120685,0.0048789802649207865
6573.04556957238,0.021157946399551784,0.004788733066189798
6573.046569344304,0.021047325659252384,0.004694243837780574
6573.047569116226,0.020898822884153186,0.004597615712374883
6573.048568888149,0.020714362173756697,0.004501032382273444
6573.049568660072,0.020495997515907433,0.004406730328448198
6573.050568431994,0.020245884751157697,0.00431697051926017
6573.051568203918,0.01996625875643113,0.004234009712310442
6573.05256797584,0.019659416271083162,0.004160071508598303
6573.053567747763,0.019327704471548395,0.004097317298626173
6573.054567519685,0.01897351505982851,0.004047817249939385
6573.055567291608,0.01859928324650278,0.004013521542581943
6573.056567063532,0.018207490626110906,0.00399623213563395
6573.057566835454,0.017800670728334602,0.003997575400220243
6573.058566607377,0.017381416171267733,0.004018975972815193
6573.059566379299,0.01695238684272041,0.004061632191612821
6573.060566151222,0.01651631912664054,0.00412649349735366
6573.061565923144,0.016076036532258305,0.004214240201142708
6573.062565695068,0.015634462014285314,0.0043252660338791065
6573.06356546699,0.015194631887405713,0.0044596639017106515
6573.064565238913,0.01475971074534665,0.004617215285255481
6573.065565010836,0.014333006375726626,0.004797383724597138
6573.066564782758,0.013917983450552363,0.0049993128166923705
6573.067564554682,0.013518274833775499,0.00522182911532857
6573.068564326604,0.013137689614345699,0.005463450253858374
6573.069564098527,0.012780217295525803,0.0057223984908016425
6573.070563870449,0.012450027861857988,0.005996619714352094
6573.071563642372,0.012151467695287027,0.006283807768516399
6573.072563414296,0.011889051479595356,0.0065814338224791215
6573.073563186218,0.01166745023645142,0.006886780411394722
6573.074562958141,0.011491475466205542,0.007196979699969528
6573.075562730063,0.011366059107708678,0.007509055398663614
6573.076562501986,0.011296228783354047,0.007819967550162935
6573.077562273908,0.011287077613071734,0.008126659109811328
6573.078562045832,0.01134372778573445,0.008426102952643766
6573.079561817754,0.011471287090359763,0.008715347804821775
6573.080561589677,0.011674797761627772,0.008991561752923188
6573.0815613616,0.011959177293037367,0.009252072395944062
6573.082561133522,0.012329151290827399,0.00949440315504526
6573.083560905446,0.01278917893764678,0.00971630555346506
6573.084560677368,0.013343372130415105,0.009915787405936046
6573.085560449291,0.013995409731742724,0.010091136875499488
6573.086560221213,0.014748448542356596,0.010240942306282657
6573.087559993136,0.015605032590913686,0.010364107674355735
6573.08855976506,0.016567002224126198,0.010459863472662296
6573.089559536982,0.017635404295638146,0.010527772866082719
6573.090559308905,0.0188104045623437,0.010567732993069179
6573.091559080827,0.020091203419083895,0.010579971333530929
6573.09255885275,0.021475956538838808,0.010565037087029572
6573.093558624672,0.022961702698259524,0.010523787511273511
6573.094558396596,0.02454430162752045,0.010457369230670303
6573.095558168518,0.026218384841115307,0.010367194725104632
6573.096557940441,0.027977322137980806,0.01025491454414486
6573.097557712364,0.029813205959531016,0.010122386150199638
6573.098557484286,0.03171685511486999,0.009971640529788018
6573.09955725621,0.03367783859827253,0.009804847724347513
6573.100557028132,0.03568451958631646,0.009624282213957783
6573.101556800055,0.03772411953572381,0.009432288710834175
6573.102556571977,0.03978280272409382,0.009231248490618092
6573.1035563439,0.04184578228334578,0.009023546046197258
6573.104556115824,0.043897449178240906,0.00881153575541969
6573.105555887746,0.04592152527413378,0.008597508494488459
6573.106555659669,0.04790124073671231,0.008383658580441728
6573.107555431591,0.04981953491513121,0.008172051820485887
6573.108555203514,0.05165927881262088,0.007964595589408385
6573.109554975437,0.053403516227706824,0.007763011750238765
6573.11055474736,0.05503571957491353,0.007568813004106901
6573.111554519282,0.05654005519924904,0.007383283045113428
6573.112554291205,0.057901651668446796,0.007207460795281709
6573.113554063128,0.059106863255555746,0.00704212899721294
6573.11455383505,0.060143519991042296,0.006887807472981897
6573.115553606974,0.061001155438750385,0.0067447513674430614
6573.116553378896,0.06167120345964236,0.006612954684978449
6573.117553150819,0.06214715540311188,0.0064921593930226335
6573.118552922741,0.06242466981006704,0.006381870267219916
6573.119552694664,0.06250162870662913,0.006281375481608766
6573.120552466588,0.06237813819665465,0.006189772741838416
6573.12155223851,0.0620564753754499,0.006106000574576113
6573.122552010433,0.06154098706543798,0.006028874256525284
6573.123551782355,0.06083794767866777,0.005957125787905583
6573.124551554278,0.05995538403845444,0.00588944725036652
6573.125551326201,0.05890287522657453,0.005824536801481631
6573.126551098124,0.057691335937695126,0.005761146435661486
6573.127550870046,0.056332792062903446,0.0056981304912410114
6573.128550641969,0.05484015673295621,0.0056344937237263245
6573.129550413892,0.053227013718837084,0.005569437623535669
6573.130550185814,0.05150741329614087,0.005502403553393385
6573.131549957738,0.049695683967612654,0.005433111214425859
6573.13254972966,0.047806262099945034,0.005361590916406767
6573.133549501583,0.04585354044557314,0.005288208150609839
6573.134549273505,0.04385173541501358,0.005213679098067906
6573.135549045428,0.04181477182671605,0.00513907599247148
6573.136548817352,0.03975618296560792,0.005065821662394539
6573.137548589274,0.03768902338237435,0.00499567300437561
6573.138548361197,0.03562579195243172,0.00493069352209773
6573.139548133119,0.03357836303909905,0.004873215422811
6573.140547905042,0.03155792394684477,0.004825792104585464
6573.141547676965,0.02957491726441927,0.004791142147680839
6573.142547448888,0.027638987410614924,0.00477208608827032
6573.14354722081,0.02575893168518784,0.004771477326631886
6573.144546992733,0.023942656985674313,0.00479212858173668
6573.145546764656,0.022197143678831768,0.004836735387876198
6573.146546536578,0.02052841790659593,0.004907798195160983
6573.147546308502,0.018941533138046387,0.005007544629076773
6573.148546080424,0.017440561300634764,0.0051378533911983285
6573.149545852347,0.016028593461784275,0.00530018120033034
6573.150545624269,0.014707749835665038,0.005495494121291684
6573.151545396192,0.01347919883869899,0.0057242045891957435
6573.152545168116,0.012343184927193615,0.00598611535488902
6573.153544940038,0.011299064930524681,0.006280371418869381
6573.154544711961,0.010345352506207791,0.006605420799772021
6573.155544483883,0.009479770232839429,0.006958984733418014
6573.156544255806,0.008699308802401858,0.007338037660571516
6573.157544027729,0.00800029278876937,0.007738797198709493
6573.158543799652,0.007378452467779086,0.008156724280827553
6573.159543571574,0.006829001045750238,0.008586533812933755
6573.160543343497,0.00634671640997124,0.009022216477853715
6573.16154311542,0.005926026236296335,0.009457072544753007
6573.162542887343,0.0055610950924788825,0.009883758613206683
6573.163542659266,0.005245912148229142,0.01029434811301549
6573.164542431188,0.004974378263554003,0.010680406152141943
6573.165542203111,0.004740391499183658,0.01103307904202129
6573.166541975033,0.004537930342408724,0.011343198637901217
6573.167541746956,0.0043611340750777895,0.01160140156785061
6573.16854151888,0.004204379731830619,0.011798263420063777
6573.169541290802,0.0040623550738166665,0.011924447892809869
6573.170541062725,0.00393012700218673,0.011970870744892803
6573.171540834647,0.0038032048775236745,0.011928878150165259
6573.17254060657,0.003677598263872506,0.011790438760065833
6573.173540378493,0.0035498686313790075,0.011548348381811572
6573.174540150416,0.0034171745283035336,0.011196445700401987
6573.175539922338,0.0032773097227616014,0.010729836975166426
6573.176539694261,0.0031287338543055034,0.010145127175335542
6573.177539466184,0.002970595208125278,0.009440654589548087
6573.178539238106,0.0028027452994689676,0.008616725542368078
6573.17953901003,0.002625745026572101,0.007675845469948699
6573.180538781952,0.002440862213877481,0.00662294223714406
6573.181538553875,0.0022500604136617246,0.005465577213384706
6573.182538325797,0.002055978872361575,0.0042141392729666645
6573.18353809772,0.0018619036189521049,0.0028820165727425273
6573.184537869644,0.0016717296984852315,0.0014857407224796964
6573.185537641566,0.0014899146476124337,4.50978270527809e-05
6573.186537413489,0.0013214233996440333,-0.001416799145723199
6573.187537185411,0.0011716649230618162,-0.0028734821251912785
6573.188536957334,0.0010464210270243182,-0.004295149059669396
6573.189536729257,0.000951767891183777,-0.005648739286742082
6573.19053650118,0.0008939909899497547,-0.006898067563195369
6573.191536273102,0.0008794941933309131,-0.00800402053941031
6573.192536045025,0.0009147039484290255,-0.008924818646547731
6573.193535816948,0.0010059695725849198,-0.009616345327831516
6573.194535588871,0.0011594608059652446,-0.010032544301264537
6573.195535360794,0.0013810638724399606,-0.010125884164000431
6573.196535132716,0.0016762773853379567,-0.009847888241246739
6573.197534904639,0.002050109505896876,-0.009149726225579156
6573.198534676561,0.002506977813141056,-0.007982862889921165
6573.199534448484,0.0030506133853207412,-0.006299758018504039
6573.200534220408,0.0036839706554097325,-0.004054610694270047
6573.20153399233,0.004409144715111738,-0.0012041401542379558
6573.202533764253,0.00522729788467643,0.00229160553711118
6573.203533536175,0.006138597470736181,0.006468422846711357
6573.204533308098,0.007142166653872361,0.01135711934419472
6573.205533080021,0.00823605039897049,0.01698268634446399
6573.206532851944,0.009417198198081175,0.023363492527769755
6573.207532623866,0.010681465342580973,0.030510515552354026
6573.208532395789,0.012023634272482805,0.03842663027160596
6573.209532167712,0.013437457355261025,0.04710597278436498
6573.210531939635,0.014915722176078838,0.0565333990910404
6573.211531711558,0.01645034005555929,0.06668405582035761
6573.21253148348,0.018032458073873915,0.0775230786079691
6573.213531255403,0.019652594417092654,0.08900543138468305
6573.214531027325,0.021300796391966467,0.10107589712268565
6573.215530799248,0.022966819944308096,0.11366922769546277
6573.216530571172,0.024640328885799596,0.12671045777456152
6573.217530343094,0.02631111120624651,0.1401153852200442
6573.218530115017,0.02796930880299902,0.15379121791574232
6573.219529886939,0.02960565574908381,0.16763738410467852
6573.220529658862,0.03121171891733517,0.18154649996750305
6573.221529430785,0.0327801334198014,0.19540548485115328
6573.222529202708,0.034304823986459454,0.20909681195884636
6573.22352897463,0.035781202329884236,0.2224998808887834
6573.224528746553,0.03720633006643463,0.23549249734301805
6573.225528518476,0.03857903714101231,0.2479524432660115
6573.226528290399,0.03989998703092273,0.25975911738271884
6573.227528062322,0.04117168221016118,0.2707952222724637
6573.228527834244,0.042398405986273306,0.28094847002480433
6573.229527606167,0.04358609921418679,0.29011327441305373
6573.230527378089,0.044742172453862986,0.298192394238858
6573.231527150012,0.04587525657622631,0.30509849039929815
6573.232526921936,0.046994898170837955,0.3107555578133327
6573.233526693858,0.048111209907793155,0.31510019329375316
6573.234526465781,0.049234489183341355,0.3180826639928557
6573.235526237703,0.050374820130818385,0.3196677486619358
6573.236526009626,0.05154167423322282,0.31983533243284257
6573.237525781549,0.05274352362808371,0.31858074182436347
6573.238525553472,0.05398747925276869,0.31591481145424005
6573.239525325394,0.05527896375998404,0.3118636819653946
6573.240525097317,0.05662142706691186,0.30646834123077576
6573.24152486924,0.05801611077733401,0.2997839333009638
6573.242524641163,0.059461866669705994,0.29187886578217626
6573.243524413086,0.06095503392449396,0.2828337449284613
6573.244524185008,0.06248937948343816,0.27274016233231096
6573.245523956931,0.06405610539487083,0.261699352516658
6573.246523728853,0.06564392571992685,0.24982073961193382
6573.247523500777,0.0672392133808839,0.23722039334115358
6573.2485232727,0.0688262144261792,0.22401941739126852
6573.249523044622,0.07038732399109436,0.21034229452474576
6573.250522816545,0.07190341531116982,0.19631521225467324
6573.251522588467,0.07335421111413702,0.18206439268002916
6573.25252236039,0.07471868589676768,0.16771445187203834
6573.253522132313,0.07597548765165048,0.15338681692740166
6573.254521904236,0.07710336778316829,0.13919822979897925
6573.255521676158,0.0780816078753868,0.1252593650988905
6573.256521448081,0.0788904321984636,0.111673585250574
6573.257521220004,0.0795113962246147,0.09853585206140258
6573.258520991927,0.0799277440391821,0.08593180953579747
6573.25952076385,0.08012473051095971,0.07393704848868889
6573.260520535772,0.08008990645655988,0.06261655918068813
6573.261520307695,0.07981336626731796,0.05202437384720372
6573.262520079617,0.07928795738771453,0.042203396782913204
6573.263519851541,0.07850944976532659,0.03318541574152652
6573.264519623464,0.07747666152721897,0.02499128494709627
6573.265519395386,0.0761915356881447,0.01763126705166369
6573.266519167309,0.07465916268223341,0.011105518937400935
6573.267518939231,0.07288774540735078,0.005404704347444588
6573.268518711154,0.07088850675426714,0.0005107149364595747
6573.269518483077,0.0686755428258646,-0.003602519513663435
6573.270518255,0.06626562682341011,-0.0069681512488607746
6573.271518026922,0.06367796860161354,-0.009625484402939604
6573.272517798845,0.06093393416237458,-0.011619013382702935
6573.273517570768,0.0580567291795212,-0.012997447885124316
6573.274517342691,0.05507105158433248,-0.01381274171314218
6573.275517114614,0.0520027198661758,-0.014119141328272519
6573.276516886536,0.04887828519213825,-0.013972268608924164
6573.277516658459,0.04572463610795919,-0.013428250709499203
6573.278516430381,0.04256860441057352,-0.01254290834162411
6573.279516202305,0.039436580191155306,-0.011371012216994887
6573.280515974228,0.036354143446364,-0.009965615678362667
6573.28151574615,0.03334571910065064,-0.008377469546530725
6573.282515518073,0.030434261585070992,-0.00665452292103852
6573.283515289995,0.027640974175268423,-0.004841511351400778
6573.284515061918,0.024985067162370454,-0.0029796317890733236
6573.285514833841,0.022483557696998745,-0.0011063021297227562
6573.286514605764,0.020151112887128467,0.000744998238295917
6573.287514377686,0.017999936579704178,0.002544811827413272
6573.288514149609,0.016039699347819784,0.004267716590811194
6573.289513921532,0.014277510559436575,0.005892276737190283
6573.290513693455,0.012717930905259339,0.007400938421595141
6573.291513465378,0.011363023261542832,0.008779878013597234
6573.2925132373,0.010212439199748784,0.010018810530190452
6573.293513009223,0.0092635379004747,0.011110765601444536
6573.294512781145,0.008511533805704874,0.012051838043402414
6573.295512553069,0.00794966913165504,0.012840919743417669
6573.296512324991,0.007569407377315953,0.013479419128815086
6573.297512096914,0.007360644150145796,0.013970974008654278
6573.298511868837,0.007311931878233179,0.0143211630466024
6573.299511640759,0.007410715161562179,0.014537220525242617
6573.300511412683,0.007643573567494178,0.01462775840427308
6573.301511184605,0.007996468603319614,0.014602498980766626
6573.302510956528,0.008454991436780851,0.014472020754803316
6573.30351072845,0.009004607727084465,0.01424751942004611
6573.304510500373,0.009630895739364272,0.013940585282080815
6573.305510272296,0.010319773830540998,0.013562997911689618
6573.306510044219,0.011057713466029566,0.013126538485827469
6573.307509816142,0.01183193411106595,0.012642819997426669
6573.308509588064,0.012630576533920872,0.012123135242771175
6573.309509359987,0.013442851234938423,0.011578322223820443
6573.310509131909,0.014259159010800661,0.011018646421451601
6573.311508903833,0.01507118126090416,0.010453699370253517
6573.312508675755,0.01587193854255502,0.009892313059608245
6573.313508447678,0.01665581683690348,0.009342489802022466
6573.314508219601,0.017418561725707476,0.008811347300888138
6573.315507991523,0.01815724115439896,0.008305078728834283
6573.316507763446,0.018870177853002035,0.007828927666543107
6573.317507535369,0.019556853026442333,0.007387177676314925
6573.318507307292,0.020217783712329587,0.0069831560875002925
6573.319507079214,0.020854377170519488,0.006619251342549084
6573.320506851137,0.02146876662084765,0.006296943082961603
6573.32150662306,0.022063633386294558,0.006016844050801124
6573.322506394983,0.022642020947962485,0.005778752794068843
6573.323506166906,0.02320714660328277,0.0055817160660559
6573.324505938828,0.023762216379133668,0.005424099714999444
6573.325505710751,0.02431024857853662,0.005303666786011301
6573.326505482673,0.02485391078389737,0.005217661498748167
6573.327505254597,0.025395374276198715,0.005162897716264069
6573.328505026519,0.025936188733576143,0.005135850470868119
6573.329504798442,0.026477178910541847,0.005132749028844061
6573.330504570365,0.027018363937160467,0.005149669829398971
6573.331504342287,0.02755889902999616,0.005182627435337281
6573.332504114211,0.02809703890464592,0.005227661432836558
6573.333503886133,0.028630122233337423,0.005280917095037247
6573.334503658056,0.02915457719054746,0.005338717692264425
6573.335503429978,0.029665949140823523,0.00539762668874623
6573.336503201901,0.03015895220816677,0.005454498690179994
6573.337502973824,0.03062754639283466,0.005506518734240755
6573.338502745747,0.031065041093138433,0.005551230166004012
6573.33950251767,0.03146422461801873,0.005586551824258183
6573.340502289592,0.03181751779443448,0.005610785558712091
6573.341502061515,0.03211714824397707,0.005622615205814553
6573.342501833437,0.03235534043146557,0.005621098141023412
6573.343501605361,0.03252451527423347,0.005605650503782252
6573.344501377283,0.032617492064009504,0.005576027191615145
6573.345501149206,0.03262768485459307,0.005532297688505112
6573.346500921129,0.032549285538821485,0.005474818690288225
6573.347500693051,0.03237742678591761,0.00540420434394972
6573.348500464975,0.03210831979295776,0.005321294781290999
6573.349500236897,0.0317393640234062,0.005227123525840262
6573.35050000882,0.031269228143920025,0.005122884285142772
6573.351499780742,0.030697902657289243,0.005009897610304516
6573.352499552665,0.03002672504822556,0.00488957790604442
6573.353499324588,0.029258377925334117,0.0047634012769712545
6573.354499096511,0.02839686031150629,0.004632874671156136
6573.355498868434,0.02744743245158036,0.004499506742284566
6573.356498640356,0.026416535404323815,0.0043647808268526015
6573.357498412279,0.025311688002446,0.004230130419450875
6573.358498184201,0.024141365053329224,0.004096917487820852
6573.359497956125,0.022914861540254974,0.003966413876662311
6573.360497728047,0.021642147913036577,0.0038397859298991838
6573.36149749997,0.02033372135511322,0.0037180823585485265
6573.362497271893,0.019000457286136033,0.003602225311994611
6573.363497043815,0.017653464454578643,0.00349300456333003
6573.364496815739,0.01630394599675119,0.0033910746835448084
6573.365496587661,0.014963067983091365,0.0032969550500306965
6573.366496359584,0.01364183633404244,0.0032110325031941703
6573.367496131506,0.012350982558381835,0.0031335664213646476
6573.368495903429,0.011100858516872265,0.0030646959275791876
6573.369495675352,0.00990134031527364,0.0030044488792054388
6573.370495447275,0.008761741421351306,0.002952752236551616
6573.371495219198,0.007690735091087742,0.002909443373351554
6573.37249499112,0.00669628611088709,0.0028742818798241096
6573.373494763043,0.005785591709998457,0.0028469614115548413
6573.374494534965,0.004965031332110041,0.0028271211666488307
6573.375494306889,0.004240124838170491,0.002814356650960313
6573.376494078811,0.003615498635614651,0.0028082295121493444
6573.377493850734,0.003094859148780841,0.002808276349053586
6573.378493622657,0.0026809729660656123,0.002814016493244795
6573.379493394579,0.002375652973133761,0.0028249588052958615
6573.380493166503,0.0021797498381687153,0.0028406075459395997
6573.381492938425,0.002093148337115808,0.0028604673893653605
6573.382492710348,0.0021147681637582105,0.002884047650058765
6573.38349248227,0.0022425690512605325,0.0029108657990915754
6573.384492254193,0.002473560248771011,0.002940450352078381
6573.3854920261165,0.002803814648392964,0.0029723432159656457
6573.386491798039,0.003228488105374194,0.0030061015782192964
6573.387491569962,0.003741844684968704,0.003041299405913431
6573.388491341884,0.004337288687652759,0.0030775285974558755
6573.389491113807,0.005007404371530644,0.0031143998039094606
6573.390490885729,0.005744004320934631,0.003151542916404223
6573.391490657653,0.0065381873905479065,0.00318860720564738
6573.392490429575,0.007380407059360751,0.003225261106750082
6573.393490201498,0.008260550844077723,0.0032611916739043395
6573.394489973421,0.009168031163594026,0.003296103772534717
6573.395489745343,0.010091887755641444,0.0033297191016993994
6573.396489517267,0.011020901453854466,0.0033617751306867973
6573.397489289189,0.011943718829213251,0.0033920240070941378
6573.398489061112,0.012848986840607814,0.003420231480807589
6573.399488833034,0.013725496180266972,0.0034461759104098127
6573.400488604957,0.01456233142979847,0.0034696474709826263
6573.40148837688,0.015349025497981084,0.003490447735940053
6573.402488148803,0.016075715171333237,0.0035083898296563915
6573.403487920726,0.01673329408355361,0.0035232993315030612
6573.404487692648,0.017313559119301703,0.0035350160617027594
6573.405487464571,0.017809346290296135,0.003543396805039817
6573.406487236493,0.018214652427830956,0.003548318936287891
6573.407487008417,0.018524739458557603,0.0035496848036516895
6573.408486780339,0.018736218371754945,0.0035474266106125195
6573.409486552262,0.018847110225882726,0.0035415114310721344
6573.410486324185,0.018856881904562264,0.003531945920370037
6573.411486096107,0.018766455075778576,0.003518780265404653
6573.412485868031,0.018578187953556754,0.0035021109714589733
6573.413485639953,0.018295830740674195,0.00348208221748122
6573.414485411876,0.0179244566742883,0.0034588856843720405
6573.415485183798,0.017470371165651855,0.003432758901920239
6573.416484955721,0.01694100161828768,0.0034039822380489346
6573.4174847276445,0.01634477031688146,0.0033728746987448264
6573.418484499567,0.01569095258234637,0.0033397887574599535
6573.41948427149,0.014989522426712856,0.003305104488363303
6573.420484043412,0.014250988272970066,0.0032692233074893815
6573.421483815335,0.013486221769157633,0.003232561609651161
6573.422483587257,0.012706283081404061,0.0031955445366409784
6573.423483359181,0.011922246163634733,0.003158600048914672
6573.424483131103,0.011145027398669757,0.003122153427473693
6573.425482903026,0.010385220768525242,0.00308662232670752
6573.426482674949,0.009652942373690087,0.003052412522125361
6573.427482446871,0.008957686682390525,0.0030199145070766388
6573.428482218795,0.008308196395322513,0.0029895010602187812
6573.429481990717,0.007712347343961213,0.0029615258412601948
6573.43048176264,0.007177049452754409,0.002936323005484635
6573.431481534562,0.006708164477939682,0.0029142077784685243
6573.432481306485,0.006310440965136905,0.0028954779051267184
6573.4334810784085,0.005987466646414806,0.002880415867702701
6573.434480850331,0.005741638341248396,0.002869291741790162
6573.435480622254,0.005574149331279305,0.002862366540204574
6573.436480394176,0.005484994109711533,0.002859895905054223
6573.437480166099,0.0054729903179849505,0.0028621340440678957
6573.438479938022,0.005535817554375569,0.002869337832588854
6573.439479709945,0.005670072570292937,0.002881770986444586
6573.440479481867,0.005871340160572429,0.002899708157502447
6573.44147925379,0.006134278813916265,0.0029234387528889474
6573.442479025713,0.006452719952166846,0.002953270266518554
6573.443478797635,0.006819779394357637,0.002989530926919387
6573.444478569559,0.007227979549278538,0.003032571466941846
6573.445478341481,0.00766938074013423,0.0030827657942328578
6573.446478113404,0.0081357199477385,0.003140510310116925
6573.447477885326,0.008618555089976252,0.0032062216142324258
6573.448477657249,0.009109412722325384,0.0032803323569463127
6573.4494774291725,0.009599936751839556,0.0033632850744333615
6573.450477201095,0.010082035424317,0.0034555239623552114
6573.451476973018,0.010548023494325817,0.0035574846782239944
6573.45247674494,0.010990756147869249,0.003669582355758233
6573.453476516863,0.011403750978766844,0.0037921980408288274
6573.454476288785,0.011781294249628673,0.003925663739904769
6573.455476060709,0.012118527968684872,0.004070246248477816
6573.456475832631,0.012411515066016052,0.004226129921805124
6573.457475604554,0.012657280999455983,0.004393398567774302
6573.458475376477,0.012853831155057035,0.004572016688584205
6573.459475148399,0.013000144273744827,0.0047618103958969845
6573.460474920323,0.013096142949219814,0.0049624484878586
6573.461474692245,0.013142643166873672,0.005173424369732786
6573.462474464168,0.013141285852785848,0.00539403964350193
6573.46347423609,0.013094454242631507,0.005623390244284452
6573.464474008013,0.013005181334214804,0.005860355996448799
6573.4654737799365,0.012877051695149222,0.006103594438034457
6573.466473551859,0.012714101557746412,0.006351539703596319
6573.467473323782,0.01252072058660025,0.0066024071339973915
6573.468473095704,0.012301558059067593,0.00685420410412778
6573.469472867627,0.012061435531045519,0.007104747354577674
6573.47047263955,0.011805267427458865,0.00735168689568741
6573.471472411473,0.01153799043909063,0.007592536322175212
6573.472472183395,0.01126450214349742,0.007824709139107256
6573.473471955318,0.010989608896295617,0.008045560468430808
6573.474471727241,0.010717982751440525,0.008252433281550581
6573.475471499163,0.010454126944339346,0.008442708078020908
6573.476471271087,0.010202349256551292,0.008613854719400191
6573.477471043009,0.009966742315497568,0.008763484987889076
6573.478470814932,0.009751169557047128,0.008889404417114128
6573.479470586854,0.009559255240255266,0.00898966201277849
6573.480470358777,0.009394376637370399,0.009062596557797713
6573.4814701307005,0.0092596564564519,0.009106878185879349
6573.482469902623,0.009157953799208935,0.009121543779722742
6573.483469674546,0.009091852470191761,0.009106024623056031
6573.484469446468,0.00906364602853117,0.00906016485532511
6573.485469218391,0.009075319407109221,0.008984229799490595
6573.486468990314,0.009128527143651734,0.008878904006557357
6573.487468762237,0.009224568322433176,0.00874527953175332
6573.488468534159,0.009364358341100169,0.008584835313756638
6573.489468306082,0.009548397745260317,0.008399408654786788
6573.490468078005,0.009776738703914238,0.008191159894014604
6573.491467849927,0.01004895020997071,0.007962531508530985
6573.492467621851,0.010364083662750935,0.0077162029982229515
6573.493467393773,0.010720640951793798,0.007455042917298722
6573.494467165696,0.011116547365281303,0.00718205928389175
6573.495466937618,0.011549131552455938,0.006900349407629297
6573.496466709541,0.012015114445272777,0.006613050032657049
6573.4974664814645,0.01251060857861029,0.006323288631890384
6573.498466253387,0.013031128717262667,0.00603413664042336
6573.49946602531,0.013571614218286489,0.005748565321965883
6573.500465797232,0.014126463270514221,0.0054694048464150906
6573.501465569155,0.014689579097269182,0.005199307069755561
6573.502465341078,0.015254428260950949,0.0049407124438219305
6573.503465113001,0.015814111197059142,0.004695821402946436
6573.504464884923,0.01636144492649675,0.004466570462242951
6573.505464656846,0.016889057529095947,0.0042546131304470125
6573.506464428769,0.017389493465235117,0.0040613056109869965
6573.507464200691,0.017855328313011492,0.0038876971699610147
6573.508463972615,0.018279291010639808,0.0037345250085359014
6573.509463744537,0.018654391244628504,0.0036022134726893165
6573.51046351646,0.018974049219692604,0.00349087743506567
6573.511463288382,0.019232224791140638,0.0034003296855501645
6573.512463060305,0.01942354288649862,0.0033300921755398793
6573.5134628322285,0.019543412158122525,0.0032794109671098553
6573.514462604151,0.01958813371262978,0.0032472747261003067
6573.515462376074,0.019554996549852488,0.003232436566645835
6573.516462147996,0.019442356162282834,0.0032334390155087786
6573.517461919919,0.019249692770898424,0.0032486418281732353
6573.518461691842,0.01897764610391675,0.003276252359798652
6573.519461463765,0.018628024612528996,0.0033143581682039316
6573.520461235687,0.018203788440834538,0.0033609614872246608
6573.52146100761,0.01770900692560022,0.00341401514192061
6573.522460779533,0.01714879253133185,0.003471459384282143
6573.523460551456,0.01652921385040515,0.0035312590302041666
6573.524460323379,0.015857190762636277,0.003591440198128906
6573.525460095301,0.015140375195994791,0.003650125895535206
6573.526459867224,0.014387021162911786,0.0037055696714730787
6573.527459639146,0.013605847779111167,0.0037561865539189926
6573.528459411069,0.01280589876050456,0.0038005805170174254
6573.5294591829925,0.011996401485510708,0.0038375677630449892
6573.530458954915,0.011186628197555138,0.0038661951644213518
6573.531458726838,0.010385761409718836,0.003885753334084463
6573.53245849876,0.00960276516171211,0.003895783995430806
6573.533458270683,0.008846263503428074,0.003896081548185299
6573.534458042606,0.008124427371057098,0.0038866889112514295
6573.535457814529,0.007444870799522579,0.0038678878906414802
6573.536457586451,0.006814557185719761,0.003840184531533521
6573.537457358374,0.006239716147594411,0.0038042901555247633
6573.538457130297,0.005725771448362837,0.003761098964323202
6573.539456902219,0.00527728043761049,0.0037116631364433367
6573.540456674143,0.004897885433255176,0.003657166264925869
6573.541456446065,0.004590277391804393,0.003598895846040819
6573.542456217988,0.00435617210467219,0.003538215396879688
6573.54345598991,0.004196299047071468,0.003476536696468829
6573.544455761833,0.004110402895654203,0.003415292617722379
6573.5454555337565,0.0040972576027713875,0.0033559110205119997
6573.546455305679,0.004154692767202443,0.0032997901750503565
6573.547455077602,0.004279631900534308,0.0032482761547794545
6573.548454849524,0.0044681420832321395,0.003202642568465866
6573.549454621447,0.00471549443438662,0.0031640728993035066
6573.55045439337,0.005016234759299901,0.0031336456058150765
6573.551454165293,0.005364263668943191,0.0031123220360593684
6573.552453937215,0.00575292538038368,0.0031009371184709004
6573.553453709138,0.006175104303540815,0.003100192711573414
6573.554453481061,0.006623328388146203,0.0031106534169333096
6573.555453252984,0.007089878047688393,0.003132744591779052
6573.556453024907,0.007566899307094973,0.0031667522470224954
6573.557452796829,0.00804651964489151,0.003212824488239701
6573.558452568752,0.008520964827506052,0.0032709741573379216
6573.559452340674,0.00898267488157131,0.0033410823569019425
6573.560452112597,0.009424417219977133,0.0034229025677909902
6573.5614518845205,0.00983939480598485,0.0035160650879027585
6573.562451656443,0.010221347111712414,0.0036200815345861477
6573.563451428366,0.010564641581862376,0.0037343491930404435
6573.564451200288,0.0108643534875504,0.003858155086828247
6573.565450972211,0.011116332536287441,0.003990679795840959
6573.566450744134,0.011317255287287492,0.004131001204636827
6573.567450516057,0.011464663026242104,0.004278098464116361
6573.568450287979,0.011556985071363492,0.004430856467794379
6573.569450059902,0.011593547567050949,0.004588071104874593
6573.570449831825,0.011574567896941416,0.004748455492390297
6573.571449603748,0.011501135070930079,0.004910647344626838
6573.572449375671,0.011375176782979942,0.00507321763999448
6573.573449147593,0.01119941417070309,0.005234680786409024
6573.574448919516,0.010977305559747269,0.005393506518324605
6573.575448691438,0.010712980655896993,0.005548133739146117
6573.576448463361,0.010411166775051687,0.005696986448101312
6573.5774482352845,0.010077108784128602,0.005838491776601021
6573.578448007207,0.009716484477908509,0.00597110001510212
6573.57944777913,0.009335317124517246,0.006093306354509272
6573.580447551052,0.008939886833669725,0.0062036739301735986
6573.581447322975,0.00853664223771004,0.006300857659998429
6573.582447094898,0.00813211378270163,0.0063836282992330035
6573.583446866821,0.007732829736742842,0.006450896085297974
6573.584446638743,0.007345235808951701,0.006501733325532335
6573.585446410666,0.0069756190138344195,0.006535395278789341
6573.586446182589,0.006630036136465627,0.006551338655693496
6573.587445954512,0.006314246897860915,0.006549236995241888
6573.588445726435,0.006033651716324159,0.006528992136984699
6573.589445498357,0.005793233815390369,0.0064907411095659435
6573.59044527028,0.005597505345727691,0.006434858028619914
6573.591445042202,0.005450457200968588,0.0063619509496902656
6573.592444814125,0.005355512360572146,0.006272853925572282
6573.5934445860485,0.0053154828623636656,0.0061686146911187475
6573.594444357971,0.005332530786879145,0.006050478446079235
6573.595444129894,0.005408133844610198,0.0059198682070412
6573.596443901816,0.005543056316625942,0.005778362231544288
6573.597443673739,0.0057373262609350505,0.005627669081809505
6573.598443445662,0.0059902200506901536,0.005469600945101281
6573.599443217585,0.006300255393981628,0.005306045849680596
6573.600442989507,0.0066651939535329295,0.005138939431324019
6573.60144276143,0.0070820545426436635,0.004970236916752005
6573.602442533353,0.007547137654448947,0.004801885971844739
6573.603442305276,0.008056061807488229,0.004635800991481762
6573.604442077199,0.008603811866011207,0.004473839278985043
6573.605441849121,0.009184799131972348,0.004317779397342339
6573.606441621044,0.009792932637842151,0.004169301814584177
6573.607441392966,0.010421700717223434,0.004029971849372816
6573.60844116489,0.011064261593500319,0.00390122485983132
6573.6094409368125,0.011713541391191037,0.0037843535956078
6573.610440708735,0.012362337616366164,0.003680497631456783
6573.611440480658,0.013003425751815862,0.0035906348063001405
6573.61244025258,0.01362966621565674,0.0035155745916479455
6573.613440024503,0.014234108703590683,0.0034559532915635874
6573.614439796426,0.014810091066531115,0.0034122309319088748
6573.615439568349,0.015351330376911988,0.0033846896609511234
6573.616439340271,0.01585200449902836,0.003373433494941953
6573.617439112194,0.016306823116274523,0.00337838929957447
6573.618438884117,0.016711087804961732,0.0033993089643018976
6573.61943865604,0.017060741461459528,0.0034357727779080263
6573.620438427963,0.017352408093501658,0.0034871940567277127
6573.621438199885,0.017583424437636365,0.003552825115457559
6573.622437971808,0.01775186488164184,0.003631764693796391
6573.62343774373,0.017856560755242258,0.003722966963466408
6573.624437515654,0.01789711436257746,0.003825252257281253
6573.6254372875765,0.01787390737557146,0.00393731967362575
6573.626437059499,0.01778810255462756,0.004057761678340381
6573.627436831422,0.017641637310121326,0.004185080745755072
6573.628436603344,0.017437207441447677,0.0043177079826711776
6573.629436375267,0.0171782395695184,0.0044540235773995315
6573.63043614719,0.016868851326256633,0.004592378798224452
6573.631435919113,0.016513799125990686,0.0047311191347484596
6573.632435691035,0.01611841402804938,0.004868608060662538
6573.633435462958,0.01568852659881053,0.005003250823981134
6573.634435234881,0.01523038185998078,0.005133517642618312
6573.635435006804,0.014750545605169127,0.0052579656853425725
6573.636434778727,0.014255803694990965,0.005375259246520977
6573.637434550649,0.013753056287205937,0.005484187583422614
6573.638434322572,0.013249209157937288,0.005583679959734445
6573.639434094494,0.012751064313318707,0.005672817498437149
6573.640433866418,0.01226521210925435,0.005750841515000293
6573.6414336383405,0.011797927175859042,0.00581715815600158
6573.642433410263,0.01135507051202059,0.005871339440662903
6573.643433182186,0.010942000038238153,0.005913121110962363
6573.644432954108,0.010563491612621729,0.005942397899935555
6573.645432726031,0.010223672075834758,0.005959216844890618
6573.646432497954,0.009925965405432845,0.005963769138317328
6573.647432269877,0.009673052627811207,0.0059563808463262095
6573.648432041799,0.009466845786701898,0.005937502745203913
6573.649431813722,0.009308475968214082,0.005907699546178201
6573.650431585645,0.009198295111321636,0.005867638816047222
6573.651431357568,0.009135891112176324,0.005818079876256216
6573.652431129491,0.00912011558592395,0.00575986287396972
6573.653430901413,0.009149123569393387,0.005693898117846506
6573.654430673336,0.009220424394714976,0.005621155687449016
6573.655430445258,0.00933094289618572,0.005542655249761675
6573.656430217182,0.009477089991315734,0.005459455955192424
6573.6574299891045,0.0096548414807084,0.005372646275983982
6573.658429761027,0.009859823672537493,0.005283333706750553
6573.65942953295,0.010087404240688033,0.005192634326746938
6573.660429304872,0.010332786635893612,0.005101662268025184
6573.661429076796,0.010591106366089205,0.005011519124749509
6573.662428848718,0.010857527468480009,0.0049232832957135965
6573.663428620641,0.011127337455887083,0.004837999199149617
6573.664428392563,0.011396038928767874,0.004756666259881788
6573.665428164486,0.01165943592424337,0.004680227570038247
6573.666427936409,0.011913712968558577,0.004609558183926033
6573.667427708332,0.01215550476952276,0.004545453118044676
6573.668427480255,0.012381954553035491,0.004488615249771729
6573.669427252177,0.012590759200432951,0.004439643397041923
6573.6704270241,0.012780199636092233,0.004399020902974936
6573.671426796022,0.01294915546858417,0.004367105068828677
6573.672426567946,0.01309710371600408,0.0043441178070281325
6573.6734263398685,0.013224102351306962,0.004330137927609084
6573.674426111791,0.013330760111021418,0.004325095493930049
6573.675425883714,0.013418194363233653,0.004328768645204125
6573.676425655636,0.013487978857951145,0.0043407831796317955
6573.677425427559,0.013542083030714105,0.004360615066894272
6573.678425199482,0.013582804365748945,0.004387595962010495
6573.679424971405,0.013612695276579823,0.004420921730305014
6573.680424743327,0.013634486068859171,0.004459663937331479
6573.68142451525,0.013651005743021718,0.004502784195044767
6573.682424287173,0.013665102562270796,0.004549151194798947
6573.683424059096,0.013679566389317225,0.004597560189021267
6573.684423831019,0.013697054765251414,0.004646754585300511
6573.685423602941,0.013720024544377133,0.004695449210176792
6573.686423374864,0.013750670594291194,0.004742354741049879
6573.687423146786,0.013790872672755115,0.004786202806632145
6573.68842291871,0.013842151223582622,0.004825771264917099
6573.6894226906325,0.013905632613610327,0.0048599091292252285
6573.690422462555,0.013982024321796486,0.004887560533216358
6573.691422234478,0.014071600752652293,0.004907787055109423
6573.6924220064,0.014174200522348992,0.004919787713175438
6573.693421778324,0.014289236047873268,0.004922916019492074
6573.694421550246,0.014415715952298201,0.004916693603679847
6573.695421322169,0.014552280247284416,0.004900820038570296
6573.696421094091,0.014697247604867875,0.004875178604272135
6573.697420866014,0.01484867339048471,0.004839837841561269
6573.698420637937,0.015004416572809095,0.00479504886431218
6573.69942040986,0.015162213206252988,0.0047412384883612916
6573.700420181783,0.015319753874906432,0.004678998299216167
6573.701419953705,0.015474762182956483,0.004609069883495529
6573.702419725628,0.015625070999548955,0.004532326620221936
6573.70341949755,0.015768692810625932,0.004449752620983075
6573.704419269474,0.01590388045837175,0.004362419542765907
6573.705419041396,0.01602917496480589,0.004271462040989829
6573.706418813319,0.01614343794773035,0.004178052613525482
6573.707418585242,0.016245867071428846,0.004083376549562007
6573.708418357164,0.016335993918401293,0.0039886076461590845
6573.709418129088,0.016413664699455707,0.003894885273907034
6573.71041790101,0.01647900533691074,0.00380329325533554
6573.711417672933,0.01653237348733651,0.003714840884096552
6573.712417444855,0.016574300804872835,0.0036304462972985485
6573.713417216778,0.016605429052803045,0.0035509223529017913
6573.714416988701,0.016626443568467875,0.003476965156795765
6573.715416760624,0.01663800724604212,0.003409145384150326
6573.716416532547,0.01664069782523449,0.00334790250212712
6573.717416304469,0.016634950961500743,0.0032935419227870834
6573.718416076392,0.016621011302978075,0.003246235022472825
6573.719415848314,0.016598893585759215,0.003206021883477302
6573.720415620238,0.016568355555396708,0.0031728165592803093
6573.72141539216,0.01652888426751155,0.0031464146350627556
6573.722415164083,0.016479696931265678,0.0031265028374158014
6573.723414936006,0.016419756898186078,0.003112670425052917
6573.724414707928,0.016347804701485707,0.0031044220553819277
6573.725414479852,0.016262403287553386,0.003101191772876717
6573.726414251774,0.016161995808334568,0.0031023577311900443
6573.727414023697,0.016044973595486865,0.003107257280860983
6573.728413795619,0.015909751238191026,0.0031152021322191493
6573.729413567542,0.015754845079519686,0.0031254933856379734
6573.730413339465,0.015578951052737542,0.0031374362494868075
6573.731413111388,0.015381017776265972,0.0031503542348813966
6573.732412883311,0.015160311262690915,0.0031636025669376736
6573.733412655233,0.014916468283509279,0.003176580521226874
6573.734412427156,0.014649536148924698,0.0031887423890562885
6573.735412199078,0.014359997412818832,0.0031996067935678844
6573.736411971002,0.014048778917797192,0.00320876412785977
6573.737411742924,0.013717245621092911,0.003215881974840781
6573.738411514847,0.013367180564603245,0.003220708488980689
6573.73941128677,0.013000752946959118,0.0032230738492668074
6573.740411058692,0.012620476463634301,0.0032228899989083055
6573.741410830616,0.012229160028510122,0.003220148937753228
6573.742410602538,0.011829852874455798,0.0032149198133444483
6573.743410374461,0.011425785963420821,0.0032073449910377215
6573.744410146383,0.011020311587569163,0.0031976352191027155
6573.745409918306,0.010616842932588235,0.00318606395954087
6573.7464096902295,0.010218795184424076,0.0031729609131758182
6573.747409462152,0.009829529530968294,0.003158704730411395
6573.748409234075,0.00945230118145353,0.003143714907599251
6573.749409005997,0.009090212326504487,0.0031284429434126474
6573.75040877792,0.008746170793578647,0.0031133629285076798
6573.751408549842,0.008422854966519087,0.003098961814500478
6573.752408321766,0.008122685276290644,0.0030857296492795418
6573.753408093688,0.007847802255111797,0.0030741500845273663
6573.754407865611,0.007600050884952422,0.003064691448380409
6573.755407637534,0.007380970864791318,0.0030577986272434785
6573.756407409456,0.0071917924809384755,0.003053885935146343
6573.75740718138,0.007033437901644211,0.003053331084856266
6573.758406953302,0.00690652780753661,0.0030564703131735213
6573.759406725225,0.006811393248107598,0.0030635946509939335
6573.760406497147,0.006748092497225013,0.003074947272066749
6573.76140626907,0.006716432511874017,0.00309072180535966
6573.762406040993,0.006715994414349143,0.0031110614469025055
6573.763405812916,0.006746162248805268,0.0031360586564318583
6573.764405584839,0.006806154128537114,0.0031657551929997058
6573.765405356761,0.006895054786929264,0.0032001422628354114
6573.766405128684,0.00701184844732316,0.0032391606317058244
6573.767404900606,0.007155450817798133,0.0032827006658314914
6573.76840467253,0.007324738918445578,0.003330602366152744
6573.769404444452,0.007518577414908953,0.003382655521042697
6573.770404216375,0.007735840202733472,0.003438600119095919
6573.771403988298,0.007975426153356602,0.003498127148499063
6573.77240376022,0.008236268143299195,0.0035608798801012313
6573.773403532144,0.008517334699415265,0.003626455712869156
6573.774403304066,0.00881762383313958,0.00369440867997827
6573.775403075989,0.009136149011906129,0.003764252771432825
6573.776402847911,0.00947191779597151,0.003835466283578908
6573.777402619834,0.009823904351617407,0.003907497405234456
6573.7784023917575,0.010191017605005369,0.00397977117520204
6573.77940216368,0.010572067065827506,0.0040516978218147525
6573.780401935603,0.010965728350127315,0.004122682367799611
6573.781401707525,0.011370510280092862,0.004192135286184503
6573.782401479448,0.011784725219697773,0.00425948392781238
6573.78340125137,0.012206464073144819,0.004324184386614618
6573.784401023294,0.012633577180524436,0.004385733398092587
6573.785400795216,0.013063662215416487,0.00444367976749114
6573.786400567139,0.013494060098070982,0.004497634717619158
6573.787400339062,0.013921859850283129,0.004547280491016814
6573.788400110984,0.014343913211432795,0.004592376606951737
6573.789399882908,0.014756859670660939,0.004632763375031957
6573.79039965483,0.015157162289646408,0.004668362524329023
6573.791399426753,0.015541154267228258,0.004699175014716026
6573.792399198675,0.015905095655040325,0.004725276229642423
6573.793398970598,0.016245239005955165,0.004746808852665885
6573.7943987425215,0.016557902053537698,0.004763973832161456
6573.795398514444,0.016839544857077414,0.004777019920170681
6573.796398286367,0.017086848359136857,0.004786232305590022
6573.797398058289,0.01729679113899577,0.0047919208471144175
6573.798397830212,0.01746672130275711,0.004794408368540558
6573.799397602135,0.01759442077710126,0.004794019432987435
6573.800397374058,0.017678159607169484,0.004791069971076155
6573.80139714598,0.01771673811603213,0.004785858084318065
6573.802396917903,0.017709515005995522,0.0047786562558899985
6573.803396689826,0.017656419877891086,0.004769705083175159
6573.804396461748,0.01755794943845165,0.004759208551771401
6573.805396233672,0.017415147821237445,0.004747330854361365
6573.806396005594,0.017229572611374463,0.004734194810985979
6573.807395777517,0.017003248943981777,0.0047198819968198415
6573.808395549439,0.01673861428889917,0.004704434666967687
6573.809395321362,0.016438456355044505,0.004687859477459846
6573.8103950932855,0.01610584617554638,0.004670132859239868
6573.811394865208,0.015744068103093808,0.004651207730573403
6573.812394637131,0.015356548341919135,0.004631021065871783
6573.813394409053,0.014946783828730345,0.004609501728855922
6573.814394180976,0.014518273611995598,0.004586577971952924
6573.815393952898,0.014074455111338785,0.004562184095219207
6573.816393724822,0.013618647587406055,0.004536265892201952
6573.817393496744,0.01315400481261249,0.004508784648611319
6573.818393268667,0.012683478399923658,0.004479719606179846
6573.81939304059,0.012209792620498577,0.0044490689571347174
6573.820392812512,0.011735430901651318,0.004416849563570389
6573.821392584436,0.011262633601360476,0.00438309567489616
6573.822392356358,0.01079340614717517,0.004347856944633251
6573.823392128281,0.010329536247601603,0.004311196037910692
6573.824391900203,0.009872618636377046,0.0042731860938864386
6573.825391672126,0.009424085621407138,0.004233908286477038
6573.8263914440495,0.008985241503552042,0.004193449719017404
6573.827391215972,0.008557298731090212,0.004151901874913383
6573.828390987895,0.008141413563883716,0.0041093598021500035
6573.829390759817,0.007738719106248669,0.004065922130001605
6573.83039053174,0.007350353856420475,0.0040216919205893886
6573.831390303663,0.006977484439983078,0.003976778270866297
6573.832390075586,0.006621321910747075,0.00393129851359138
6573.833389847508,0.00628313173780501,0.0038853808141097066
6573.834389619431,0.005964238112405749,0.003839166914135891
6573.835389391354,0.005666023384431093,0.003792814734553424
6573.836389163276,0.005389923340248366,0.0037465005344564334
6573.8373889352,0.005137418810225903,0.003700420358584306
6573.838388707122,0.004910023868763448,0.003654790587912027
6573.839388479045,0.004709270729925177,0.003609847492603613
6573.840388250967,0.004536691365714522,0.0035658457273482235
6573.84138802289,0.004393795867220551,0.0035230557117286484
6573.8423877948135,0.004282047622164824,0.0034817598422666766
6573.843387566736,0.004202835505075626,0.003442247521000279
6573.844387338659,0.004157443457774608,0.003404809075868244
6573.845387110581,0.004147018034719123,0.0033697287829012024
6573.846386882504,0.004172534667233621,0.0033372773311011426
6573.847386654427,0.004234763553314394,0.003307704144938323
6573.84838642635,0.004334236184154893,0.0032812299872854857
6573.849386198272,0.004471213545579829,0.0032580402307779348
6573.850385970195,0.004645656985993099,0.0032382791254101503
6573.851385742118,0.004857202655265044,0.0032220453126322033
6573.85238551404,0.005105140318902676,0.0032093887549385024
6573.853385285964,0.0053883972596746165,0.0032003091781205827
6573.854385057886,0.00570552791689004,0.003194756059477195
6573.855384829809,0.006054709881557686,0.003192630129295485
6573.856384601731,0.00643374682320357,0.003193786282343531
6573.857384373654,0.006840078822176641,0.003198037726056453
6573.8583841455775,0.007270800408433468,0.003205161124778137
6573.8593839175,0.007722686392591259,0.0032149024359311613
6573.860383689423,0.008192225345861543,0.0032269830874623955
6573.861383461345,0.008675660350834698,0.003241106142515617
6573.862383233268,0.009169036426449478,0.0032569621569926016
6573.863383005191,0.009668253878904194,0.003274234554341616
6573.864382777114,0.010169126764044066,0.003292604489568429
6573.865382549036,0.010667445594534194,0.003311755306862661
6573.866382320959,0.011159043287572262,0.0033313767749853893
6573.867382092882,0.011639863114966618,0.0033511692960175956
6573.868381864804,0.012106027177610406,0.0033708482298498666
6573.869381636728,0.012553903762138224,0.003390148378354406
6573.87038140865,0.01298017182822922,0.0034088285634008937
6573.871381180573,0.013381880743388285,0.0034266761455374606
6573.872380952495,0.013756503207773897,0.0034435112817624374
6573.873380724418,0.014101979154026527,0.0034591907057197734
6573.8743804963415,0.01441674835636866,0.0034736108114454484
6573.875380268264,0.01469976965827866,0.003486709823040052
6573.876380040187,0.014950525240903432,0.0034984688583632366
6573.877379812109,0.015169009153531707,0.003508911765373995
6573.878379584032,0.015355700150007257,0.00351810370460791
6573.879379355955,0.015511519493660576,0.003526148534613388
6573.880379127878,0.015637774855933304,0.003533185123579055
6573.8813788998,0.015736091960901893,0.003539382769816238
6573.882378671723,0.015808336335809667,0.0035449359569817086
6573.883378443646,0.015856528299631654,0.003550058681984463
6573.884378215569,0.015882754886245708,0.0035549785767071554
6573.885377987492,0.0158890825339848,0.0035599310084836228
6573.886377759414,0.015877474087319494,0.0035651532991488595
6573.887377531337,0.015849713160650626,0.0035708791714995952
6573.888377303259,0.015807338420648423,0.003577333533316058
6573.889377075182,0.01575158991947073,0.003584727719156027
6573.8903768471055,0.0156833692017805,0.003593255285882239
6573.891376619028,0.015603214445312123,0.0036030883992493982
6573.892376390951,0.015511291375320126,0.0036143747936411797
6573.893376162873,0.015407400171967322,0.0036272352530850806
6573.894375934796,0.015290998111210218,0.0036417615450218743
6573.895375706719,0.01516123724199292,0.0036580147468158078
6573.896375478642,0.015017015968174414,0.0036760239427842596
6573.897375250564,0.014857042918332883,0.0036957853116279665
6573.898375022487,0.014679910906131625,0.0037172616441631624
6573.89937479441,0.014484178119791937,0.003740382331091942
6573.900374566332,0.014268453045996396,0.003765043851312614
6573.901374338256,0.014031479258513141,0.0037911107699754444
6573.902374110178,0.01377221629712382,0.0038184172175716583
6573.903373882101,0.013489913386882478,0.0038467687776873715
6573.904373654023,0.013184173389802895,0.0038759446816381423
6573.905373425946,0.01285500490272594,0.003905700211350119
6573.9063731978695,0.012502860901547504,0.003935769259853586
6573.907372969792,0.012128662990832574,0.003965867083292593
6573.908372741715,0.01173381116491359,0.003995693355857905
6573.909372513637,0.011320179832625699,0.004024935656513463
6573.91037228556,0.010890101496738882,0.004053273465976032
6573.911372057483,0.010446339809710044,0.0040803826813497
6573.912371829406,0.009992053757954358,0.004105940614727551
6573.913371601328,0.009530754533763038,0.00412963144183984
6573.914371373251,0.009066256348161312,0.004151152084156076
6573.915371145174,0.008602622146530466,0.004170218513342738
6573.916370917097,0.0081441050135762,0.004186572448934224
6573.91737068902,0.007695086014780426,0.00419998838388951
6573.918370460942,0.00726000926271281,0.004210280813604029
6573.919370232865,0.006843315061691614,0.004217311440903743
6573.920370004787,0.0064493720541509295,0.004220995984274913
6573.92136977671,0.006082409364971474,0.0042213100826860965
6573.9223695486335,0.005746449803258772,0.00421829374468404
6573.923369320556,0.0054452452006609605,0.004212053869861608
6573.924369092479,0.005182214911556779,0.004202764546266268
6573.925368864401,0.004960388398070066,0.00419066503453296
6573.926368636324,0.0047823527485638465,0.004176055545169178
6573.927368408247,0.0046502059795644575,0.004159291076972272
6573.92836818017,0.004565517010865423,0.004140773686740855
6573.929367952092,0.004529293209996466,0.004120943589692387
6573.930367724015,0.004541956344566916,0.004100269472941828
6573.931367495938,0.0046033276694265384,0.004079238388993567
6573.932367267861,0.004712622721987857,0.004058345599524654
6573.933367039784,0.004868456210270326,0.004038084733258787
6573.934366811706,0.005068857164636772,0.004018938577222984
6573.935366583629,0.005311294295636689,0.004001370749189584
6573.936366355551,0.005592711265255108,0.0039858184261257245
6573.937366127474,0.005909571347450538,0.0039726862329017955
6573.9383658993975,0.006257910732544023,0.00396234132205952
6573.93936567132,0.006633399517788648,0.003955109601978538
6573.940365443243,0.007031409224442508,0.003951272995040172
6573.941365215165,0.007447085499479344,0.003951067526097069
6573.942364987088,0.007875424509694064,0.003954681975314575
6573.943364759011,0.008311351433686373,0.0039622568061989825
6573.944364530934,0.008749799429975008,0.003973883095084583
6573.945364302856,0.009185787515368962,0.0039896012203397046
6573.946364074779,0.009614495875836508,0.004009399127435749
6573.947363846702,0.010031337183395,0.004033210104403334
6573.948363618625,0.010432022520476801,0.00406091017782463
6573.949363390548,0.010812620624650954,0.004092315413172131
6573.95036316247,0.011169609439915712,0.004127179516498212
6573.951362934393,0.011499919350092244,0.004165192169081453
6573.952362706315,0.011800967854735021,0.004205978488522465
6573.953362478238,0.012070685729084816,0.004249099914090063
6573.9543622501615,0.01230753483041656,0.004294056687782725
6573.955362022084,0.012510517657503807,0.004340291979337464
6573.956361794007,0.012679178589094293,0.004387197617951789
6573.957361565929,0.012813596546531143,0.004434121368754178
6573.958361337852,0.012914368799323601,0.004480375712194384
6573.959361109775,0.012982585850915282,0.004525248096637653
6573.960360881698,0.01301979773277347,0.004568012592526054
6573.96136065362,0.01302797241388571,0.004607942771495179
6573.962360425543,0.013009447309502454,0.004644325491899737
6573.963360197466,0.012966875104024602,0.004676475146234077
6573.964359969389,0.012903165306389143,0.004703747867671088
6573.965359741312,0.012821423037880393,0.004725555205221678
6573.966359513234,0.012724886456731387,0.004741376811382931
6573.967359285157,0.012616864018589444,0.004750771699854928
6573.968359057079,0.012500672560909042,0.004753387628708716
6573.969358829003,0.012379577052969689,0.0047489681933993765
6573.9703586009255,0.012256732809057912,0.004737357337002392
6573.971358372848,0.012135131004265769,0.004718501228290067
6573.972358144771,0.012017548371669321,0.00469244775454372
6573.973357916693,0.011906501906816039,0.004659344090279417
6573.974357688616,0.01180420928066767,0.004619432849700075
6573.975357460539,0.011712555596271738,0.004573047245486109
6573.976357232462,0.011633067212463422,0.004520605555177337
6573.977357004384,0.01156689353097382,0.004462605092251217
6573.978356776307,0.01151479772576829,0.004399615784864384
6573.97935654823,0.01147715726059439,0.004332273366280356
6573.980356320153,0.011453974693313022,0.004261272088651629
6573.981356092076,0.011444898798936646,0.004187356815402058
6573.982355863998,0.011449255571741297,0.004111314357560907
6573.983355635921,0.011466088241806689,0.004033964003294048
6573.984355407843,0.011494205031740153,0.0039561473052579735
6573.985355179767,0.01153223293561528,0.0038787172673928104
6573.9863549516895,0.011578675320496973,0.0038025270774622714
6573.987354723612,0.011631970702027365,0.0037284184922577344
6573.988354495535,0.01169054978295664,0.003657209954361542
6573.989354267457,0.011752887908115586,0.003589684539806471
6573.99035403938,0.011817550434591423,0.0035265779022136275
6573.991353811303,0.011883228945614482,0.0034685664565451504
6573.992353583226,0.011948766692476255,0.0034162560965105546
6573.993353355148,0.012013172301085534,0.0033701717442030403
6573.994353127071,0.012075621747341277,0.0033307479920972266
6573.995352898994,0.01213544971585646,0.0032983210424492784
6573.996352670917,0.012192132357039318,0.003273122114724111
6573.99735244284,0.012245263912518855,0.0032552724973313536
6573.998352214762,0.012294529728856812,0.0032447804478746884
6573.999351986685,0.012339678023520914,0.0032415401558955363
6574.000351758607,0.012380492539435257,0.003245332947336579
6574.001351530531,0.012416767927724738,0.0032558308349830206
6574.0023513024535,0.012448289304684378,0.0032726024175701775
6574.003351074376,0.012474816960040403,0.0032951210070041224
6574.004350846299,0.012496076699960857,0.0033227747283314296
6574.005350618221,0.012511755839066923,0.0033548782187376807
6574.006350390144,0.012521504477915685,0.003390685481881569
6574.007350162067,0.012524941500155531,0.0034294034448558246
6574.00834993399,0.012521664717121867,0.0034702058085317746
6574.009349705912,0.012511264669991466,0.0035122468723422138
6574.010349477835,0.012493341607762642,0.003554675149955164
6574.011349249758,0.012467525023283821,0.0035966467366405205
6574.012349021681,0.012433494931087577,0.0036373384720205758
6574.013348793604,0.012391003934421474,0.003675960923659433
6574.014348565526,0.01233989906717482,0.003711771123386453
6574.015348337449,0.012280142320710898,0.0037440848734753016
6574.016348109371,0.012211828646898909,0.0037722883471122946
6574.017347881295,0.012135200156578992,0.0037958486635137536
6574.0183476532175,0.012050655313098799,0.003814323128662197
6574.01934742514,0.011958752198815934,0.0038273668792091174
6574.020347197063,0.011860205392008072,0.0038347387213584416
6574.021346968985,0.011755876543460138,0.0038363050019992358
6574.022346740909,0.01164675923813116,0.003832041388085472
6574.023346512831,0.011533959057851107,0.003822032474662755
6574.024346284754,0.011418669946977,0.003806469196898412
6574.025346056676,0.01130214812585911,0.0037856440782972674
6574.026345828599,0.011185684923552206,0.003759944401452405
6574.027345600522,0.011070579911055362,0.0037298434432708576
6574.028345372445,0.010958115500999833,0.0036958899659942125
6574.029345144368,0.010849533740222897,0.003658696186169245
6574.03034491629,0.01074601545913936,0.0036189244689763434
6574.031344688213,0.010648661407709786,0.0035772730419318995
6574.032344460135,0.010558474694166566,0.003534461091802342
6574.033344232059,0.010476343896532344,0.0034912136705245907
6574.0343440039815,0.0104030265523879,0.003448246851202401
6574.035343775904,0.010339133036231697,0.003406253532201074
6574.036343547827,0.010285110885326834,0.003365890217902128
6574.037343319749,0.010241229535752707,0.0033277650526460792
6574.038343091672,0.010207565445628022,0.003292427360269665
6574.039342863595,0.010183987847962005,0.0032603589237781986
6574.040342635518,0.010170145802615828,0.003231967204147997
6574.04134240744,0.010165457593850976,0.003207580630663548
6574.042342179363,0.010169103669932176,0.0031874460001614347
6574.043341951286,0.010180024222821655,0.0031717279258439467
6574.044341723209,0.010196922292889729,0.0031605102141482
6574.045341495132,0.010218273104952788,0.0031537990294539953
6574.046341267054,0.010242340222992197,0.0031515276989653234
6574.047341038977,0.010267198963324545,0.0031535629746472903
6574.048340810899,0.01029076725192292,0.003159712506061859
6574.049340582823,0.01031084375761425,0.003169733229088662
6574.0503403547455,0.010325152729359823,0.003183340376010621
6574.051340126668,0.010331394544904669,0.0032002168520954026
6574.052339898591,0.01032730055573938,0.003220022761928378
6574.053339670513,0.010310690427683799,0.0032424048803811004
6574.054339442437,0.010279529906167083,0.0032670058637982937
6574.055339214359,0.010231986871604667,0.0032934730195441075
6574.056338986282,0.010166483710993752,0.0033214665005735266
6574.057338758204,0.010081744308520067,0.0033506668308400985
6574.058338530127,0.009976834229146301,0.0033807816647733724
6574.05933830205,0.009851192956080635,0.003411551653651545
6574.060338073973,0.009704657448562018,0.0034427552836105908
6574.061337845896,0.009537476795239539,0.003474212597578796
6574.062337617818,0.009350318182657651,0.0035057877948208014
6574.063337389741,0.009144264627828675,0.0035373907615467836
6574.064337161663,0.00892080494759615,0.0035689775948689884
6574.065336933587,0.008681816384535303,0.003600550163847631
6574.0663367055095,0.008429540299802182,0.003632154743599666
6574.067336477432,0.00816655142394337,0.0036638797648934534
6574.068336249355,0.00789572130038616,0.003695852716035659
6574.069336021277,0.007620176679798267,0.0037282362054684836
6574.070335793201,0.007343253656151515,0.003761223168574053
6574.071335565123,0.007068448309922278,0.0037950312156139385
6574.072335337046,0.006799364645766425,0.003829896171057397
6574.073335108968,0.006539660725173881,0.0038660649117681174
6574.074334880891,0.0062929940327580425,0.003903787637965538
6574.075334652814,0.006062967179221158,0.003943309703432719
6574.076334424737,0.0058530749842708694,0.003984863105166863
6574.07733419666,0.005666653822059974,0.00402865770037507
6574.078333968582,0.00550683392754623,0.004074872204001539
6574.079333740505,0.00537649522663429,0.004123645064412721
6574.080333512427,0.005278227177780823,0.004175065431863218
6574.081333284351,0.00521429305801142,0.004229164570823428
6574.0823330562735,0.005186599056675702,0.00428590814894881
6574.083332828196,0.005196668461794093,0.0043451898375239835
6574.084332600119,0.005245621164882888,0.0044068266071625225
6574.085332372041,0.0053341586797972336,0.004470556027953784
6574.086332143965,0.0054625548586900215,0.004536035789266047
6574.087331915887,0.005630652487818009,0.0046028455340093866
6574.08833168781,0.005837865942629725,0.00467049096443555
6574.089331459732,0.006083190036130489,0.004738410052554003
6574.090331231655,0.006365215087370236,0.004805981114552845
6574.091331003578,0.006682148097709181,0.004872532502037158
6574.092330775501,0.007031839782518685,0.004937353699724405
6574.093330547424,0.007411817056410186,0.00499970764778907
6574.094330319346,0.007819320391281283,0.005058844092745141
6574.095330091269,0.008251345269007606,0.005114013721986819
6574.096329863191,0.008704686782400241,0.005164482786247609
6574.097329635115,0.009175986366291935,0.005209547885636281
6574.098329407037,0.009661779696924623,0.005248550593160802
6574.09932917896,0.010158544917247325,0.0052808916033503074
6574.100328950883,0.010662750394485054,0.005306044097280528
6574.101328722805,0.011170901096071368,0.005323565987505489
6574.102328494729,0.011679582379915,0.005333110671513593
6574.103328266651,0.012185499632259827,0.005334435942286413
6574.104328038574,0.012685511944766862,0.005327410789091859
6574.105327810496,0.013176658127960978,0.005312019890811587
6574.106327582419,0.013656173879662814,0.005288365589027623
6574.107327354343,0.014121499669545618,0.005256667075454943
6574.108327126265,0.014570279604254265,0.005217256561857497
6574.109326898188,0.015000352138336335,0.0051705723853648
6574.11032667011,0.015409734081697804,0.005117149271266404
6574.111326442033,0.015796599927690787,0.005057606203185824
6574.112326213955,0.016159258937861597,0.004992632474399783
6574.113325985879,0.016496132500324223,0.0049229725358906325
6574.114325757801,0.016805733990906856,0.004849410252990752
6574.115325529724,0.017086652838055896,0.00477275314311561
6574.116325301647,0.017337543901063658,0.004693817091718385
6574.117325073569,0.017557122703155216,0.004613411936574793
6574.118324845493,0.017744166534671646,0.004532328184256957
6574.119324617415,0.017897521031327832,0.004451325004341145
6574.120324389338,0.018016111647619612,0.004371119563803936
6574.12132416126,0.018098959461003913,0.004292377715607815
6574.122323933183,0.018145200786804348,0.004215706022419727
6574.123323705106,0.018154110058555,0.004141645076356576
6574.124323477029,0.01812512541719495,0.004070664085712046
6574.125323248952,0.01805787653713715,0.004003156741868025
6574.126323020874,0.017952214288983023,0.003939438423606015
6574.127322792797,0.01780824167485888,0.003879744809482512
6574.128322564719,0.01762634496962217,0.0038242319506560816
6574.129322336643,0.017407223303354518,0.00377297782040365
6574.130322108565,0.01715191434789304,0.003725985309664813
6574.131321880488,0.016861813617633833,0.0036831866013601836
6574.132321652411,0.016538685218506766,0.0036444488666153383
6574.133321424333,0.01618466246791235,0.003609581280229656
6574.134321196257,0.0158022374378195,0.003578343384140556
6574.135320968179,0.015394239132306838,0.0035504547703282836
6574.136320740102,0.014963800766092978,0.003525605910937279
6574.137320512024,0.014514317342306847,0.0035034697917492993
6574.138320283947,0.014049395188385083,0.003483713864053432
6574.139320055871,0.013572795223213715,0.003466011755846129
6574.140319827793,0.013088371697361744,0.0034500542043552056
6574.141319599716,0.012600008218403699,0.00343555879758241
6574.142319371638,0.012111553067892415,0.003422278298767417
6574.143319143561,0.011626755950150919,0.0034100074917353816
6574.144318915483,0.0111492082359354,0.0033985885697332898
6574.145318687407,0.010682288501454775,0.003387915095602009
6574.146318459329,0.010229114836533038,0.003377934525831696
6574.147318231252,0.009792505099237086,0.003368649261624147
6574.148318003175,0.009374946042830101,0.0033601161944198875
6574.149317775097,0.008978571982276765,0.0033524447475501897
6574.150317547021,0.008605153347409685,0.0033457934553485216
6574.151317318943,0.008256095090572908,0.0033403651508227827
6574.152317090866,0.007932444535037326,0.00333640085611654
6574.153316862788,0.007634907935401857,0.0033341724873407427
6574.154316634711,0.007363874800715413,0.0033339744957746366
6574.1553164066345,0.00711944886983269,0.003336114592605095
6574.156316178557,0.006901484468800833,0.003340903768511565
6574.15731595048,0.006709626798175205,0.0033486459013527215
6574.158315722402,0.00654335450919325,0.0033596272933131962
6574.159315494325,0.0064020227667678144,0.0033741064679714567
6574.160315266248,0.0062849049334202526,0.0033923045001149747
6574.161315038171,0.006191231139334755,0.003414396071613704
6574.162314810093,0.006120222348637997,0.003440501377041912
6574.163314582016,0.006071118950836097,0.003470678976831176
6574.164314353939,0.006043203237031199,0.0035049197190457817
6574.165314125861,0.006035815362517307,0.0035431418885844596
6574.166313897785,0.0060483626515850115,0.003585187756506924
6574.167313669707,0.006080322390655528,0.003630821684640627
6574.16831344163,0.006131238510262203,0.003679729904529468
6574.169313213552,0.006200712708436121,0.003731522048834086
6574.170312985475,0.006288390611406138,0.0037857344791844623
6574.171312757399,0.00639394354639191,0.003841835430756207
6574.172312529321,0.006517046481900573,0.0038992319681834396
6574.173312301244,0.006657352733812153,0.003957278704785848
6574.174312073166,0.006814466164463243,0.004015288175391524
6574.175311845089,0.006987911770601006,0.004072542677113067
6574.176311617011,0.007177105666158455,0.00412830730774899
6574.177311388935,0.007381325465414449,0.004181843849686444
6574.178311160857,0.007599682022486802,0.004232425078951318
6574.17931093278,0.007831093484015278,0.004279349027733741
6574.180310704703,0.008074262685688356,0.004321952714169647
6574.181310476625,0.008327659016159093,0.004359624915852514
6574.182310248549,0.008589505924403058,0.0043918177088097315
6574.183310020471,0.008857775210083988,0.0044180566569929245
6574.184309792394,0.009130189074689994,0.004437949634251741
6574.185309564316,0.00940423064103835,0.004451194254307571
6574.186309336239,0.009677163338847375,0.004457583797842245
6574.1873091081625,0.009946059252448649,0.004457011417010261
6574.188308880085,0.010207836225033138,0.004449472330719404
6574.189308652008,0.01045930318748785,0.0044350637445594735
6574.19030842393,0.010697212823520154,0.004413982336923474
6574.191308195853,0.010918320300385451,0.00438651930233318
6574.192307967776,0.011119446387015845,0.004353053086576152
6574.193307739699,0.011297542870051781,0.004314040063220482
6574.194307511621,0.011449757851102053,0.004270003475111964
6574.195307283544,0.01157349841407292,0.0042215209943630904
6574.196307055467,0.011666488371223143,0.004169211268533737
6574.197306827389,0.011726819213990613,0.004113719865192444
6574.198306599313,0.011752992793591703,0.004055705108197127
6574.199306371235,0.011743954571887746,0.003995824360987003
6574.200306143158,0.01169911664304575,0.003934721293530776
6574.20130591508,0.011618370243571766,0.0038730145698322137
6574.202305687003,0.011502088091508997,0.003811288261435194
6574.203305458927,0.01135111745471155,0.003750084166283087
6574.204305230849,0.011166765169934754,0.0036898960915376254
6574.205305002772,0.010950775843830278,0.003631166037831661
6574.206304774694,0.010705304231573095,0.003574282121866005
6574.207304546617,0.010432882469699723,0.003519578027018547
6574.20830431854,0.01013638258934543,0.0034673337763683164
6574.209304090463,0.009818974644422213,0.003417777638626115
6574.210303862385,0.009484080895055182,0.0033710889806360575
6574.211303634308,0.009135326774330498,0.003327401889277632
6574.212303406231,0.008776489730332926,0.0032868094132519903
6574.213303178153,0.008411447306885865,0.0032493682919157076
6574.214302950077,0.00804412588561606,0.0032151040129527035
6574.215302721999,0.007678451357614661,0.003184015988036969
6574.216302493922,0.007318302700907509,0.0031560826052998074
6574.217302265844,0.006967469094950717,0.0031312659480183737
6574.218302037767,0.006629610883440577,0.0031095160570191417
6574.2193018096905,0.006308224471845128,0.003090774719192302
6574.220301581613,0.006006611136715317,0.0030749788441670773
6574.221301353536,0.005727849676875272,0.0030620635357413804
6574.222301125458,0.0054747727823283195,0.0030519649885639598
6574.223300897381,0.005249946914746908,0.0030446233447838397
6574.224300669304,0.005055655407276498,0.0030399856087600058
6574.225300441227,0.004893884430011576,0.0030380086333506844
6574.226300213149,0.004766311445025316,0.0030386620915911692
6574.227299985072,0.004674295793406276,0.003041931282234233
6574.228299756995,0.0046188711241384635,0.003047819607753129
6574.229299528917,0.0046007395073618795,0.003056350587051374
6574.230299300841,0.004620267266997732,0.0030675692880622156
6574.231299072763,0.004677482765315302,0.0030815430742111506
6574.232298844686,0.004772076495422748,0.003098361558314268
6574.233298616608,0.004903403841129096,0.0031181356552512723
6574.234298388531,0.005070490766459446,0.0031409956292862817
6574.235298160455,0.005272042562745872,0.0031670880529988134
6574.236297932377,0.005506455670757994,0.0031965716309363627
6574.2372977043,0.005771832540816683,0.003229611878981643
6574.238297476222,0.006065999508658705,0.003266374689193472
6574.239297248145,0.006386527748857466,0.003307018865253336
6574.240297020068,0.006730757481919746,0.0033516877841496683
6574.241296791991,0.007095825680030949,0.0034005004010108342
6574.242296563913,0.007478697482997675,0.0034535418555599684
6574.243296335836,0.007876201400855706,0.003510853969928519
6574.244296107759,0.008285068176239642,0.0035724259521318497
6574.245295879682,0.008701972931163093,0.0036381856362554415
6574.246295651605,0.009123579930966876,0.0037079916032792663
6574.247295423527,0.009546588961470709,0.003781626530136607
6574.24829519545,0.009967781966477771,0.003858792094066485
6574.249294967372,0.01038406832395225,0.0039391057157871475
6574.250294739295,0.010792527041815908,0.0040220993769375865
6574.2512945112185,0.011190444210517516,0.004107220700671864
6574.252294283141,0.01157534416325425,0.00419383642150634
6574.253294055064,0.01194501294967201,0.0042812382713331085
6574.254293826986,0.01229751300833912,0.004368651174194151
6574.255293598909,0.012631188363953171,0.004455243496166129
6574.256293370832,0.012944660216564818,0.004540138968423005
6574.257293142755,0.013236813359093743,0.004622429820347598
6574.258292914677,0.013506774387278214,0.004701190650936155
6574.2592926866,0.013753883051150153,0.004775492637063804
6574.260292458523,0.01397765828602024,0.004844417801052272
6574.261292230445,0.014177760557406834,0.004907073191112587
6574.262292002369,0.014353952333606904,0.004962604920073825
6574.263291774291,0.014506058799773226,0.0050102120313948425
6574.264291546214,0.01463393118271735,0.005049160121050717
6574.265291318136,0.014737415056137978,0.005078794574252234
6574.266291090059,0.014816325678099507,0.005098553214771339
6574.267290861983,0.014870431873912482,0.005107978126973836
6574.268290633905,0.014899449364409859,0.005106726388369871
6574.269290405828,0.014903043875017025,0.005094579427774556
6574.27029017775,0.014880843911727431,0.0050714506924664
6574.271289949673,0.014832462720038023,0.005037391278361698
6574.272289721596,0.014757528541671895,0.004992593181999487
6574.273289493519,0.014655721794748264,0.004937389898400379
6574.274289265441,0.014526817277046118,0.004872254205882046
6574.275289037364,0.014370729002577983,0.004797793109387299
6574.276288809287,0.01418755488333644,0.004714740027774978
6574.27728858121,0.013977618266560066,0.004623944410450605
6574.278288353133,0.01374150345284288,0.004526359071194192
6574.279288125055,0.01348008270615903,0.004423025628309746
6574.280287896978,0.013194532739576438,0.004315058509361213
6574.2812876689,0.012886339184705348,0.004203627985394396
6574.282287440823,0.01255728829940152,0.004089942646444407
6574.2832872127465,0.01220944619541039,0.0039752316497294535
6574.284286984669,0.011845126931871496,0.0038607269919337705
6574.285286756592,0.01146685159022502,0.0037476459924498107
6574.286286528514,0.011077300793741472,0.0036371741524555004
6574.287286300437,0.010679263169269565,0.0035304486010094165
6574.28828607236,0.010275582131402408,0.0034285424261289764
6574.289285844283,0.009869103174196269,0.0033324502430158343
6574.290285616205,0.009462623594790784,0.0032430753330779756
6574.291285388128,0.009058846271949866,0.0031612186225429117
6574.292285160051,0.008660338823010243,0.003087569702872414
6574.293284931974,0.008269499184849224,0.003022700040105831
6574.294284703897,0.007888528393946681,0.0029670584602860695
6574.295284475819,0.00751941105863875,0.0029209689169398417
6574.296284247742,0.007163903727753791,0.002884630448101266
6574.297284019664,0.006823531085981189,0.002858119138176096
6574.298283791587,0.006499589669406672,0.0028413918412887595
6574.299283563511,0.0061931585984452,0.002834291407005312
6574.300283335433,0.005905116639879812,0.0028365531621443838
6574.301283107356,0.005636164697909906,0.002847812426096683
6574.302282879278,0.005386852606290776,0.002867612868635892
6574.303282651201,0.005157608901462018,0.002895415561770499
6574.304282423124,0.004948772130895639,0.0029306086255910207
6574.305282195047,0.004760622180331239,0.0029725174065313455
6574.306281966969,0.004593410080687447,0.0030204151347029314
6574.307281738892,0.004447384813303179,0.003073533976766958
6574.308281510815,0.004322815801343038,0.0031310763478104137
6574.309281282738,0.004220010019783465,0.0031922262930605284
6574.310281054661,0.004139322915806816,0.003256160711147758
6574.311280826583,0.004081162617694227,0.003322060177234631
6574.312280598506,0.004045987268890391,0.00338911915241747
6574.313280370428,0.004034295706694489,0.0034565554337788102
6574.314280142351,0.004046611994081079,0.003523618776166725
6574.3152799142745,0.004083464459673493,0.0035895986653667156
6574.316279686197,0.004145359955835268,0.0036538312400214443
6574.31727945812,0.004232754086924248,0.003715705381854391
6574.318279230042,0.004346018244461806,0.0037746680409564124
6574.319279001965,0.004485404418296989,0.0038302288976770587
6574.320278773888,0.004651008880940278,0.003881964431448273
6574.321278545811,0.004842735908095507,0.0039295213722057324
6574.322278317733,0.005060262700986468,0.003972619407446007
6574.323278089656,0.005303006666792983,0.004011052952413535
6574.324277861579,0.005570096229504996,0.004044691771119134
6574.325277633502,0.005860346356962642,0.004073480263268496
6574.326277405425,0.006172239934254108,0.004097435311501712
6574.327277177347,0.006503915957702227,0.004116642690304405
6574.32827694927,0.006853165304321757,0.00413125211542885
6574.329276721192,0.007217434616752842,0.0041414710267108955
6574.330276493116,0.007593838675259955,0.004147557174302001
6574.331276265039,0.007979181491071791,0.004149810070969161
6574.332276036961,0.008369986188005331,0.004148561409659932
6574.333275808884,0.008762533487481329,0.004144164627675932
6574.334275580806,0.009152908272598594,0.004136983922292647
6574.335275352729,0.009537053322497014,0.004127383168151125
6574.336275124652,0.009910828947838375,0.004115715297719189
6574.337274896575,0.010270077015451542,0.004102312717198474
6574.338274668497,0.010610687798307797,0.004087479229216288
6574.33927444042,0.010928668181238384,0.004071483771338719
6574.340274212343,0.011220209825308155,0.004054556121037905
6574.341273984266,0.011481755818942056,0.004036884603354305
6574.342273756189,0.011710064188664862,0.004018615770623934
6574.343273528111,0.011902266598246947,0.003999855972147001
6574.344273300034,0.01205592075338901,0.003980674652096781
6574.345273071956,0.01216905540795663,0.0039611090905460715
6574.34627284388,0.0122402072894729,0.003941170164644189
6574.3472726158025,0.012268449573338874,0.003920848614736713
6574.348272387725,0.012253411649078576,0.003900121307039535
6574.349272159648,0.012195289836294636,0.003878957098435583
6574.35027193157,0.012094848511132253,0.0038573220847877565
6574.351271703493,0.011953410991073218,0.00383518418110241
6574.352271475416,0.011772839734535604,0.003812517088917384
6574.353271247339,0.011555506002135656,0.003789303755421471
6574.354271019261,0.011304249860332776,0.0037655394527312145
6574.355270791184,0.011022331980665977,0.0037412346133294454
6574.356270563107,0.01071337902136314,0.003716417533451185
6574.35727033503,0.01038132456643008,0.003691137002698908
6574.358270106953,0.010030347667036211,0.0036654648558037397
6574.359269878875,0.009664810915323901,0.003639498379354309
6574.360269650798,0.009289199669651093,0.0036133624437204056
6574.36126942272,0.00890806363377053,0.0035872111857964606
6574.362269194644,0.00852596158970505,0.003561229062527219
6574.363268966567,0.008147409775890074,0.0035356311193157366
6574.364268738489,0.0077768342148049835,0.0035106623368551773
6574.365268510412,0.007418527199077758,0.0034865959247314697
6574.366268282334,0.007076608075744615,0.003463730459034505
6574.367268054257,0.006754988372399408,0.0034423858484541946
6574.36826782618,0.006457341182811164,0.0034228982277144933
6574.369267598103,0.0061870745961876365,0.0034056139536666518
6574.370267370025,0.005947308833717788,0.003390882897716234
6574.371267141948,0.005740856672073623,0.003379051217607913
6574.372266913871,0.005570206712940325,0.0033704537790453636
6574.373266685794,0.00543750910032152,0.0033654063966878007
6574.374266457717,0.005344563356490524,0.003364198084939868
6574.375266229639,0.005292808061250661,0.0033670835436887927
6574.376266001562,0.005283312128674161,0.0033742761271691483
6574.377265773484,0.005316767468529822,0.0033859415388636876
6574.378265545408,0.005393482878300504,0.0034021924591599744
6574.3792653173305,0.005513379075226096,0.0034230842511015136
6574.380265089253,0.0056759848168525555,0.0034486118231575372
6574.381264861176,0.005880434091694379,0.00347870767608622
6574.382264633098,0.0061254644441285045,0.003513241116627264
6574.383264405022,0.006409416669212877,0.0035520185683297206
6574.384264176944,0.006730236367726665,0.0035947848682225223
6574.385263948867,0.007085478135662954,0.003641225453586562
6574.386263720789,0.007472313395212478,0.0036909694262341267
6574.387263492712,0.007887542985133411,0.003743593575992446
6574.388263264635,0.008327615590250593,0.003798627482757923
6574.389263036558,0.008788652932962954,0.0038555597834987153
6574.390262808481,0.009266482429543376,0.003913845616684653
6574.391262580403,0.0097566777521199,0.003972915168613085
6574.392262352326,0.010254607408909102,0.004032183150338698
6574.393262124248,0.010755491042457889,0.004091058930837986
6574.394261896172,0.011254462681890618,0.004148956959519918
6574.395261668095,0.01174663973714283,0.0042053070677851535
6574.396261440017,0.012227196130347739,0.004259564273775578
6574.39726121194,0.01269143760769496,0.004311217813774386
6574.398260983862,0.013134876962351244,0.004359799236406659
6574.399260755785,0.013553306722717517,0.0044048894655529325
6574.400260527708,0.013942866955066099,0.004446124739361824
6574.401260299631,0.014300106172799427,0.004483201289186382
6574.402260071553,0.014622033710940428,0.0045158785947670916
6574.403259843476,0.014906162120507506,0.0045439810930929005
6574.404259615399,0.015150538222540453,0.004567398324063384
6574.405259387322,0.015353761657658543,0.004586083615136784
6574.406259159245,0.015514990196664122,0.004600051489813081
6574.407258931167,0.015633931665643457,0.004609374004433329
6574.40825870309,0.015710822949769408,0.004614176176475735
6574.409258475012,0.015746397144773973,0.004614630614748068
6574.410258246936,0.01574184057345433,0.004610951468499138
6574.4112580188585,0.01569874200876078,0.004603387883736357
6574.412257790781,0.01561903682700015,0.00459221720688197
6574.413257562704,0.015504948835637626,0.0045777381377730695
6574.414257334626,0.015358932299397648,0.004560263942467286
6574.41525710655,0.015183616393927147,0.004540115795223239
6574.416256878472,0.014981753983280588,0.004517616386914098
6574.417256650395,0.014756176212447406,0.004493084068748781
6574.418256422317,0.014509753954253827,0.004466827888105802
6574.41925619424,0.014245366731025453,0.004439143841016015
6574.420255966163,0.013965879379271733,0.0044103125207026524
6574.421255738086,0.013674126376494148,0.004380598146981198
6574.422255510009,0.013372903307136095,0.004350248781115943
6574.423255281931,0.013064964381295271,0.0043194973994802105
6574.424255053854,0.012753024325231939,0.004288563416681732
6574.425254825776,0.012439762544109055,0.0042576542004264745
6574.4262545977,0.012127827419480127,0.00422696611878817
6574.427254369623,0.011819838925879999,0.004196684742771958
6574.428254141545,0.011518388157077002,0.004166983995365548
6574.429253913468,0.011226032611491134,0.0041380242369239645
6574.43025368539,0.010945286252045557,0.0041099494442024265
6574.431253457314,0.010678603640411125,0.004082883751484706
6574.432253229236,0.010428357943275903,0.004056927674196107
6574.433253001159,0.010196813200754344,0.004032154328031332
6574.434252773081,0.009986091729487227,0.004008605900516557
6574.435252545004,0.00979813780396837,0.0039862905610264735
6574.436252316927,0.009634678887868496,0.00396517995573428
6574.43725208885,0.009497185786691335,0.003945207448874304
6574.438251860773,0.009386833185015132,0.0039262673169598375
6574.439251632695,0.009304462070680966,0.003908215127179799
6574.440251404618,0.009250545510271931,0.0038908695038616763
6574.44125117654,0.009225159123749091,0.0038740154139367895
6574.442250948464,0.009227957419438153,0.0038574089998288396
6574.4432507203865,0.009258156939349447,0.003840783858693041
6574.444250492309,0.009314527001640174,0.003823858516680169
6574.445250264232,0.009395388744299349,0.003806344714447896
6574.446250036154,0.009498623125177012,0.0037879560719368257
6574.447249808078,0.009621688428872519,0.0037684167776983976
6574.44824958,0.009761647608821575,0.0037474701082126512
6574.449249351923,0.009915205459471475,0.003724886717074742
6574.450249123845,0.010078755227989627,0.003700472660568598
6574.451248895768,0.010248433891749948,0.0036740770474254863
6574.452248667691,0.010420184951502839,0.003645599076207867
6574.453248439614,0.01058982720224843,0.0036149941248476494
6574.454248211537,0.010753127563150588,0.0035822785439340284
6574.455247983459,0.010905875744707123,0.0035475329005983484
6574.456247755382,0.011043958404696609,0.0035109035807213314
6574.457247527304,0.011163430575363365,0.003472602803273136
6574.458247299228,0.011260582502513656,0.0034329071794053593
6574.459247071151,0.01133200045272491,0.003392154968172374
6574.460246843073,0.011374620375089042,0.0033507421826028073
6574.461246614996,0.011385773599594834,0.0033091177122117348
6574.462246386918,0.01136322415874785,0.003267777641415866
6574.463246158842,0.011305197843897436,0.0032272589349553703
6574.464245930764,0.011210403596136391,0.003188132629618439
6574.465245702687,0.011078048104965937,0.0031509966353899777
6574.466245474609,0.010907844464688482,0.003116468227380011
6574.467245246532,0.01070001544736149,0.0030851763030948585
6574.468245018456,0.010455291509790014,0.0030577534686741415
6574.469244790378,0.010174903253203854,0.0030348279914081807
6574.470244562301,0.009860567901322602,0.00301701562928588
6574.471244334223,0.00951446953554651,0.003004911335623689
6574.472244106146,0.009139233209801912,0.002999080831708262
6574.473243878068,0.008737893447077023,0.003000052040556379
6574.474243649992,0.008313857844007191,0.0030083063938534833
6574.4752434219145,0.007870866567595497,0.0030242700694548715
6574.476243193837,0.0074129485056723034,0.003048305280995902
6574.47724296576,0.006944374822208375,0.003080701811224334
6574.478242737682,0.006469610695703691,0.003121669041613375
6574.479242509606,0.0059932660317966804,0.003171328765524005
6574.480242281528,0.0055200458667166614,0.003229709066531312
6574.481242053451,0.005054700997965059,0.0032967394954854126
6574.482241825373,0.004601979156495795,0.00337224770735947
6574.483241597296,0.0041665768716252945,0.00345595764953557
6574.484241369219,0.0037530921377791214,0.0035474893395091535
6574.485241141142,0.0033659780489823724,0.003646360225027372
6574.486240913065,0.003009497642260196,0.003751988076983883
6574.487240684987,0.0026876802169699555,0.00386369532739618
6574.48824045691,0.002404279366784989,0.003980714730126523
6574.489240228832,0.0021627329177571677,0.00410219618700985
6574.490240000756,0.001966124957149793,0.004227214558619515
6574.491239772679,0.0018171501795522802,0.0043547782906680176
6574.492239544601,0.001718080847542569,0.004483838744216418
6574.493239316524,0.0016707367252218972,0.0046133002020545015
6574.494239088446,0.0016764583666617765,0.004742030594722977
6574.49523886037,0.0017360841244243362,0.004868873012258331
6574.496238632292,0.0018499312012286153,0.0049926580354217025
6574.497238404215,0.002017781018788427,0.00511221685317904
6574.498238176137,0.0022388691322282293,0.005226395057937249
6574.49923794806,0.002511879883873352,0.005334066939936908
6574.500237719984,0.0028349459784365915,0.005434150033864539
6574.501237491906,0.003205653180694557,0.0055256196035772505
6574.502237263829,0.003621050380066643,0.005607522704042216
6574.503237035751,0.004077665313562207,0.005678991457647081
6574.504236807674,0.004571526263082465,0.0057392552340623584
6574.505236579596,0.005098190031025488,0.005787651523129742
6574.50623635152,0.005652776465595863,0.005823635416400767
6574.507236123442,0.006230009780296614,0.005846787717304207
6574.508235895365,0.006824266882815554,0.005856821734876632
6574.509235667288,0.007429632860500211,0.00585358877989273
6574.51023543921,0.008039963646945427,0.005837082312859732
6574.511235211134,0.00864895572708663,0.005807440614227163
6574.512234983056,0.009250222528672426,0.005764947758425954
6574.513234754979,0.009837376886585598,0.005710032598548397
6574.514234526901,0.01040411865282728,0.005643265463343985
6574.515234298824,0.010944326173263715,0.005565352361390525
6574.516234070748,0.011452149982984461,0.0054771266408285176
6574.51723384267,0.011922106697097125,0.005379538203086427
6574.518233614593,0.012349170689673025,0.005273640492534562
6574.519233386515,0.01272886077954705,0.005160575604782797
6574.520233158438,0.013057318881789463,0.005041557984578728
6574.521232930361,0.013331377612936101,0.004917857275563639
6574.522232702284,0.01354861425998781,0.0047907808832216466
6574.523232474206,0.013707389224030853,0.004661656719629329
6574.524232246129,0.013806867749008096,0.0045318164637927205
6574.525232018052,0.013847024262064486,0.004402579541276455
6574.526231789974,0.013828629106246543,0.004275237926537998
6574.527231561898,0.013753218130620116,0.004151041812414632
6574.52823133382,0.013623046615000514,0.004031186173279382
6574.529231105743,0.013441030092709208,0.003916798260641009
6574.530230877665,0.01321067540112111,0.003808926092467492
6574.531230649588,0.012936005510136895,0.0037085280042322825
6574.532230421512,0.01262148140127688,0.003616463310680196
6574.533230193434,0.012271923700326476,0.003533484104420777
6574.534229965357,0.011892436106717592,0.0034602282176622863
6574.535229737279,0.011488332046006557,0.0033972133964487025
6574.536229509202,0.011065065458037178,0.0033448327583591357
6574.537229281124,0.01062816621156797,0.003303351599520443
6574.538229053048,0.01018318026836958,0.003272905583270408
6574.53922882497,0.009735614424608605,0.003253500308201975
6574.540228596893,0.009290885312052698,0.003245012242915273
6574.541228368816,0.00885427237417794,0.003247191027295059
6574.542228140738,0.00843087464880559,0.0032596631635017515
6574.543227912662,0.008025571237616463,0.0032819371454914557
6574.544227684584,0.007642985242668232,0.0033134100916466236
6574.545227456507,0.00728745075571797,0.0033533759396927863
6574.546227228429,0.006962982331981137,0.003401035235312655
6574.547227000352,0.006673246365690334,0.003455506497724509
6574.548226772276,0.006421533919428868,0.0035158390774662394
6574.549226544198,0.006210734788802052,0.003581027338643965
6574.550226316121,0.006043312845482735,0.0036500259073674077
6574.551226088043,0.00592128294973122,0.003721765631127624
6574.552225859966,0.005846189919763105,0.00379516978897254
6574.553225631889,0.005819090147115864,0.0038691699971272328
6574.554225403812,0.005840536425917375,0.003942721216767165
6574.555225175734,0.005910566423191229,0.004014815333675913
6574.556224947657,0.006028694994063643,0.004084492942646807
6574.55722471958,0.00619391032121686,0.004150853197979427
6574.558224491502,0.006404673755032873,0.004213061836399379
6574.559224263426,0.0066589233472163015,0.004270357666628955
6574.560224035348,0.006954081384845003,0.004322057881609642
6574.561223807271,0.00728706659587334,0.004367562492475076
6574.562223579193,0.007654311948194463,0.004406358090912694
6574.563223351116,0.008051789035172752,0.004438021086966892
6574.56422312304,0.008475039955096164,0.004462220535307672
6574.565222894962,0.008919217392409437,0.004478720608316303
6574.566222666885,0.009379133321386625,0.0044873826789663595
6574.567222438807,0.009849316411095207,0.004488166854595495
6574.56822221073,0.010324077875193953,0.004481132682293708
6574.569221982653,0.010797585243241143,0.0044664386658398525
6574.570221754576,0.011263943339367477,0.004444340225163165
6574.571221526498,0.011717281590090188,0.004415185795259907
6574.572221298421,0.012151846591727132,0.004379410890055705
6574.573221070344,0.012562098609884113,0.004337530140325829
6574.574220842266,0.012942810325502931,0.004290127527091171
6574.57522061419,0.013289165693722097,0.004237845206848198
6574.576220386112,0.01359685633176938,0.004181371397265957
6574.577220158035,0.013862172515692354,0.004121427755312564
6574.578219929957,0.014082085705990718,0.004058756593341939
6574.57921970188,0.014254319552810446,0.00399410821842609
6574.580219473804,0.014377406566417077,0.003928228675088688
6574.581219245726,0.01445072806715655,0.003861848182292058
6574.582219017649,0.01447453555097353,0.0037956705271052684
6574.583218789571,0.014449952110906628,0.003730363603224532
6574.584218561494,0.01437895308921799,0.0036665511991473745
6574.585218333417,0.01426432587013955,0.003604806081360089
6574.58621810534,0.014109609705022494,0.003545644387499047
6574.587217877262,0.013919017486549664,0.003489521322790562
6574.588217649185,0.013697342161057514,0.003436828115116739
6574.589217421108,0.013449850825792574,0.003387890131545493
6574.59021719303,0.0131821695479125,0.0033429660224010694
6574.591216964954,0.012900161748032785,0.0033022477620371256
6574.592216736876,0.012609802818256391,0.003265861495081005
6574.593216508799,0.012317053613459826,0.003233869151344224
6574.594216280721,0.012027735545143022,0.0032062708366872397
6574.595216052644,0.011747410102945659,0.0031830080262083963
6574.596215824568,0.011481265622147022,0.0031639675855134938
6574.59721559649,0.011234013965915623,0.00314898664098994
6574.598215368413,0.011009799507873064,0.0031378583162264212
6574.599215140335,0.01081212240826399,0.00313033833875257
6574.600214912258,0.010643777714239107,0.0031261524857166822
6574.601214684181,0.010506811336819783,0.0031250047756591188
6574.602214456104,0.010402493508808872,0.0031265862385960303
6574.603214228026,0.010331309917875018,0.0031305840329517412
6574.604213999949,0.010292970320131547,0.003136690645975447
6574.605213771872,0.010286434055536763,0.0031446129131028006
6574.606213543795,0.01030995150617708,0.003154080602944295
6574.607213315718,0.010361120164723119,0.003164854319977635
6574.60821308764,0.010436953601073056,0.003176732469005116
6574.609212859563,0.010533961222523052,0.00318955701358837
6574.610212631485,0.010648236364593024,0.0032032177710446296
6574.611212403408,0.010775550042584554,0.0032176550392592268
6574.612212175332,0.0109114477473122,0.0032328604366858933
6574.613211947254,0.0110513469606774,0.0032488759304965037
6574.614211719177,0.011190633417877061,0.003265791108373471
6574.615211491099,0.011324754360053505,0.0032837387994063055
6574.616211263022,0.01144930705542088,0.0033028891590011753
6574.617211034945,0.011560120810244507,0.0033234423250275797
6574.618210806868,0.011653330682349184,0.0033456197754808737
6574.61921057879,0.011725441268357301,0.0033696545922320313
6574.620210350713,0.011773379320699568,0.003395780930076116
6574.621210122636,0.01179453453017754,0.0034242230601312933
6574.622209894558,0.011786788444963558,0.0034551843851099787
6574.623209666482,0.011748531983906586,0.003488836816481652
6574.624209438404,0.011678672222438883,0.003525310863049643
6574.625209210327,0.011576629156540529,0.003564686711517256
6574.626208982249,0.011442323156393746,0.0036069864960196233
6574.627208754172,0.011276153922110095,0.003652167874555726
6574.628208526096,0.011078971972945977,0.003700118986822407
6574.629208298018,0.010852043992454482,0.0037506548879785813
6574.630208069941,0.010597013593967142,0.0038035156110846464
6574.631207841863,0.010315859114809754,0.00385836603336315
6574.632207613786,0.010010849846286383,0.003914797667442688
6574.633207385709,0.009684501788525158,0.0039723324076660045
6574.634207157632,0.009339533793655612,0.004030428204025995
6574.635206929554,0.0089788249272819,0.004088486636789268
6574.636206701477,0.008605373947366076,0.004145862377576206
6574.6372064734,0.008222261806437056,0.0042018744815746955
6574.638206245323,0.007832617951612398,0.004255819339917072
6574.639206017246,0.007439590972568267,0.004306984968796444
6574.640205789168,0.007046323901788248,0.004354666180317365
6574.641205561091,0.006655934226273518,0.004398180098899589
6574.642205333013,0.006271498412776697,0.004436881447035791
6574.643205104936,0.005896040483352208,0.004470177016622885
6574.64420487686,0.005532523949237089,0.0044975387830011974
6574.645204648782,0.00518384627564616,0.004518515217429632
6574.646204420705,0.004852835021490056,0.004532740495001929
6574.647204192627,0.004542244840343138,0.004539941466467153
6574.64820396455,0.004254754601689551,0.004539942449087841
6574.649203736473,0.003992963965843539,0.004532668043009947
6574.650203508396,0.0037593888020516623,0.004518144234604409
6574.651203280318,0.003556454886645428,0.004496497997877467
6574.652203052241,0.003386489388328735,0.004467955498660245
6574.653202824164,0.0032517097511338263,0.00443283889821348
6574.654202596087,0.0031542097061642367,0.004391561663146809
6574.65520236801,0.0030959422639648773,0.0043446222191896216
6574.656202139932,0.0030786996480950952,0.0042925957623687165
6574.657201911855,0.003104090222114717,0.004236124109053039
6574.658201683777,0.0031735125473692383,0.0041759036346808946
6574.6592014557,0.0032881268019114944,0.004112671557690882
6574.660201227624,0.0034488238926230637,0.004047190994603419
6574.661200999546,0.0036561927073226756,0.003980235318260968
6574.662200771469,0.003910486100958083,0.003912572403550609
6574.663200543391,0.004211586386833853,0.003844949355282307
6574.664200315314,0.0045589712706745064,0.003778078289258786
6574.665200087237,0.004951681305965138,0.003712623677605767
6574.66619985916,0.005388290084727973,0.003649191662865691
6574.667199631082,0.005866878494931825,0.003588321598390568
6574.668199403005,0.0063850144169029606,0.00353047991516216
6574.669199174928,0.006939739175130616,0.003476056281301007
6574.670198946851,0.007527561943729017,0.0034253619342684053
6574.671198718774,0.008144463160846431,0.0033786300381423505
6574.672198490696,0.008785907848062043,0.0033360179384208863
6574.673198262619,0.009446869540796736,0.003297611220342288
6574.674198034541,0.010121865297518776,0.00326342949230443
6574.675197806464,0.010805001978664682,0.0032334338077442994
6574.676197578388,0.011490033709688811,0.0032075356102718488
6574.67719735031,0.012170430194902859,0.0031856070319259944
6574.678197122233,0.012839455325403738,0.003167492295754014
6574.679196894155,0.013490255309016496,0.0031530198964118943
6574.680196666078,0.014115955329127452,0.003142015175533889
6574.681196438001,0.014709763500025364,0.003134312863000408
6574.682196209924,0.015265080623939801,0.0031297691048168814
6574.683195981846,0.015775613965585914,0.0031282724495554576
