Time,Filtered_ECG
6804.624445165093,0.00104385282991987
6804.625444937308,0.0010258369393555777
6804.626444709524,0.001005995492042896
6804.627444481738,0.0009843205785430007
6804.628444253954,0.0009608048877526191
6804.629444026169,0.0009354417160544856
6804.6304437983845,0.0009082249762875146
6804.6314435706,0.0008791492065289338
6804.632443342814,0.0008482095786809396
6804.63344311503,0.000815401906854837
6804.634442887245,0.000780722655546067
6804.635442659461,0.0007441689475939678
6804.636442431676,0.000705738571920529
6804.637442203892,0.0006654299910427588
6804.638441976106,0.0006232423483535721
6804.639441748322,0.0005791754751663205
6804.640441520537,0.0005332298975182194
6804.6414412927525,0.0004854068427280266
6804.642441064968,0.0004357082457034186
6804.643440837182,0.00038413675499365487
6804.644440609398,0.0003306957385833214
6804.645440381613,0.0002753892894232211
6804.646440153829,0.00021822223069479057
6804.647439926044,0.00015920012080474714
6804.64843969826,9.832925810697752e-05
6804.649439470474,3.561668534895057e-05
6804.65043924269,-2.892980615982029e-05
6804.651439014905,-9.530167265950153e-05
6804.65243878712,-0.00016348961433382468
6804.653438559336,-0.00023348357198781322
6804.65443833155,-0.00030527272401074127
6804.655438103766,-0.00037884548362546915
6804.656437875981,-0.0004541894964251494
6804.657437648197,-0.0005312916381982573
6804.658437420412,-0.0006101380130429844
6804.659437192627,-0.0006907139517722013
6804.660436964842,-0.0007730040106104236
6804.661436737058,-0.0008569919701844464
6804.662436509273,-0.0009426608348095208
6804.663436281488,-0.0010299928320730899
6804.664436053703,-0.0011189694127181926
6804.665435825918,-0.001209571250828645
6804.666435598134,-0.0013017782443180692
6804.667435370349,-0.001395569515724741
6804.668435142565,-0.001490923413314104
6804.66943491478,-0.00158781751249065
6804.670434686995,-0.0016862286175206897
6804.67143445921,-0.0017861327635673302
6804.6724342314255,-0.0018875052190387306
6804.673434003641,-0.001990320488250471
6804.674433775856,-0.002094552314402658
6804.675433548071,-0.002200173682872245
6804.676433320286,-0.0023071568248209996
6804.677433092502,-0.0024154732211195745
6804.678432864717,-0.002525093606588244
6804.679432636933,-0.002635987974554995
6804.680432409148,-0.0027481255817318213
6804.681432181363,-0.002861474953410211
6804.682431953578,-0.002976003888976945
6804.6834317257935,-0.003091679467751375
6804.684431498009,-0.0032084680551454233
6804.685431270224,-0.0033263353091474816
6804.686431042439,-0.0034452461871313234
6804.687430814654,-0.0035651649529910125
6804.68843058687,-0.0036860551846025972
6804.689430359085,-0.0038078797816131767
6804.690430131301,-0.003930600973557658
6804.691429903516,-0.004054180328303193
6804.692429675731,-0.0041785787608208625
6804.693429447946,-0.004303756542283706
6804.6944292201615,-0.004429673309489636
6804.695428992377,-0.004556288074607305
6804.696428764592,-0.004683559235242561
6804.697428536807,-0.004811444584822765
6804.698428309022,-0.0049399013232960904
6804.699428081238,-0.0050688860681427726
6804.700427853453,-0.005198354865695286
6804.701427625669,-0.005328263202764519
6804.702427397884,-0.005458566018569066
6804.703427170099,-0.005589217716964915
6804.704426942314,-0.0057201721789728625
6804.7054267145295,-0.005851382775601052
6804.706426486745,-0.005982802380960021
6804.70742625896,-0.006114383385667649
6804.708426031175,-0.006246077710541217
6804.70942580339,-0.006377836820573731
6804.710425575606,-0.006509611739191288
6804.711425347821,-0.006641353062787911
6804.712425120037,-0.0067730109755337374
6804.713424892252,-0.00690453526445191
6804.714424664467,-0.007035875334758912
6804.715424436682,-0.0071669802254626805
6804.7164242088975,-0.007297798625212452
6804.717423981113,-0.007428278888394155
6804.718423753328,-0.007558369051465154
6804.719423525543,-0.007688016849522281
6804.720423297758,-0.007817169733097259
6804.721423069974,-0.007945774885173815
6804.722422842189,-0.008073779238420894
6804.723422614405,-0.008201129492636444
6804.724422386619,-0.00832777213239629
6804.725422158835,-0.008453653444902592
6804.72642193105,-0.008578719538026346
6804.7274217032655,-0.00870291635853839
6804.728421475481,-0.008826189710523222
6804.729421247695,-0.008948485273969823
6804.730421019911,-0.00906974862353346
6804.731420792126,-0.009189925247462162
6804.732420564342,-0.009308960566681238
6804.733420336557,-0.009426799954028798
6804.734420108773,-0.009543388753634845
6804.735419880987,-0.009658672300436221
6804.736419653203,-0.00977259593981947
6804.737419425418,-0.009885105047383618
6804.738419197633,-0.009996145048814872
6804.739418969849,-0.010105661439865429
6804.740418742063,-0.010213599806428726
6804.741418514279,-0.010319905844703665
6804.742418286494,-0.010424525381440557
6804.74341805871,-0.01052740439426176
6804.744417830925,-0.01062848903205025
6804.745417603141,-0.010727725635399577
6804.746417375355,-0.010825060757118896
6804.747417147571,-0.010920441182787026
6804.748416919786,-0.01101381395134978
6804.749416692001,-0.011105126375755012
6804.750416464217,-0.011194326063620004
6804.751416236431,-0.01128136093792585
6804.752416008647,-0.011366179257733429
6804.753415780862,-0.011448729638915285
6804.754415553078,-0.01152896107489747
6804.755415325293,-0.011606822957405073
6804.756415097509,-0.011682265097204892
6804.757414869723,-0.01175523774483861
6804.7584146419385,-0.01182569161133984
6804.759414414154,-0.01189357788892853
6804.760414186369,-0.011958848271676408
6804.761413958585,-0.01202145497613747
6804.762413730799,-0.01208135076193784
6804.763413503015,-0.01213848895231949
6804.76441327523,-0.012192823454632611
6804.765413047446,-0.01224430878077153
6804.766412819661,-0.01229290006754913
6804.767412591877,-0.012338553097004804
6804.768412364091,-0.012381224316640863
6804.7694121363065,-0.012420870859582269
6804.770411908522,-0.012457450564654393
6804.771411680737,-0.012490921996373307
6804.772411452953,-0.012521244464842887
6804.773411225167,-0.012548378045552713
6804.774410997383,-0.012572283599070509
6804.775410769598,-0.012592922790622556
6804.776410541814,-0.012610258109555348
6804.777410314029,-0.012624252888671568
6804.778410086245,-0.012634871323433518
6804.779409858459,-0.012642078491027107
6804.7804096306745,-0.012645840369279597
6804.78140940289,-0.012646123855424584
6804.782409175105,-0.012642896784707916
6804.783408947321,-0.012636127948828395
6804.784408719535,-0.012625787114207322
6804.785408491751,-0.012611845040080975
6804.786408263966,-0.012594273496410074
6804.787408036182,-0.012573045281600135
6804.788407808397,-0.01254813424002648
6804.789407580612,-0.012519515279357287
6804.790407352827,-0.012487164387667766
6804.7914071250425,-0.012451058650338045
6804.792406897258,-0.012411176266726996
6804.793406669473,-0.012367496566613727
6804.794406441688,-0.01232000002639803
6804.795406213903,-0.012268668285050894
6804.796405986119,-0.01221348415980584
6804.797405758334,-0.012154431661581866
6804.79840553055,-0.012091496010128587
6804.799405302765,-0.012024663648884285
6804.80040507498,-0.011953922259537541
6804.801404847195,-0.011879260776283191
6804.8024046194105,-0.011800669399763245
6804.803404391626,-0.01171813961068341
6804.804404163841,-0.01163166418309574
6804.805403936056,-0.011541237197337812
6804.806403708271,-0.011446854052618732
6804.807403480487,-0.011348511479242134
6804.808403252702,-0.011246207550456126
6804.809403024918,-0.011139941693919901
6804.810402797133,-0.011029714702776446
6804.811402569348,-0.010915528746320388
6804.812402341563,-0.010797387380249653
6804.8134021137785,-0.010675295556489129
6804.814401885994,-0.010549259632574196
6804.815401658209,-0.010419287380581541
6804.816401430424,-0.010285387995594477
6804.817401202639,-0.010147572103689795
6804.818400974855,-0.010005851769433114
6804.81940074707,-0.009860240502869776
6804.820400519286,-0.009710753265998552
6804.821400291501,-0.009557406478715719
6804.822400063716,-0.00940021802421752
6804.823399835931,-0.009239207253849475
6804.824399608146,-0.009074394991391533
6804.825399380362,-0.008905803536768573
6804.826399152577,-0.008733456669176323
6804.827398924792,-0.008557379649613235
6804.828398697007,-0.00837759922280941
6804.829398469223,-0.008194143618544127
6804.830398241438,-0.008007042552344015
6804.831398013654,-0.007816327225554325
6804.832397785869,-0.007622030324776216
6804.833397558084,-0.007424186020663308
6804.834397330299,-0.007222829966071138
6804.835397102514,-0.007017999293553578
6804.83639687473,-0.006809732612200741
6804.837396646945,-0.006598070003813437
6804.83839641916,-0.006383053018409917
6804.839396191375,-0.006164724669061457
6804.840395963591,-0.005943129426054131
6804.841395735806,-0.005718313210375039
6804.842395508022,-0.0054903233865220835
6804.843395280237,-0.005259208754637225
6804.844395052452,-0.005025019541963851
6804.845394824667,-0.004787807393629584
6804.846394596882,-0.004547625362756496
6804.847394369098,-0.004304527899901388
6804.848394141313,-0.004058570841829344
6804.849393913528,-0.003809811399624452
6804.850393685743,-0.0035583081461420005
6804.851393457959,-0.003304121002806923
6804.852393230174,-0.0030473112257634752
6804.85339300239,-0.002787941391381349
6804.854392774604,-0.002526075381123511
6804.85539254682,-0.002261778365781185
6804.856392319035,-0.0019951167890815383
6804.85739209125,-0.0017261583506738302
6804.858391863466,-0.0014549719885001142
6804.85939163568,-0.0011816278605569308
6804.860391407896,-0.0009061973260548919
6804.861391180111,-0.000628752925983494
6804.862390952327,-0.00034936836308895524
6804.863390724542,-6.811848127326783e-05
6804.864390496758,0.000214920755576993
6804.865390268972,0.0004996722853232664
6804.866390041188,0.0007860579698599283
6804.867389813403,0.0010739986179422447
6804.868389585618,0.0013634140085478819
6804.869389357834,0.0016542229147623573
6804.870389130048,0.0019463431281787108
6804.871388902264,0.0022396914838016297
6804.872388674479,0.002534183885446253
6804.873388446695,0.0028297353316219004
6804.87438821891,0.003126259941891038
6804.8753879911255,0.0034236709836938804
6804.87638776334,0.0037218808996291276
6804.877387535556,0.004020801335181422
6804.878387307771,0.004320343166886142
6804.879387079986,0.004620416530922113
6804.880386852202,0.004920930852122724
6804.881386624416,0.0052217948733958245
6804.882386396632,0.005522916685542637
6804.883386168847,0.005824203757465831
6804.884385941063,0.006125562966756787
6804.885385713278,0.006426900630652027
6804.8863854854935,0.006728122537348757
6804.887385257708,0.007029133977669452
6804.888385029924,0.007329839777065583
6804.889384802139,0.007630144327950785
6804.890384574354,0.007929951622354098
6804.89138434657,0.008229165284884406
6804.892384118784,0.008527688605997683
6804.893383891,0.008825424575559288
6804.894383663215,0.00912227591669405
6804.895383435431,0.009418145119917419
6804.896383207646,0.00971293447754131
6804.8973829798615,0.010006546118348541
6804.898382752076,0.010298882042529893
6804.899382524292,0.010589844156877836
6804.900382296507,0.010879334310230925
6804.901382068722,0.011167254329162785
6804.902381840938,0.011453506053909511
6804.903381613152,0.011737991374529232
6804.904381385368,0.01202061226728754
6804.905381157583,0.012301270831262468
6804.906380929799,0.012579869325162748
6804.907380702014,0.012856310204353093
6804.9083804742295,0.013130496158080438
6804.909380246444,0.013402330146895063
6804.910380018659,0.013671715440260782
6804.911379790875,0.013938555654348492
6804.91237956309,0.014202754790007687
6804.913379335306,0.014464217270910865
6804.91437910752,0.014722847981866027
6804.915378879736,0.014978552307292838
6804.916378651951,0.015231236169858149
6804.917378424167,0.015480806069266691
6804.918378196382,0.01572716912120269
6804.919377968597,0.015970233096417843
6804.920377740812,0.016209906459960868
6804.921377513027,0.016446098410543245
6804.922377285243,0.01667871892003528
6804.923377057458,0.016907678773086056
6804.924376829673,0.01713288960685996
6804.925376601888,0.017354263950881715
6804.926376374104,0.017571715266980797
6804.927376146319,0.017785157989324923
6804.928375918535,0.017994507564530922
6804.92937569075,0.018199680491839742
6804.930375462965,0.018400594363340683
6804.93137523518,0.01859716790422803
6804.932375007395,0.018789321013071264
6804.933374779611,0.018976974802077908
6804.934374551826,0.019160051637325683
6804.935374324041,0.019338475178938126
6804.936374096256,0.01951217042117505
6804.937373868472,0.019681063732406284
6804.938373640687,0.01984508289493412
6804.939373412903,0.020004157144626594
6804.940373185118,0.02015821721032054
6804.9413729573325,0.02030719535295011
6804.942372729548,0.020451025404353278
6804.943372501763,0.020589642805705816
6804.944372273979,0.020722984645529293
6804.945372046194,0.020850989697217034
6804.946371818409,0.020973598456019607
6804.947371590624,0.021090753175429248
6804.94837136284,0.02120239790290091
6804.949371135055,0.021308478514846046
6804.950370907271,0.021408942750834242
6804.951370679486,0.02150374024693713
6804.9523704517005,0.021592822568148907
6804.953370223916,0.02167614323981813
6804.954369996131,0.021753657778026497
6804.955369768347,0.02182532371885187
6804.956369540562,0.02189110064645471
6804.957369312777,0.021950950219929433
6804.958369084992,0.022004836198864754
6804.959368857208,0.022052724467559577
6804.960368629423,0.02209458305784398
6804.961368401639,0.022130382170457773
6804.962368173854,0.02216009419494235
6804.9633679460685,0.022183693728005337
6804.964367718284,0.022201157590321447
6804.965367490499,0.02221246484173734
6804.966367262715,0.022217596794852773
6804.96736703493,0.022216537026955065
6804.968366807145,0.022209271390288682
6804.96936657936,0.022195788020646676
6804.970366351576,0.022176077344275326
6804.971366123791,0.022150132083087925
6804.972365896007,0.02211794725818814
6804.973365668222,0.022079520191707527
6804.9743654404365,0.022034850506965995
6804.975365212652,0.02198394012696796
6804.976364984867,0.021926793271250782
6804.977364757083,0.021863416451105722
6804.978364529298,0.02179381846319527
6804.979364301513,0.021718010381593936
6804.980364073728,0.0216360055482828
6804.981363845944,0.021547819562130952
6804.982363618159,0.021453470266399488
6804.983363390375,0.021352977734805864
6804.984363162589,0.02124636425618856
6804.9853629348045,0.021133654317813645
6804.98636270702,0.021014874587366235
6804.987362479235,0.020890053893671084
6804.988362251451,0.02075922320618739
6804.989362023665,0.020622415613323453
6804.990361795881,0.0204796662996174
6804.991361568096,0.020331012521830404
6804.992361340312,0.020176493583998936
6804.993361112527,0.020016150811492724
6804.994360884743,0.019850027524125003
6804.995360656957,0.019678169008361397
6804.9963604291725,0.019500622488673507
6804.997360201388,0.019317437098082788
6804.998359973603,0.01912866384793973
6804.999359745819,0.018934355596982613
6805.000359518033,0.018734567019719414
6805.001359290249,0.01852935457417538
6805.002359062464,0.018318776469047927
6805.00335883468,0.018102892630309515
6805.004358606895,0.017881764667298072
6805.005358379111,0.0176554558383336
6805.006358151325,0.01742403101589854
6805.00735792354,0.01718755665141845
6805.008357695756,0.016946100739678626
6805.009357467971,0.01669973278291125
6805.010357240187,0.016448523754586854
6805.011357012401,0.016192546062942986
6805.012356784617,0.01593187351428232
6805.013356556832,0.015666581276071612
6805.014356329048,0.015396745839872356
6805.015356101263,0.015122444984133383
6805.016355873479,0.014843757736874878
6805.017355645693,0.01456076433829257
6805.018355417908,0.01427354620330996
6805.019355190124,0.013982185884105387
6805.020354962339,0.013686767032639564
6805.021354734555,0.013387374363208061
6805.022354506769,0.013084093615041982
6805.023354278985,0.012777011514978924
6805.0243540512,0.012466215740225219
6805.025353823416,0.012151794881229442
6805.026353595631,0.011833838404686159
6805.027353367846,0.011512436616687964
6805.028353140061,0.011187680626042987
6805.029352912276,0.010859662307774154
6805.030352684492,0.010528474266815805
6805.031352456707,0.010194209801922526
6805.032352228923,0.009856962869804517
6805.033352001137,0.009516828049503372
6805.034351773353,0.00917390050702159
6805.035351545568,0.008828275960218736
6805.036351317784,0.008480050643986554
6805.037351089999,0.008129321275714748
6805.038350862214,0.007776185021058379
6805.039350634429,0.007420739460017058
6805.040350406644,0.0070630825533351356
6805.04135017886,0.006703312609231156
6805.042349951075,0.006341528250463873
6805.043349723291,0.005977828381741112
6805.044349495505,0.005612312157476943
6805.045349267721,0.005245078949901761
6805.046349039936,0.004876228317529196
6805.047348812152,0.00450585997398315
6805.048348584367,0.004134073757187661
6805.0493483565815,0.003760969598921816
6805.050348128797,0.0033866474947414965
6805.051347901012,0.003011207474269427
6805.052347673228,0.002634749571854819
6805.053347445443,0.0022573737976038055
6805.054347217658,0.0018791801087818057
6805.055346989873,0.0015002683815888887
6805.056346762089,0.0011207383833090117
6805.057346534304,0.000740689744833727
6805.05834630652,0.00036022193356051717
6805.059346078735,-2.0565773334572764e-05
6805.0603458509495,-0.0004015743152508535
6805.061345623165,-0.0007827048741448141
6805.06234539538,-0.001163858900141684
6805.063345167596,-0.0015449381367790306
6805.064344939811,-0.0019258446458851213
6805.065344712026,-0.0023064808320951732
6805.066344484241,-0.0026867494670089567
6805.067344256457,-0.0030665537129934924
6805.068344028672,-0.0034457971466347777
6805.069343800888,-0.00382438378184259
6805.070343573103,-0.004202218092612432
6805.0713433453175,-0.004579205035448582
6805.072343117533,-0.004955250071452052
6805.073342889748,-0.005330259188077033
6805.074342661964,-0.005704138920559122
6805.075342434179,-0.006076796373018391
6805.076342206394,-0.006448139239240035
6805.077341978609,-0.006818075823135136
6805.078341750825,-0.007186515058883893
6805.07934152304,-0.007553366530763614
6805.080341295256,-0.007918540492663776
6805.081341067471,-0.008281947887290537
6805.0823408396855,-0.008643500365063166
6805.083340611901,-0.00900311030270483
6805.084340384116,-0.00936069082153012
6805.085340156332,-0.00971615580543151
6805.086339928547,-0.010069419918566856
6805.087339700762,-0.010420398622749908
6805.088339472977,-0.010769008194545805
6805.089339245193,-0.011115165742073514
6805.090339017408,-0.011458789221517223
6805.091338789624,-0.011799797453348672
6805.092338561839,-0.01213811013826229
6805.093338334053,-0.012473647872824827
6805.094338106269,-0.012806332164840962
6805.095337878484,-0.013136085448436037
6805.0963376507,-0.013462831098856843
6805.097337422915,-0.01378649344699108
6805.09833719513,-0.014106997793605996
6805.099336967345,-0.014424270423306506
6805.100336739561,-0.014738238618213084
6805.101336511776,-0.015048830671359639
6805.102336283992,-0.015355975899811447
6805.103336056207,-0.015659604657503164
6805.104335828421,-0.015959648347796736
6805.105335600637,-0.016256039435758842
6805.106335372852,-0.016548711460157347
6805.107335145068,-0.01683759904517618
6805.108334917283,-0.017122637911847975
6805.109334689498,-0.017403764889203813
6805.110334461713,-0.01768091792513941
6805.111334233929,-0.017954036096997025
6805.112334006144,-0.018223059621862197
6805.113333778359,-0.018487929866574278
6805.114333550574,-0.018748589357449347
6805.115333322789,-0.01900498178971402
6805.116333095005,-0.01925705203664829
6805.11733286722,-0.01950474615843549
6805.118332639436,-0.019748011410717317
6805.11933241165,-0.019986796252851668
6805.120332183866,-0.020221050355871087
6805.121331956081,-0.020450724610139366
6805.122331728297,-0.020675771132703732
6805.123331500512,-0.020896143274339904
6805.124331272727,-0.021111795626287077
6805.125331044942,-0.021322684026669907
6805.126330817157,-0.021528765566604626
6805.127330589373,-0.02172999859598665
6805.128330361588,-0.021926342728957392
6805.129330133804,-0.022117758849048343
6805.130329906018,-0.022304209114000717
6805.131329678234,-0.022485656960259247
6805.132329450449,-0.0226620671071389
6805.1333292226645,-0.022833405560663256
6805.13432899488,-0.022999639617073353
6805.135328767095,-0.023160737866005855
6805.13632853931,-0.02331667019333932
6805.137328311525,-0.023467407783707532
6805.138328083741,-0.023612923122678844
6805.139327855956,-0.023753189998600883
6805.140327628172,-0.023888183504110014
6805.141327400386,-0.024017880037305366
6805.142327172602,-0.024142257302587525
6805.143326944817,-0.02426129431116231
6805.1443267170325,-0.024374971381210447
6805.145326489248,-0.024483270137724365
6805.146326261463,-0.02458617351201364
6805.147326033678,-0.02468366574088091
6805.148325805893,-0.024775732365470066
6805.149325578109,-0.024862360229788695
6805.150325350324,-0.024943537478906538
6805.15132512254,-0.02501925355683169
6805.152324894754,-0.02508949920406602
6805.15332466697,-0.025154266454841104
6805.154324439185,-0.025213548634035837
6805.1553242114005,-0.025267340353776608
6805.156323983616,-0.025315637509720743
6805.157323755831,-0.025358437277023856
6805.158323528046,-0.025395738105991963
6805.159323300261,-0.02542753971741939
6805.160323072477,-0.02545384309761394
6805.161322844692,-0.025474650493111355
6805.162322616908,-0.025489965405081652
6805.163322389122,-0.02549979258343045
6805.164322161338,-0.025504138020598983
6805.165321933553,-0.025503008945067115
6805.1663217057685,-0.025496413814564092
6805.167321477984,-0.025484362308992217
6805.168321250199,-0.025466865323069042
6805.169321022414,-0.02544393495869386
6805.170320794629,-0.0254155845170443
6805.171320566845,-0.025381828490408966
6805.17232033906,-0.0253426825537617
6805.173320111276,-0.0252981635560832
6805.17431988349,-0.02524828951143508
6805.175319655706,-0.02519307958979142
6805.176319427921,-0.02513255410763243
6805.1773192001365,-0.02506673451830456
6805.178318972352,-0.024995643402151265
6805.179318744566,-0.024919304456418434
6805.180318516782,-0.024837742484938675
6805.181318288997,-0.02475098338759862
6805.182318061213,-0.024659054149593736
6805.183317833428,-0.024561982830475247
6805.184317605644,-0.02445979855299403
6805.185317377858,-0.024352531491746515
6805.186317150074,-0.024240212861627523
6805.187316922289,-0.02412287490609512
6805.1883166945045,-0.0240005508852524
6805.18931646672,-0.023873275063750917
6805.190316238934,-0.023741082698520186
6805.19131601115,-0.023604010026327175
6805.192315783365,-0.02346209425116901
6805.193315555581,-0.02331537353150158
6805.194315327796,-0.023163886967306025
6805.195315100011,-0.023007674586994483
6805.196314872226,-0.022846777334156135
6805.197314644442,-0.02268123705414459
6805.198314416657,-0.02251109648050763
6805.199314188872,-0.022336399221260853
6805.200313961088,-0.022157189745007206
6805.201313733302,-0.021973513366904826
6805.202313505518,-0.021785416234486144
6805.203313277733,-0.021592945313331585
6805.204313049949,-0.02139614837260159
6805.205312822164,-0.021195073970431
6805.206312594379,-0.020989771439190265
6805.207312366594,-0.020780290870618202
6805.20831213881,-0.020566683100831557
6805.209311911025,-0.020348999695216714
6805.21031168324,-0.020127292933209293
6805.211311455456,-0.019901615792967387
6805.21231122767,-0.01967202193594429
6805.213310999886,-0.019438565691366646
6805.214310772101,-0.019201302040624056
6805.215310544317,-0.018960286601576205
6805.216310316532,-0.01871557561278382
6805.217310088747,-0.018467225917669788
6805.218309860962,-0.01821529494861695
6805.2193096331775,-0.01795984071100907
6805.220309405393,-0.017700921767221618
6805.221309177608,-0.017438597220568924
6805.222308949824,-0.017172926699214212
6805.223308722038,-0.016903970340049066
6805.224308494254,-0.01663178877254855
6805.225308266469,-0.01635644310260821
6805.226308038685,-0.016077994896368665
6805.2273078109,-0.015796506164033372
6805.228307583115,-0.01551203934368455
6805.22930735533,-0.015224657285101978
6805.2303071275455,-0.014934423233588776
6805.231306899761,-0.014641400813807867
6805.232306671976,-0.014345654013632244
6805.233306444192,-0.014047247168011662
6805.234306216406,-0.013746244942858006
6805.235305988622,-0.01344271231895115
6805.236305760837,-0.013136714575866988
6805.237305533053,-0.012828317275929204
6805.238305305268,-0.012517586248186413
6805.239305077483,-0.012204587572416546
6805.240304849698,-0.011889387563160603
6805.2413046219135,-0.011572052753788321
6805.242304394129,-0.01125264988059874
6805.243304166344,-0.010931245866959035
6805.244303938559,-0.010607907807485344
6805.245303710774,-0.010282702952269665
6805.24630348299,-0.009955698691157228
6805.247303255205,-0.009626962538079016
6805.248303027421,-0.009296562115444372
6805.249302799636,-0.008964565138598708
6805.250302571851,-0.008631039400351353
6805.251302344066,-0.008296052755578409
6805.2523021162815,-0.007959673105905278
6805.253301888497,-0.007621968384473222
6805.254301660712,-0.00728300654079408
6805.255301432927,-0.006942855525697131
6805.256301205142,-0.006601583276372017
6805.257300977358,-0.006259257701511684
6805.258300749573,-0.005915946666559457
6805.259300521789,-0.005571717979064487
6805.260300294003,-0.005226639374149916
6805.261300066219,-0.004880778500098188
6805.262299838434,-0.004534202904057918
6805.2632996106495,-0.004186980017876694
6805.264299382865,-0.0038391771440641083
6805.26529915508,-0.0034908614418892483
6805.266298927295,-0.0031420999136167922
6805.26729869951,-0.0027929593908858053
6805.268298471726,-0.0024435065212352444
6805.269298243941,-0.002093807754780076
6805.270298016157,-0.0017439293310417465
6805.271297788371,-0.0013939372659365354
6805.272297560587,-0.0010438973389250714
6805.273297332802,-0.0006938750803260018
6805.2742971050175,-0.0003439357587964955
6805.275296877233,5.855631018060496e-06
6805.276296649448,0.00035543438066309334
6805.277296421663,0.0007047360798807376
6805.278296193878,0.0010536966284408508
6805.279295966094,0.0014022522477954815
6805.280295738309,0.0017503394925551588
6805.281295510525,0.0020978952617853853
6805.282295282739,0.0024448568101217015
6805.283295054955,0.0027911617587016214
6805.28429482717,0.003136748105911636
6805.285294599385,0.003481554237947428
6805.286294371601,0.0038255189391854867
6805.287294143816,0.004168581402364463
6805.288293916031,0.004510681238574823
6805.289293688246,0.004851758487055692
6805.290293460462,0.005191753624798057
6805.291293232677,0.005530607575953837
6805.292293004893,0.005868261721050642
6805.293292777107,0.006204657906012465
6805.294292549323,0.006539738450986865
6805.295292321538,0.006873446158979678
6805.296292093753,0.007205724324298621
6805.297291865969,0.0075365167408074935
6805.298291638184,0.007865767709992848
6805.299291410399,0.00819342204884521
6805.300291182614,0.008519425097556899
6805.30129095483,0.008843722727038513
6805.302290727045,0.009166261346256026
6805.303290499261,0.009486987909390435
6805.304290271475,0.009805849922821788
6805.305290043691,0.010122795451939393
6805.306289815906,0.010437773127779834
6805.307289588121,0.010750732153494293
6805.308289360337,0.011061622310646491
6805.309289132551,0.011370393965342486
6805.310288904767,0.01167699807419351
6805.311288676982,0.011981386190113144
6805.312288449198,0.012283510467950249
6805.313288221413,0.012583323669959312
6805.314287993629,0.012880779171110045
6805.315287765843,0.013175830964238246
6805.3162875380585,0.01346843366504008
6805.317287310274,0.013758542516912085
6805.318287082489,0.014046113395639272
6805.319286854705,0.014331102813933806
6805.320286626919,0.014613467925826797
6805.321286399135,0.01489316653091574
6805.32228617135,0.015170157078470003
6805.323285943566,0.015444398671396737
6805.324285715781,0.015715851070069297
6805.325285487996,0.01598447469602001
6805.326285260211,0.016250230635498866
6805.3272850324265,0.01651308064289946
6805.328284804642,0.016772987144053245
6805.329284576857,0.017029913239392933
6805.330284349073,0.017283822706985617
6805.331284121287,0.01753468000543602
6805.332283893503,0.017782450276660207
6805.333283665718,0.018027099348529987
6805.334283437934,0.01826859373738847
6805.335283210149,0.01850690065043721
6805.336282982364,0.018741987987995628
6805.337282754579,0.01897382434563333
6805.3382825267945,0.019202379016176153
6805.33928229901,0.019427621991586663
6805.340282071225,0.019649523964719747
6805.341281843441,0.01986805633095374
6805.342281615655,0.020083191189697397
6805.343281387871,0.02029490134577289
6805.344281160086,0.020503160310674767
6805.345280932302,0.020707942303704877
6805.346280704517,0.02090922225298323
6805.347280476732,0.021106975796334842
6805.348280248947,0.021301179282052784
6805.3492800211625,0.02149180976953783
6805.350279793378,0.0216788450298154
6805.351279565593,0.02186226354593092
6805.352279337809,0.022042044513225226
6805.353279110023,0.02221816783949197
6805.354278882239,0.022390614145019548
6805.355278654454,0.02255936476252057
6805.35627842667,0.02272440173695218
6805.357278198885,0.022885707825230913
6805.3582779711,0.023043266495845757
6805.359277743315,0.023197061928373397
6805.3602775155305,0.023347079012899383
6805.361277287746,0.023493303349348998
6805.362277059961,0.023635721246731554
6805.363276832177,0.023774319722301644
6805.364276604391,0.02390908650064088
6805.365276376607,0.024040010012663444
6805.366276148822,0.02416707939454871
6805.367275921038,0.024290284486603912
6805.368275693253,0.024409615832060038
6805.369275465468,0.024525064675803978
6805.370275237683,0.02463662296304987
6805.371275009898,0.024744283337952675
6805.372274782114,0.024848039142166982
6805.373274554329,0.024947884413353955
6805.374274326544,0.025043813883639486
6805.375274098759,0.025135822978026377
6805.376273870975,0.025223907812763454
6805.37727364319,0.025308065193674328
6805.378273415406,0.025388292614448183
6805.379273187621,0.025464588254894824
6805.380272959836,0.025536950979165633
6805.381272732051,0.0256053803339418
6805.382272504266,0.02566987654659053
6805.383272276482,0.02573044052328972
6805.384272048697,0.025787073847121124
6805.385271820912,0.025839778776131934
6805.386271593127,0.025888558241364438
6805.387271365343,0.025933415844853574
6805.388271137558,0.025974355857592064
6805.389270909774,0.026011383217462852
6805.390270681988,0.026044503527138763
6805.391270454204,0.026073723051949493
6805.392270226419,0.02609904871771624
6805.393269998634,0.026120488108554624
6805.39426977085,0.026138049464646936
6805.395269543065,0.026151741679984884
6805.39626931528,0.02616157430008433
6805.397269087495,0.026167557519673458
6805.398268859711,0.026169702180355796
6805.399268631926,0.02616801976824931
6805.400268404142,0.02616252241160255
6805.401268176356,0.026153222878388595
6805.402267948572,0.026140134573876993
6805.403267720787,0.026123271538183834
6805.404267493002,0.026102648443799725
6805.405267265218,0.026078280593095433
6805.406267037433,0.026050183915804992
6805.407266809648,0.02601837496648617
6805.408266581863,0.025982870921958365
6805.409266354079,0.025943689578717996
6805.410266126294,0.02590084935033166
6805.41126589851,0.025854369264807317
6805.412265670724,0.025804268961943582
6805.41326544294,0.02575056869065724
6805.414265215155,0.025693289306289033
6805.41526498737,0.025632452267887417
6805.416264759586,0.025568079635470024
6805.417264531801,0.02550019406726211
6805.418264304016,0.02542881881691096
6805.419264076231,0.02535397773067481
6805.420263848447,0.025275695244584277
6805.421263620662,0.025193996381573897
6805.4222633928775,0.025108906748580836
6805.423263165092,0.02502045253360761
6805.424262937308,0.024928660502745312
6805.425262709523,0.024833557997153595
6805.426262481738,0.02473517292999351
6805.427262253954,0.02463353378330907
6805.428262026169,0.024528669604853094
6805.429261798384,0.02442061000485283
6805.430261570599,0.0243093851527107
6805.431261342815,0.024195025773635474
6805.43226111503,0.024077563145199224
6805.4332608872455,0.0239570290938157
6805.43426065946,0.02383345599113596
6805.435260431676,0.02370687675035757
6805.436260203891,0.023577324822443953
6805.437259976106,0.023444834192250717
6805.438259748322,0.023309439374555936
6805.439259520536,0.02317117540999131
6805.440259292752,0.023030077860871027
6805.441259064967,0.022886182806914925
6805.442258837183,0.02273952684086231
6805.443258609398,0.02259014706397248
6805.4442583816135,0.022438081081407935
6805.445258153828,0.022283366997495925
6805.446257926044,0.022126043410864063
6805.447257698259,0.021966149409445634
6805.448257470474,0.021803724565350287
6805.44925724269,0.021638808929595865
6805.450257014904,0.021471443026697175
6805.45125678712,0.02130166784910779
6805.452256559335,0.02112952485151096
6805.453256331551,0.02095505594495615
6805.454256103766,0.02077830349083797
6805.455255875981,0.020599310294714603
6805.456255648196,0.020418119599963414
6805.457255420412,0.020234775081271753
6805.458255192627,0.02004932083796149
6805.459254964842,0.01986180138714615
6805.460254737058,0.01967226165671984
6805.461254509272,0.01948074697817741
6805.462254281488,0.019287303079265496
6805.463254053703,0.019091976076464453
6805.464253825919,0.018894812467301302
6805.465253598134,0.018695859122494222
6805.466253370349,0.018495163277929307
6805.467253142564,0.01829277252647055
6805.468252914779,0.018088734809604195
6805.469252686995,0.017883098408918708
6805.47025245921,0.01767591193742175
6805.471252231426,0.017467224330695617
6805.47225200364,0.01725708483789267
6805.473251775856,0.017045543012572474
6805.474251548071,0.016832648703382417
6805.475251320287,0.016618452044583926
6805.476251092502,0.016403003446426364
6805.477250864717,0.016186353585370832
6805.478250636932,0.015968553394166002
6805.479250409147,0.015749654051777966
6805.480250181363,0.015529706973175803
6805.481249953578,0.01530876379897425
6805.482249725794,0.015086876384934667
6805.483249498008,0.014864096791325292
6805.484249270224,0.014640477272141619
6805.485249042439,0.014416070264187814
6805.486248814655,0.014190928376020071
6805.48724858687,0.013965104376752914
6805.4882483590845,0.013738651184729611
6805.4892481313,0.013511621856058035
6805.490247903515,0.013284069573013545
6805.491247675731,0.013056047632310677
6805.492247447946,0.012827609433245821
6805.493247220162,0.012598808465713202
6805.494246992376,0.012369698298096725
6805.495246764592,0.012140332565040395
6805.496246536807,0.011910764955099998
6805.497246309023,0.011681049198278778
6805.498246081238,0.011451239053449767
6805.4992458534525,0.011221388295667344
6805.500245625668,0.010991550703370552
6805.501245397883,0.010761780045480661
6805.502245170099,0.010532130068395365
6805.503244942314,0.010302654482882022
6805.504244714529,0.010073406950872358
6805.505244486744,0.009844441072161099
6805.50624425896,0.009615810371011137
6805.507244031175,0.0093875682826681
6805.508243803391,0.00915976813978731
6805.509243575606,0.008932463158776452
6805.5102433478205,0.00870570642605742
6805.511243120036,0.008479550884251182
6805.512242892251,0.008254049318289622
6805.513242664467,0.00802925434145882
6805.514242436682,0.007805218381378321
6805.515242208897,0.007581993665921269
6805.516241981112,0.0073596322090803985
6805.517241753328,0.007138185796784791
6805.518241525543,0.006917705972672256
6805.519241297759,0.006698244023821936
6805.520241069973,0.006479850966451569
6805.5212408421885,0.006262577531583645
6805.522240614404,0.006046474150684596
6805.523240386619,0.0058315909412811
6805.524240158835,0.005617977692557592
6805.52523993105,0.005405683850939122
6805.526239703265,0.005194758505663774
6805.52723947548,0.0049852503743489235
6805.528239247696,0.0047772077885556655
6805.529239019911,0.0045706786793557564
6805.530238792127,0.004365710562905465
6805.531238564341,0.004162350526030735
6805.5322383365565,0.003960645211828201
6805.533238108772,0.003760640805286795
6805.534237880987,0.003562383018934874
6805.535237653203,0.0033659170785180644
6805.536237425418,0.0031712877087132227
6805.537237197633,0.0029785391188841426
6805.538236969848,0.002787714988884756
6805.539236742064,0.002598858454915689
6805.540236514279,0.0024120120954400095
6805.541236286495,0.002227217917163929
6805.542236058709,0.002044517341088044
6805.5432358309245,0.0018639511886345383
6805.54423560314,0.0016855596678556138
6805.545235375355,0.0015093823597282941
6805.546235147571,0.0013354582045406874
6805.547234919786,0.001163825488374769
6805.548234692001,0.0009945218296907245
6805.549234464216,0.0008275841660178763
6805.550234236432,0.000663048740757212
6805.551234008647,0.0005009510901005864
6805.552233780863,0.00034132603007180814
6805.553233553077,0.00018420764369504237
6805.554233325292,2.962926829624272e-05
6805.555233097508,-0.00012237651705637997
6805.556232869723,-0.0002717779039665945
6805.557232641939,-0.0004185438669726608
6805.558232414154,-0.000562644175651604
6805.559232186369,-0.0007040494065587317
6805.560231958584,-0.0008427309549959031
6805.5612317308,-0.0009786610466020998
6805.562231503015,-0.0011118127487598972
6805.563231275231,-0.0012421599818115102
6805.564231047445,-0.0013696775300781915
6805.56523081966,-0.001494341052676887
6805.566230591876,-0.0016161270941281983
6805.567230364091,-0.001735013094749847
6805.568230136307,-0.001850977400829962
6805.569229908521,-0.001963999274574598
6805.570229680737,-0.0020740589038238944
6805.571229452952,-0.0021811374115311742
6805.572229225168,-0.0022852168649990464
6805.573228997383,-0.0023862802848662987
6805.574228769598,-0.002484311653839106
6805.575228541813,-0.0025792959251599
6805.576228314028,-0.0026712190308071843
6805.577228086244,-0.002760067889419681
6805.578227858459,-0.002845830413938407
6805.579227630675,-0.0029284955189605873
6805.580227402889,-0.003008053127799686
6805.581227175105,-0.003084494179246235
6805.58222694732,-0.0031578106340244866
6805.583226719536,-0.0032279954809402767
6805.584226491751,-0.0032950427427157966
6805.5852262639655,-0.003358947481507198
6805.586226036181,-0.003419705804101189
6805.587225808396,-0.0034773148667869187
6805.588225580612,-0.0035317728798995554
6805.589225352827,-0.0035830791120320693
6805.590225125043,-0.003631233893911785
6805.591224897257,-0.003676238621938364
6805.592224669473,-0.0037180957613799194
6805.593224441688,-0.003756808849223986
6805.594224213904,-0.0037923824966800577
6805.595223986119,-0.0038248223913303785
6805.5962237583335,-0.003854135298925712
6805.597223530549,-0.0038803290648228832
6805.598223302764,-0.0039034126150611285
6805.59922307498,-0.0039233959570746345
6805.600222847195,-0.0039402901800390895
6805.601222619411,-0.0039541074548506
6805.602222391625,-0.0039648610337358415
6805.603222163841,-0.003972565249492811
6805.604221936056,-0.003977235514361935
6805.605221708272,-0.003978888318527634
6805.606221480487,-0.003977541228250646
6805.6072212527015,-0.003973212883631535
6805.608221024917,-0.003965922996005827
6805.609220797132,-0.003955692344971167
6805.610220569348,-0.003942542775046775
6805.611220341563,-0.003926497191965318
6805.612220113779,-0.003907579558597267
6805.613219885993,-0.003885814890507704
6805.614219658209,-0.0038612292511455513
6805.615219430424,-0.003833849746665226
6805.61621920264,-0.003803704520380812
6805.617218974855,-0.0037708227468529853
6805.6182187470695,-0.0037352346256091656
6805.619218519285,-0.0036969713744977157
6805.6202182915,-0.003656065222677422
6805.621218063716,-0.0036125494032439465
6805.622217835931,-0.0035664581454954093
6805.623217608147,-0.0035178266668397192
6805.624217380361,-0.0034666911643466873
6805.625217152577,-0.0034130888059483162
6805.626216924792,-0.003357057721290945
6805.627216697008,-0.003298636992243135
6805.628216469223,-0.0032378666430633095
6805.6292162414375,-0.003174787630231237
6805.630216013653,-0.0031094418319474065
6805.631215785868,-0.0030418720373041608
6805.632215558084,-0.002972121935132187
6805.633215330299,-0.002900236102525581
6805.634215102514,-0.0028262599930483343
6805.635214874729,-0.0027502399246247576
6805.636214646945,-0.0026722230671161824
6805.63721441916,-0.0025922574295862656
6805.638214191376,-0.00251039184725739
6805.639213963591,-0.002426675968160985
6805.640213735805,-0.002341160239485009
6805.641213508021,-0.002253895893622314
6805.642213280236,-0.002164934933924068
6805.643213052452,-0.0020743301201628516
6805.644212824667,-0.0019821349537103915
6805.645212596882,-0.001888403662435237
6805.646212369097,-0.0017931911853259143
6805.647212141313,-0.0016965531568453051
6805.648211913528,-0.0015985458910221235
6805.649211685744,-0.0014992263652854488
6805.650211457958,-0.0013986522040482685
6805.651211230173,-0.0012968816620459
6805.652211002389,-0.0011939736074349598
6805.653210774604,-0.0010899875046582845
6805.65421054682,-0.0009849833970809075
6805.655210319035,-0.0008790218894019281
6805.65621009125,-0.0007721641298469471
6805.657209863465,-0.0006644717921457197
6805.658209635681,-0.0005560070572998271
6805.659209407896,-0.0004468325951454743
6805.660209180111,-0.0003370115457169447
6805.661208952326,-0.00022660750041672263
6805.662208724541,-0.00011568448299877494
6805.663208496757,-4.306930371924921e-06
6805.664208268972,0.00010746032676935304
6805.665208041188,0.00021955208347903684
6805.666207813403,0.0003319027802505725
6805.667207585618,0.000444446522856585
6805.668207357833,0.0005571171023289337
6805.669207130049,0.0006698480150707563
6805.670206902264,0.0007825724830922686
6805.671206674479,0.0008952234743623299
6805.672206446694,0.0010077337232681006
6805.673206218909,0.0011200357511754586
6805.674205991125,0.0012320618870831509
6805.67520576334,0.0013437442883639163
6805.676205535556,0.001455014961585998
6805.677205307771,0.001565805783408564
6805.678205079986,0.0016760485215445349
6805.679204852201,0.001785674855784177
6805.680204624417,0.0018946163990725873
6805.681204396632,0.0020028047186339145
6805.682204168847,0.002110171357134884
6805.683203941062,0.002216647853879958
6805.684203713277,0.0023221657660303036
6805.685203485493,0.0024266566898386477
6805.686203257708,0.002530052281892079
6805.687203029924,0.002632284280354885
6805.688202802139,0.0027332845262035897
6805.689202574354,0.0028329849844464755
6805.690202346569,0.0029313177653200674
6805.6912021187845,0.003028215145455362
6805.692201891,0.0031236095890070227
6805.693201663215,0.0032174337687392537
6805.69420143543,0.003309620587062651
6805.695201207645,0.003400103197016852
6805.696200979861,0.003488815023194284
6805.697200752076,0.0035756897826006973
6805.698200524292,0.0036606615054483997
6805.699200296506,0.003743664555878274
6805.700200068722,0.0038246336526067447
6805.701199840937,0.003903503889493935
6805.7021996131525,0.003980210756029329
6805.703199385368,0.0040546901577313815
6805.704199157583,0.004126878436457605
6805.705198929798,0.004196712390621771
6805.706198702013,0.00426412929531494
6805.707198474229,0.004329066922327151
6805.708198246444,0.0043914635600667395
6805.70919801866,0.004451258033374475
6805.710197790874,0.0045083897232299835
6805.71119756309,0.004562798586348421
6805.712197335305,0.0046144251746659025
6805.7131971075205,0.00466321065471295
6805.714196879736,0.004709096826875931
6805.715196651951,0.004752026144547218
6805.716196424166,0.004791941733165406
6805.717196196381,0.0048287874091474045
6805.718195968597,0.004862507698714517
6805.719195740812,0.004893047856614722
6805.720195513028,0.0049203538847433555
6805.721195285242,0.004944372550664249
6805.722195057458,0.004965051406033171
6805.723194829673,0.004982338804925204
6805.7241946018885,0.004996183922067557
6805.725194374104,0.005006536770979218
6805.726194146318,0.00501334822201884
6805.727193918534,0.005016570020342375
6805.728193690749,0.005016154803772032
6805.729193462965,0.005012056120578395
6805.73019323518,0.0050042284471777864
6805.731193007396,0.0049926272057473275
6805.73219277961,0.004977208781760666
6805.733192551826,0.004957930541447954
6805.734192324041,0.004934750849184354
6805.7351920962565,0.004907629084812033
6805.736191868472,0.004876525660901266
6805.737191640686,0.004841402039956703
6805.738191412902,0.0048022207515752355
6805.739191185117,0.004758945409562029
6805.740190957333,0.004711540729011371
6805.741190729548,0.004659972543358934
6805.742190501764,0.004604207821411943
6805.743190273978,0.004544214684363639
6805.744190046194,0.0044799624227982735
6805.745189818409,0.0044114215136926765
6805.746189590624,0.004338563637420257
6805.74718936284,0.004261361694762995
6805.748189135054,0.004179789823936628
6805.74918890727,0.004093823417633784
6805.750188679485,0.004003439140089259
6805.751188451701,0.003908614944171001
6805.752188223916,0.003809330088499749
6805.753187996132,0.0037055651545995307
6805.754187768346,0.0035973020640804806
6805.755187540562,0.0034845240958544725
6805.756187312777,0.0033672159033829316
6805.757187084992,0.0032453635319547917
6805.758186857208,0.003118954435990912
6805.759186629422,0.0029879774963693486
6805.760186401638,0.002852423037763683
6805.761186173853,0.0027122828459842066
6805.762185946069,0.0025675501853091756
6805.763185718284,0.0024182198157906222
6805.764185490499,0.0022642880105164308
6805.765185262714,0.0021057525728075234
6805.76618503493,0.001942612853326122
6805.767184807145,0.0017748697670681092
6805.76818457936,0.0016025258102095852
6805.769184351576,0.001425585076774812
6805.77018412379,0.0012440532750899267
6805.771183896006,0.0010579377439841533
6805.772183668221,0.0008672474686977341
6805.773183440437,0.0006719930964534671
6805.774183212652,0.0004721869516465351
6805.775182984867,0.000267843050605237
6805.776182757082,5.897711587329085e-05
6805.7771825292975,-0.00015439341003741278
6805.778182301513,-0.000372249351476296
6805.779182073728,-0.0005945697871197783
6805.780181845943,-0.0008213320381279886
6805.781181618158,-0.0010525116570477117
6805.782181390374,-0.0012880824175166082
6805.783181162589,-0.0015280163048230588
6805.784180934805,-0.0017722835073748682
6805.78518070702,-0.002020852409128665
6805.786180479235,-0.0022736895830303004
6805.78718025145,-0.002530759785514892
6805.7881800236655,-0.002792025952113354
6805.789179795881,-0.0030574491942101665
6805.790179568096,-0.003326988796994589
6805.791179340311,-0.0036006022186444346
6805.792179112526,-0.0038782450907778633
6805.793178884742,-0.004159871220204541
6805.794178656957,-0.0044454325920030326
6805.795178429173,-0.004734879373946606
6805.796178201388,-0.005028159922294868
6805.797177973603,-0.005325220788963895
6805.798177745818,-0.005626006730083028
6805.7991775180335,-0.005930460715942178
6805.800177290249,-0.006238523942329531
6805.801177062464,-0.006550135843255782
6805.802176834679,-0.006865234105057476
6805.803176606894,-0.007183754681868656
6805.80417637911,-0.007505631812446737
6805.805176151325,-0.007830798038335375
6805.806175923541,-0.008159184223344038
6805.807175695756,-0.008490719574321029
6805.808175467971,-0.008825331663194
6805.809175240186,-0.009162946450249388
6805.8101750124015,-0.009503488308619783
6805.811174784617,-0.009846880049945899
6805.812174556832,-0.010193042951177636
6805.813174329047,-0.010541896782476698
6805.814174101262,-0.010893359836181473
6805.815173873478,-0.011247348956793492
6805.816173645693,-0.011603779571943734
6805.817173417909,-0.011962565724296369
6805.818173190124,-0.012323620104347286
6805.819172962339,-0.012686854084074776
6805.820172734554,-0.01305217775140003
6805.8211725067695,-0.01341949994541577
6805.822172278985,-0.013788728292341935
6805.8231720512,-0.014159769242168309
6805.824171823415,-0.014532528105944796
6805.82517159563,-0.014906909093681106
6805.826171367846,-0.015282815352818481
6805.827171140061,-0.015660149007237036
6805.828170912277,-0.01603881119676308
6805.829170684491,-0.01641870211714155
6805.830170456707,-0.01679972106043917
6805.831170228922,-0.017181766455844613
6805.8321700011375,-0.017564735910832036
6805.833169773353,-0.01794852625265473
6805.834169545568,-0.018333033570135843
6805.835169317783,-0.018718153255723343
6805.836169089998,-0.01910378004777664
6805.837168862214,-0.019489808073052877
6805.838168634429,-0.019876130889361396
6805.839168406645,-0.02026264152835569
6805.840168178859,-0.020649232538433
6805.841167951075,-0.021035796027712626
6805.84216772329,-0.021422223707064973
6805.843167495505,-0.021808406933164166
6805.844167267721,-0.02219423675153811
6805.845167039935,-0.02257960393959055
6805.846166812151,-0.022964399049570653
6805.847166584366,-0.023348512451466092
6805.848166356582,-0.023731834375796675
6805.849166128797,-0.024114254956285937
6805.850165901013,-0.02449566427238877
6805.851165673227,-0.02487595239165364
6805.852165445443,-0.025255009411898212
6805.853165217658,-0.02563272550317752
6805.854164989873,-0.026008990949523848
6805.855164762089,-0.026383696190437882
6805.856164534303,-0.026756731862111024
6805.857164306519,-0.02712798883835924
6805.858164078734,-0.027497358271249422
6805.85916385095,-0.027864731631400116
6805.860163623165,-0.02823000074793932
6805.861163395381,-0.028593057848102958
6805.862163167595,-0.02895379559645861
6805.8631629398105,-0.02931210713373984
6805.864162712026,-0.02966788611527735
6805.865162484241,-0.030021026749013812
6805.866162256457,-0.030371423833089977
6805.867162028671,-0.030718972792990167
6805.868161800887,-0.031063569718235703
6805.869161573102,-0.031405111398615335
6805.870161345318,-0.031743495359942205
6805.871161117533,-0.03207861989932705
6805.872160889749,-0.03241038411995761
6805.873160661963,-0.032738687965374144
6805.8741604341785,-0.033063432253231356
6805.875160206394,-0.03338451870853666
6805.876159978609,-0.03370184999635519
6805.877159750825,-0.03401532975397199
6805.878159523039,-0.034324862622502395
6805.879159295255,-0.03463035427794186
6805.88015906747,-0.03493171146164738
6805.881158839686,-0.035228842010242914
6805.882158611901,-0.035521654884942085
6805.8831583841165,-0.035810060200281955
6805.884158156331,-0.03609396925226232
6805.8851579285465,-0.03637329454588538
6805.886157700762,-0.03664794982209139
6805.887157472977,-0.0369178500840862
6805.888157245193,-0.037182911623057265
6805.889157017407,-0.03744305204327489
6805.890156789623,-0.03769819028657594
6805.891156561838,-0.037948246656227494
6805.892156334054,-0.03819314284016782
6805.893156106269,-0.038432801933622224
6805.894155878484,-0.03866714846109114
6805.895155650699,-0.03889610839770762
6805.8961554229145,-0.03911960918996145
6805.89715519513,-0.039337579775787
6805.898154967345,-0.03954995060401221
6805.899154739561,-0.0397566536531662
6805.900154511775,-0.03995762244964366
6805.901154283991,-0.04015279208522463
6805.902154056206,-0.040342099233948873
6805.903153828422,-0.04052548216834476
6805.904153600637,-0.04070288077501323
6805.905153372852,-0.04087423656956789
6805.906153145067,-0.04103949271093317
6805.9071529172825,-0.041198594015002934
6805.908152689498,-0.04135148696766237
6805.909152461713,-0.041498119737176715
6805.910152233928,-0.04163844218595047
6805.911152006143,-0.04177240588166103
6805.912151778359,-0.041899964107770596
6805.913151550574,-0.042021071873420066
6805.91415132279,-0.042135685922708374
6805.915151095005,-0.04224376474336058
6805.91615086722,-0.04234526857478752
6805.917150639435,-0.042440159415540246
6805.9181504116505,-0.04252840103016201
6805.919150183866,-0.042609958955441216
6805.920149956081,-0.04268480050606875
6805.921149728296,-0.04275289477970363
6805.922149500511,-0.04281421266145108
6805.923149272727,-0.04286872682775758
6805.924149044942,-0.04291641174972763
6805.925148817158,-0.04295724369586737
6805.926148589373,-0.04299120073426024
6805.927148361588,-0.04301826273417986
6805.928148133803,-0.0430384113671455
6805.929147906018,-0.04305163010742581
6805.930147678234,-0.04305790423199585
6805.931147450449,-0.04305722081995297
6805.932147222664,-0.0430495687513968
6805.933146994879,-0.04303493870577825
6805.934146767095,-0.043013323159722554
6805.93514653931,-0.04298471638433093
6805.936146311526,-0.04294911444196528
6805.937146083741,-0.04290651518252041
6805.938145855956,-0.04285691823918815
6805.939145628171,-0.04280032502371796
6805.940145400386,-0.04273673872117887
6805.941145172602,-0.04266616428422788
6805.942144944817,-0.0425886084268904
6805.943144717032,-0.0425040796178587
6805.944144489247,-0.04241258807331462
6805.945144261463,-0.042314145749283084
6805.946144033678,-0.042208766333523225
6805.947143805894,-0.04209646523696387
6805.948143578109,-0.04197725958469057
6805.949143350324,-0.04185116820649104
6805.950143122539,-0.04171821162696621
6805.951142894754,-0.04157841205521373
6805.95214266697,-0.0414317933740906
6805.953142439185,-0.0412783811290614
6805.9541422114,-0.04111820251663811
6805.955141983615,-0.04095128637241707
6805.956141755831,-0.04077766315871866
6805.957141528046,-0.04059736495183457
6805.958141300262,-0.040410425428887946
6805.959141072477,-0.04021687985431138
6805.960140844692,-0.04001676506594813
6805.961140616907,-0.03981011946078192
6805.962140389122,-0.03959698298030128
6805.963140161338,-0.03937739709550457
6805.964139933553,-0.03915140479155208
6805.965139705768,-0.038919050552072176
6805.966139477983,-0.038680380343128457
6805.967139250199,-0.03843544159685533
6805.968139022414,-0.03818428319476956
6805.9691387946295,-0.03792695545076557
6805.970138566844,-0.03766351009380215
6805.97113833906,-0.03739400025028852
6805.972138111275,-0.03711848042617706
6805.97313788349,-0.03683700648876994
6805.974137655706,-0.036549635648246516
6805.97513742792,-0.03625642643891808
6805.976137200136,-0.03595743870021613
6805.977136972351,-0.03565273355742032
6805.978136744567,-0.03534237340213211
6805.979136516782,-0.035026421872500296
6805.9801362889975,-0.034704943833204493
6805.981136061212,-0.03437800535520291
6805.982135833428,-0.03404567369525101
6805.983135605643,-0.03370801727519735
6805.984135377858,-0.03336510566106346
6805.985135150074,-0.03301700954191449
6805.986134922288,-0.032663800708527875
6805.987134694504,-0.032305552031867045
6805.988134466719,-0.03194233744136789
6805.989134238935,-0.031574231903045584
6805.99013401115,-0.031201311397429377
6805.9911337833655,-0.030823652897332837
6805.99213355558,-0.03044133434546675
6805.993133327796,-0.0300544346319013
6805.994133100011,-0.02966303357138381
6805.995132872226,-0.02926721188051777
6805.996132644442,-0.028867051154808563
6805.997132416656,-0.02846263384558096
6805.998132188872,-0.028054043236773303
6805.999131961087,-0.027641363421613167
6806.000131733303,-0.02722467927917937
6806.001131505518,-0.02680407645085519
6806.0021312777335,-0.026379641316677714
6806.003131049948,-0.025951460971588264
6806.004130822164,-0.025519623201588786
6806.005130594379,-0.025084216459809287
6806.006130366594,-0.02464532984249111
6806.00713013881,-0.024203053064890952
6806.008129911024,-0.023757476437110514
6806.00912968324,-0.02330869083985634
6806.010129455455,-0.022856787700134544
6806.011129227671,-0.022401858966884437
6806.012128999886,-0.02194399708655497
6806.0131287721015,-0.021483294978627342
6806.014128544316,-0.021019846011086692
6806.015128316531,-0.02055374397584548
6806.016128088747,-0.02008508306412084
6806.017127860962,-0.01961395784176804
6806.018127633178,-0.01914046322457226
6806.019127405392,-0.018664694453501204
6806.020127177608,-0.018186747069921187
6806.021126949823,-0.017706716890780003
6806.022126722039,-0.017224699983760163
6806.023126494254,-0.016740792642406504
6806.0241262664695,-0.016255091361232692
6806.025126038684,-0.015767692810811338
6806.026125810899,-0.0152786938128527
6806.027125583115,-0.01478819131527708
6806.02812535533,-0.014296282367286084
6806.029125127546,-0.013803064094437996
6806.03012489976,-0.0133086336737325
6806.031124671976,-0.01281308830871
6806.032124444191,-0.012316525204570713
6806.033124216407,-0.011819041543318526
6806.034123988622,-0.01132073445893449
6806.0351237608365,-0.010821701012584653
6806.036123533052,-0.010322038167866983
6806.037123305267,-0.00982184276610208
6806.038123077483,-0.009321211501672673
6806.039122849698,-0.00882024089741712
6806.040122621913,-0.00831902728008252
6806.041122394128,-0.007817666755843415
6806.042122166344,-0.007316255185892484
6806.043121938559,-0.006814888162109949
6806.044121710775,-0.006313660982818709
6806.04512148299,-0.005812668628632404
6806.0461212552045,-0.005312005738403719
6806.04712102742,-0.004811766585280366
6806.048120799635,-0.004312045052876188
6806.049120571851,-0.0038129346115648687
6806.050120344066,-0.003314528294903677
6806.051120116281,-0.0028169186761945846
6806.052119888496,-0.00232019784518992
6806.053119660712,-0.0018244573849495265
6806.054119432927,-0.0013297883488561596
6806.055119205143,-0.0008362812377957032
6806.056118977358,-0.0003440259775086605
6806.0571187495725,0.0001468881038806415
6806.058118521788,0.0006363722981506493
6806.059118294003,0.0011243385390783888
6806.060118066219,0.001610699424337747
6806.061117838434,0.0020953682371933477
6806.062117610649,0.0025782589679830058
6806.063117382864,0.0030592863353816396
6806.06411715508,0.0035383658074394707
6806.065116927295,0.004015413622387317
6806.066116699511,0.004490346809201773
6806.067116471726,0.00496308320792309
6806.0681162439405,0.00543354148971856
6806.069116016156,0.005901641176684308
6806.070115788371,0.006367302661378496
6806.071115560587,0.006830447226079153
6806.072115332802,0.007290997061760139
6806.073115105017,0.007748875286779103
6806.074114877232,0.00820400596527155
6806.075114649448,0.008656314125245522
6806.076114421663,0.009105725776371521
6806.077114193879,0.00955216792746247
6806.078113966094,0.009995568603638372
6806.0791137383085,0.010435856863170168
6806.080113510524,0.010872962813997002
6806.081113282739,0.011306817629910702
6806.082113054955,0.011737353566400908
6806.08311282717,0.012164503976153774
6806.084112599385,0.01258820332419684
6806.0851123716,0.013008387202682251
6806.086112143816,0.013424992345300374
6806.087111916031,0.013837956641315752
6806.088111688247,0.014247219149217344
6806.089111460462,0.01465272010997514
6806.0901112326765,0.015054400959895494
6806.091111004892,0.015452204343067795
6806.092110777107,0.015846074123395507
6806.093110549323,0.01623595539620507
6806.094110321538,0.016621794499426624
6806.095110093753,0.017003539024341124
6806.096109865968,0.01738113782588873
6806.097109638184,0.017754541032533964
6806.098109410399,0.01812370005568328
6806.099109182615,0.01848856759865099
6806.100108954829,0.018849097665169668
6806.101108727044,0.019205245567441177
6806.10210849926,0.01955696793372462
6806.103108271475,0.019904222715457616
6806.104108043691,0.020246969193907435
6806.105107815905,0.020585167986348685
6806.106107588121,0.02091878105176439
6806.107107360336,0.021247771696067546
6806.108107132552,0.021572104576840487
6806.109106904767,0.021891745707589592
6806.110106676983,0.0222066624615133
6806.111106449197,0.022516823574781665
6806.112106221412,0.022822199149326244
6806.113105993628,0.023122760655139678
6806.114105765843,0.02341848093208498
6806.115105538059,0.02370933419121513
6806.116105310273,0.02399529601560429
6806.117105082489,0.024276343360692305
6806.118104854704,0.024552454554144586
6806.11910462692,0.024823609295229785
6806.120104399135,0.025089788653717728
6806.12110417135,0.025350975068300464
6806.122103943565,0.025607152344539197
6806.12310371578,0.025858305652340166
6806.124103487996,0.02610442152296281
6806.125103260211,0.026345487845563623
6806.126103032427,0.0265814938632794
6806.127102804641,0.026812430168853846
6806.128102576857,0.0270382886998116
6806.129102349072,0.027259062733183948
6806.130102121288,0.02747474687979068
6806.131101893503,0.027685337078082732
6806.132101665718,0.02789083058755056
6806.133101437933,0.028091225981703487
6806.134101210148,0.02828652314062578
6806.135100982364,0.02847672324311563
6806.136100754579,0.028661828758413565
6806.137100526795,0.028841843437526986
6806.138100299009,0.029016772304157962
6806.139100071225,0.029186621645241214
6806.14009984344,0.029351399001099242
6806.141099615656,0.029511113155221536
6806.142099387871,0.02966577412367455
6806.143099160086,0.02981539314414911
6806.144098932301,0.02995998266465169
6806.145098704516,0.03009955633184585
6806.146098476732,0.030234128979049927
6806.147098248947,0.030363716613897206
6806.148098021163,0.03048833640566455
6806.149097793377,0.030608006672275596
6806.150097565593,0.0307227468669849
6806.151097337808,0.030832577564749383
6806.152097110024,0.030937520448294037
6806.153096882239,0.031037598293878862
6806.154096654454,0.03113283495677461
6806.155096426669,0.031223255356454864
6806.156096198884,0.03130888546151221
6806.1570959711,0.031389752274306126
6806.158095743315,0.031465883815350135
6806.159095515531,0.03153730910744539
6806.160095287745,0.03160405815956756
6806.161095059961,0.031666161950513555
6806.162094832176,0.03172365241231425
6806.163094604392,0.031776562413419064
6806.164094376607,0.03182492574165822
6806.1650941488215,0.031868777086988154
6806.166093921037,0.031908152024025783
6806.167093693252,0.03194308699437704
6806.168093465468,0.031973619288765145
6806.169093237683,0.031999787028964215
6806.170093009898,0.032021629149543956
6806.171092782113,0.03203918537943124
6806.172092554329,0.03205249622329481
6806.173092326544,0.032061602942759504
6806.17409209876,0.0320665475374566
6806.175091870975,0.032067372725917226
6806.1760916431895,0.032064121926315664
6806.177091415405,0.032056839237069513
6806.17809118762,0.03204556941730363
6806.179090959836,0.03203035786718462
6806.180090732051,0.03201125060813246
6806.181090504266,0.03198829426291587
6806.182090276481,0.03196153603563766
6806.183090048697,0.03193102369161646
6806.184089820912,0.03189680553717117
6806.185089593128,0.03185893039931427
6806.186089365343,0.03181744760536034
6806.187089137557,0.03177240696245586
6806.188088909773,0.03172385873703662
6806.189088681988,0.031671853634218705
6806.190088454204,0.03161644277712939
6806.191088226419,0.03155767768618406
6806.192087998634,0.03149561025831575
6806.193087770849,0.031430292746163956
6806.194087543065,0.03136177773722973
6806.19508731528,0.03129011813300433
6806.196087087496,0.031215367128078795
6806.197086859711,0.031137578189242
6806.198086631925,0.031056805034574517
6806.199086404141,0.03097310161254577
6806.200086176356,0.030886522081121578
6806.201085948572,0.030797120786889016
6806.202085720787,0.030704952244205334
6806.203085493002,0.030610071114377368
6806.204085265217,0.030512532184877886
6806.205085037433,0.03041239034860508
6806.206084809648,0.030309700583191566
6806.207084581864,0.030204517930369098
6806.208084354079,0.030096897475395498
6806.209084126293,0.02998689432655032
6806.210083898509,0.02987456359470595
6806.211083670724,0.029759960372981085
6806.21208344294,0.029643139716483854
6806.213083215155,0.02952415662215214
6806.21408298737,0.029403066008699054
6806.215082759585,0.029279922696671724
6806.216082531801,0.02915478138863194
6806.217082304016,0.029027696649467326
6806.218082076231,0.028898722886842095
6806.219081848447,0.028767914331796433
6806.220081620661,0.028635325019503784
6806.221081392877,0.02850100877019534
6806.222081165092,0.028365019170261036
6806.223080937308,0.02822740955353641
6806.224080709523,0.028088232982784518
6806.225080481738,0.027947542231382193
6806.226080253953,0.027805389765219627
6806.227080026169,0.027661827724822306
6806.228079798384,0.027516907907704086
6806.229079570599,0.02737068175096013
6806.230079342814,0.02722320031410824
6806.231079115029,0.027074514262187037
6806.232078887245,0.026924673849119438
6806.23307865946,0.026773728901349974
6806.234078431676,0.026621728801764548
6806.23507820389,0.026468722473901394
6806.236077976106,0.026314758366461976
6806.237077748321,0.026159884438130443
6806.2380775205365,0.026004148142710175
6806.239077292752,0.02584759641458541
6806.240077064967,0.02569027565451569
6806.241076837182,0.025532231715770185
6806.242076609397,0.02537350989060862
6806.243076381613,0.025214154897115055
6806.244076153828,0.025054210866390515
6806.245075926044,0.024893721330110075
6806.246075698258,0.02473272920844975
6806.247075470474,0.024571276798388223
6806.248075242689,0.024409405762388335
6806.2490750149045,0.02424715711746281
6806.25007478712,0.024084571224628648
6806.251074559335,0.023921687778754253
6806.25207433155,0.02375854579880337
6806.253074103765,0.023595183618479836
6806.254073875981,0.023431638877277058
6806.255073648196,0.023267948511936365
6806.256073420412,0.023104148748318242
6806.257073192626,0.022940275093690652
6806.258072964842,0.02277636232943844
6806.259072737057,0.022612444504197592
6806.2600725092725,0.022448554927417798
6806.261072281488,0.022284726163356455
6806.262072053703,0.02212099002550667
6806.263071825918,0.02195737757146146
6806.264071598133,0.021793919098215774
6806.265071370349,0.021630644137907367
6806.266071142564,0.021467581453997176
6806.26707091478,0.021304759037889195
6806.268070686994,0.02114220410598949
6806.26907045921,0.0209799430972036
6806.270070231425,0.020818001670871295
6806.2710700036405,0.02065640470513738
6806.272069775856,0.02049517629575724
6806.273069548071,0.020334339755335724
6806.274069320286,0.020173917612997944
6806.275069092501,0.020013931614490495
6806.276068864717,0.019854402722711495
6806.277068636932,0.01969535111866747
6806.278068409148,0.01953679620285471
6806.279068181362,0.01937875659706228
6806.280067953578,0.01922125014659326
6806.281067725793,0.01906429392290028
6806.2820674980085,0.01890790422663084
6806.283067270224,0.01875209659107745
6806.284067042439,0.018596885786027164
6806.285066814654,0.018442285822004696
6806.286066586869,0.01828830995490302
6806.287066359085,0.018134970690994925
6806.2880661313,0.017982279792318787
6806.289065903516,0.017830248282431668
6806.29006567573,0.017678886452522642
6806.291065447946,0.017528203867879216
6806.292065220161,0.01737820937469978
6806.2930649923765,0.017228911107245108
6806.294064764592,0.01708031649532202
6806.295064536806,0.016932432272092485
6806.296064309022,0.01678526448220142
6806.297064081237,0.016638818490216603
6806.298063853453,0.016493098989373765
6806.299063625668,0.016348110010619914
6806.300063397883,0.016203854931947575
6806.301063170098,0.016060336488012365
6806.302062942314,0.015917556780026043
6806.303062714529,0.015775517285916973
6806.304062486744,0.015634218870749665
6806.30506225896,0.015493661797394972
6806.306062031174,0.015353845737442433
6806.30706180339,0.015214769782346127
6806.308061575605,0.015076432454795358
6806.309061347821,0.014938831720301611
6806.310061120036,0.014801964998993163
6806.311060892251,0.014665829177608964
6806.312060664466,0.0145304206216836
6806.313060436682,0.014395735187915357
6806.314060208897,0.014261768236709662
6806.315059981112,0.014128514644890186
6806.316059753328,0.013995968818570013
6806.317059525542,0.013864124706175143
6806.318059297758,0.01373297581161249
6806.319059069973,0.013602515207574209
6806.320058842189,0.013472735548969966
6806.321058614404,0.013343629086478544
6806.322058386619,0.013215187680209855
6806.323058158834,0.013087402813468443
6806.3240579310495,0.0129602656066095
6806.325057703265,0.012833766830978591
6806.32605747548,0.012707896922926492
6806.327057247696,0.012582645997890858
6806.32805701991,0.01245800386453672
6806.329056792126,0.012333960038948136
6806.330056564341,0.012210503758863648
6806.331056336557,0.012087623997948478
6806.332056108772,0.011965309480096723
6806.333055880987,0.011843548693756993
6806.334055653202,0.011722329906275015
6806.3350554254175,0.011601641178246712
6806.336055197633,0.011481470377875185
6806.337054969848,0.011361805195324834
6806.338054742064,0.011242633157065543
6806.339054514278,0.011123941640199671
6806.340054286494,0.011005717886764356
6806.341054058709,0.010887949018001443
6806.342053830925,0.010770622048587296
6806.34305360314,0.010653723900814689
6806.344053375355,0.010537241418718984
6806.34505314757,0.010421161382140923
6806.3460529197855,0.010305470520718356
6806.347052692001,0.010190155527799357
6806.348052464216,0.010075203074269241
6806.349052236432,0.00996059982228416
6806.350052008646,0.009846332438904145
6806.351051780862,0.00973238760961881
6806.352051553077,0.009618752051759324
6806.353051325293,0.009505412527790753
6806.354051097508,0.009392355858479497
6806.355050869723,0.009279568935930939
6806.356050641938,0.009167038736492916
6806.3570504141535,0.009054752333520837
6806.358050186369,0.008942696910000398
6806.359049958584,0.008830859771023864
6806.360049730799,0.008719228356115782
6806.361049503014,0.008607790251403827
6806.36204927523,0.00849653320163042
6806.363049047445,0.008385445122000557
6806.364048819661,0.00827451410986133
6806.365048591875,0.008163728456208514
6806.366048364091,0.008053076657015776
6806.367048136306,0.007942547424382062
6806.3680479085215,0.007832129697492864
6806.369047680737,0.007721812653391189
6806.370047452952,0.00761158571755418
6806.371047225167,0.007501438574271613
6806.372046997382,0.007391361176822769
6806.373046769598,0.007281343757448571
6806.374046541813,0.007171376837116292
6806.375046314029,0.007061451235074569
6806.376046086243,0.006951558078196782
6806.377045858459,0.006841688810111127
6806.378045630674,0.0067318352001157706
6806.3790454028895,0.006621989351877453
6806.380045175105,0.006512143711911707
6806.38104494732,0.006402291077842699
6806.382044719535,0.006292424606440429
6806.38304449175,0.006182537821432797
6806.384044263966,0.00607262462108986
6806.385044036181,0.005962679285577376
6806.386043808397,0.005852696484076616
6806.387043580611,0.005742671281667283
6806.388043352827,0.005632599145970341
6806.389043125042,0.0055224759535475445
6806.390042897257,0.005412297996054537
6806.391042669473,0.005302061986144538
6806.392042441688,0.005191765063119806
6806.393042213903,0.005081404798328356
6806.394041986118,0.00497097920030364
6806.395041758334,0.00486048671964517
6806.396041530549,0.004749926253638232
6806.397041302765,0.004639297150610997
6806.398041074979,0.004528599214027365
6806.399040847195,0.004417832706313879
6806.40004061941,0.004306998352419042
6806.401040391625,0.004196097343103292
6806.402040163841,0.004085131337957865
6806.403039936056,0.0039741024681507545
6806.404039708271,0.0038630133388978904
6806.405039480486,0.003751867031657644
6806.406039252702,0.0036406671060466487
6806.407039024917,0.0035294176014748985
6806.408038797133,0.0034181230384980337
6806.409038569347,0.003306788419884778
6806.4100383415625,0.0031954192313976004
6806.411038113778,0.003084021442284895
6806.412037885993,0.002972601505483356
6806.413037658209,0.002861166357529675
6806.414037430424,0.0027497234181812235
6806.415037202639,0.0026382805897459246
6806.416036974854,0.002526846256121984
6806.41703674707,0.0024154292815485173
6806.418036519285,0.0023040390090683393
6806.419036291501,0.0021926852587042817
6806.420036063715,0.0020813783253503864
6806.4210358359305,0.0019701289763792537
6806.422035608146,0.0018589484489667022
6806.423035380361,0.0017478484471347923
6806.424035152577,0.0016368411385141893
6806.425034924791,0.00152593915082681
6806.426034697007,0.0014151555680897156
6806.427034469222,0.0013045039265412528
6806.428034241438,0.001193998210290551
6806.429034013653,0.0010836528466916324
6806.430033785868,0.0009734827014436544
6806.431033558083,0.0008635030734191821
6806.4320333302985,0.0007537296892228962
6806.433033102514,0.0006441786974837214
6806.434032874729,0.000534866662883986
6806.435032646945,0.000425810559929793
6806.436032419159,0.00031702776646727577
6806.437032191375,0.00020853605694974263
6806.43803196359,0.00010035359546086991
6806.439031735806,-7.501071500914578e-06
6806.440031508021,-0.0001150090224718845
6806.441031280236,-0.00022215096870159526
6806.442031052451,-0.000328907262056173
6806.4430308246665,-0.0004352579031421542
6806.444030596882,-0.000541182549646913
6806.445030369097,-0.0006466605248918345
6806.446030141313,-0.000751670826594446
6806.447029913527,-0.0008561921358357172
6806.448029685743,-0.0009602028262286772
6806.449029457958,-0.0010636809732843663
6806.450029230174,-0.0011666043639709353
6806.451029002389,-0.001268950506461405
6806.452028774604,-0.0013706966400652255
6806.453028546819,-0.0014718197453383634
6806.4540283190345,-0.0015722965543662263
6806.45502809125,-0.0016721035612133868
6806.456027863465,-0.0017712170325338364
6806.457027635681,-0.0018696130183353966
6806.458027407895,-0.0019672673628920007
6806.459027180111,-0.0020641557157977364
6806.460026952326,-0.0021602535431568277
6806.461026724542,-0.002255536138904022
6806.462026496757,-0.002349978636250126
6806.463026268972,-0.0024435560192476746
6806.464026041187,-0.0025362431344718925
6806.4650258134025,-0.002628014702812252
6806.466025585618,-0.0027188453313700157
6806.467025357833,-0.0028087095254571964
6806.468025130049,-0.0028975817006923767
6806.469024902263,-0.0029854361951888
6806.470024674479,-0.0030722472818300265
6806.471024446694,-0.00315798918062832
6806.47202421891,-0.0032426360711607567
6806.473023991125,-0.003326162105077834
6806.47402376334,-0.003408541418679206
6806.475023535555,-0.003489748145551066
6806.47602330777,-0.00356975642925972
6806.477023079986,-0.0036485404360960005
6806.478022852201,-0.0037260743678654124
6806.479022624417,-0.0038023324747192013
6806.480022396631,-0.003877289068021917
6806.481022168847,-0.003950918533251427
6806.482021941062,-0.004023195342927723
6806.483021713278,-0.004094094069567238
6806.484021485493,-0.004163589398659677
6806.485021257708,-0.004231656141664607
6806.486021029923,-0.004298269249025172
6806.487020802138,-0.0043634038231963835
6806.488020574354,-0.004427035131685462
6806.489020346569,-0.004489138620101774
6806.490020118784,-0.004549689925213853
6806.491019890999,-0.004608664888011003
6806.492019663215,-0.004666039566766794
6806.49301943543,-0.004721790250101612
6806.494019207646,-0.004775893470041121
6806.49501897986,-0.004828326015067331
6806.496018752076,-0.004879064943158736
6806.497018524291,-0.00492808759481598
6806.498018296506,-0.0049753716060695315
6806.499018068722,-0.005020894921466026
6806.500017840937,-0.005064635807030166
6806.501017613152,-0.005106572863199404
6806.502017385367,-0.00514668503772881
6806.503017157583,-0.005184951638563821
6806.504016929798,-0.0052213523466786115
6806.505016702014,-0.005255867228877962
6806.506016474228,-0.005288476750560451
6806.507016246444,-0.00531916178844084
6806.508016018659,-0.005347903643229411
6806.509015790874,-0.0053746840522659566
6806.51001556309,-0.005399485202105913
6806.511015335305,-0.005422289741055945
6806.51201510752,-0.005443080791655958
6806.513014879735,-0.0054618419631041505
6806.514014651951,-0.00547855736362136
6806.515014424166,-0.005493211612750531
6806.516014196382,-0.005505789853586886
6806.517013968596,-0.005516277764934142
6806.518013740812,-0.005524661573382138
6806.519013513027,-0.005530928065301255
6806.520013285242,-0.0055350645987492335
6806.521013057458,-0.005537059115286143
6806.522012829673,-0.005536900151693443
6806.523012601888,-0.0055345768515932285
6806.524012374103,-0.005530078976963764
6806.525012146319,-0.005523396919547441
6806.526011918534,-0.0055145217121471725
6806.5270116907495,-0.005503445039807167
6806.528011462964,-0.005490159250873865
6806.52901123518,-0.005474657367932758
6806.530011007395,-0.0054569330986166485
6806.53101077961,-0.00543698084628064
6806.532010551826,-0.005414795720538867
6806.533010324041,-0.0053903735476575326
6806.534010096256,-0.005363710880798412
6806.535009868471,-0.005334805010106578
6806.536009640687,-0.005303653972635802
6806.537009412902,-0.005270256562104918
6806.5380091851175,-0.0052346123384783925
6806.539008957332,-0.0051967216373644525
6806.540008729548,-0.005156585579224287
6806.541008501763,-0.005114206078386023
6806.542008273978,-0.005069585851857436
6806.543008046194,-0.0050227284279315155
6806.544007818409,-0.004973638154579243
6806.545007590624,-0.004922320207623995
6806.546007362839,-0.004868780598692098
6806.547007135055,-0.00481302618293407
6806.54800690727,-0.004755064666511066
6806.5490066794855,-0.004694904613840922
6806.5500064517,-0.004632555454598009
6806.551006223916,-0.004568027490460788
6806.552005996131,-0.004501331901600672
6806.553005768346,-0.004432480752905433
6806.554005540562,-0.004361486999930151
6806.555005312776,-0.004288364494568544
6806.556005084992,-0.004213127990437524
6806.557004857207,-0.004135793147967939
6806.558004629423,-0.0040563765391947075
6806.559004401638,-0.003974895652239832
6806.560004173853,-0.003891368895482048
6806.561003946068,-0.0038058156014072384
6806.562003718283,-0.0037182560301340308
6806.563003490499,-0.0036287113726093203
6806.564003262714,-0.0035372037534687284
6806.56500303493,-0.003443756233557246
6806.566002807144,-0.0033483928121055104
6806.56700257936,-0.0032511384285573357
6806.568002351575,-0.0031520189640442406
6806.569002123791,-0.003051061242502762
6806.570001896006,-0.0029482930314302974
6806.571001668221,-0.0028437430422750716
6806.572001440436,-0.0027374409304555753
6806.573001212651,-0.0026294172950045375
6806.574000984867,-0.0025197036778322316
6806.575000757082,-0.00240833256260368
6806.576000529298,-0.0022953373732242295
6806.577000301512,-0.0021807524719279917
6806.578000073728,-0.002064613156963803
6806.578999845943,-0.0019469556598736637
6806.579999618159,-0.0018278171423589521
6806.580999390374,-0.001707235692730108
6806.5819991625885,-0.001585250321935846
6806.582998934804,-0.001461900959168284
6806.583998707019,-0.0013372284470406645
6806.584998479235,-0.0012112745363345857
6806.58599825145,-0.0010840818803138543
6806.586998023666,-0.000955694028602214
6806.58799779588,-0.0008261554206222887
6806.588997568096,-0.0006955113785930907
6806.589997340311,-0.0005638081000833711
6806.590997112527,-0.00043109265011793615
6806.591996884742,-0.00029741295283384236
6806.5929966569565,-0.00016281778268314984
6806.593996429172,-2.735675517868723e-05
6806.594996201387,0.0001089196828208946
6806.595995973603,0.0002459602632906044
6806.596995745818,0.0003837129076869557
6806.597995518034,0.0005221247380678985
6806.598995290248,0.0006611420886883607
6806.599995062464,0.0008007105180746529
6806.600994834679,0.0009407748215806979
6806.601994606895,0.0010812790444287667
6806.60299437911,0.0012221664952371545
6806.6039941513245,0.0013633797600370167
6806.60499392354,0.0015048607167804156
6806.605993695755,0.0016465505503414752
6806.606993467971,0.0017883897680124427
6806.607993240186,0.001930318215496394
6806.608993012402,0.002072275093398345
6806.609992784616,0.0022141989742166506
6806.610992556832,0.0023560278198367793
6806.611992329047,0.002497698999529847
6806.612992101263,0.0026391493084586028
6806.613991873478,0.0027803149866938285
6806.6149916456925,0.0029211317387442893
6806.615991417908,0.0030615347536033853
6806.616991190123,0.0032014587253155033
6806.617990962339,0.003340837874064786
6806.618990734554,0.0034796059677886407
6806.619990506769,0.003617696344317845
6806.620990278984,0.003755041934044647
6806.6219900512,0.0038915752831197793
6806.622989823415,0.004027228577178884
6806.623989595631,0.00416193366559846
6806.624989367845,0.0042956220862810975
6806.6259891400605,0.004428225090969484
6806.626988912276,0.004559673671088368
6806.627988684491,0.004689898584113517
6806.628988456707,0.004818830380466511
6806.629988228922,0.004946399430934232
6806.630988001137,0.005072535954611881
6806.631987773352,0.005197170047368523
6806.632987545568,0.005320231710834211
6806.633987317783,0.005441650881907881
6806.634987089999,0.005561357462785167
6806.635986862213,0.005679281351505147
6806.6369866344285,0.005795352473014786
6806.637986406644,0.005909500810749442
6806.638986178859,0.00602165643872721
6806.639985951075,0.006131749554154294
6806.64098572329,0.006239710510537819
6806.641985495505,0.00634546985130165
6806.64298526772,0.006448958343899824
6806.643985039936,0.006550107014421127
6806.644984812151,0.006648847182677093
6806.645984584367,0.006745110497764248
6806.646984356581,0.0068388289740899085
6806.647984128796,0.006929935027849025
6806.648983901012,0.007018361513937633
6806.649983673227,0.007104041763286409
6806.650983445443,0.007186909620595574
6806.651983217658,0.0072668994824500325
6806.652982989873,0.007343946335791136
6806.653982762088,0.007417985796718821
6806.654982534304,0.007488954149595083
6806.655982306519,0.007556788386416754
6806.656982078735,0.007621426246422466
6806.657981850949,0.007682806255895289
6806.658981623164,0.007740867768119123
6806.65998139538,0.007795551003443397
6806.660981167595,0.007846797089407064
6806.661980939811,0.007894548100869578
6806.662980712026,0.007938747100093258
6806.663980484241,0.007979338176718516
6806.664980256456,0.008016266487570747
6806.665980028672,0.008049478296235268
6806.666979800887,0.008078921012334622
6806.667979573103,0.008104543230440882
6806.668979345317,0.008126294768554228
6806.669979117532,0.008144126706078355
6806.670978889748,0.008157991421223023
6806.671978661963,0.008167842627764443
6806.672978434179,0.008173635411095283
6806.673978206394,0.008175326263497542
6806.674977978609,0.00817287311857354
6806.675977750824,0.008166235384772444
6806.67697752304,0.008155373977951989
6806.677977295255,0.008140251352917443
6806.67897706747,0.00812083153388224
6806.679976839685,0.008097080143797383
6806.6809766119,0.008068964432499546
6806.681976384116,0.008036453303631175
6806.682976156331,0.007999517340289444
6806.683975928547,0.007958128829364922
6806.684975700761,0.007912261784534986
6806.685975472977,0.007861891967881394
6806.686975245192,0.007806996910106015
6806.687975017408,0.0077475559293231945
6806.688974789623,0.007683550148411798
6806.6899745618375,0.0076149625109144204
6806.690974334053,0.007541777795475553
6806.691974106268,0.007463982628814733
6806.692973878484,0.007381565497234733
6806.693973650699,0.007294516756668779
6806.694973422915,0.007202828641274436
6806.695973195129,0.007106495270585301
6806.696972967345,0.007005512655234851
6806.69797273956,0.00689987870126974
6806.698972511776,0.006789593213072448
6806.699972283991,0.0066746578949155345
6806.7009720562055,0.006555076351171777
6806.701971828421,0.0064308540852062975
6806.702971600636,0.00630199849697835
6806.703971372852,0.006168518879381786
6806.704971145067,0.006030426413354231
6806.705970917283,0.005887734161785879
6806.706970689497,0.0057404570622593175
6806.707970461713,0.005588611918652198
6806.708970233928,0.005432217391634779
6806.709970006144,0.005271293988094483
6806.710969778359,0.0051058640495196955
6806.7119695505735,0.004935951739375079
6806.712969322789,0.004761583029500667
6806.713969095004,0.0045827856855669424
6806.71496886722,0.004399589251617925
6806.715968639435,0.004212025033734083
6806.716968411651,0.004020126082846503
6806.717968183865,0.0038239271767334312
6806.718967956081,0.003623464801229811
6806.719967728296,0.0034187771306800315
6806.720967500512,0.0032099040076636106
6806.721967272727,0.0029968869220230693
6806.7229670449415,0.0027797689892227633
6806.723966817157,0.0025585949280669744
6806.724966589372,0.002333411037805052
6806.725966361588,0.002104265174650897
6806.726966133803,0.0018712067277435248
6806.727965906019,0.0016342865945749418
6806.728965678233,0.001393557155911081
6806.729965450449,0.0011490722502311066
6806.730965222664,0.000900887147710051
6806.73196499488,0.0006490585237694318
6806.732964767095,0.00039364443222022176
6806.733964539309,0.00013470427802223152
6806.734964311525,-0.0001277012103164086
6806.73596408374,-0.00039351000867645584
6806.736963855956,-0.0006626588255788121
6806.737963628171,-0.0009350831307278529
6806.738963400387,-0.0012107171838255765
6806.739963172601,-0.0014894940636360934
6806.740962944817,-0.001771345697280755
6806.741962717032,-0.002056202889744996
6806.742962489248,-0.00234399535357868
6806.743962261463,-0.002634651738772403
6806.744962033677,-0.0029280996627927937
6806.745961805893,-0.0032242657407603697
6806.746961578108,-0.003523075615753991
6806.747961350324,-0.0038244539892264024
6806.748961122539,-0.004128324651515759
6806.749960894754,-0.004434610512438354
6806.750960666969,-0.004743233631948013
6806.751960439185,-0.00505411525084773
6806.7529602114,-0.005367175821539189
6806.753959983616,-0.005682335038795873
6806.75495975583,-0.0059995118705454915
6806.755959528045,-0.006318624588647688
6806.756959300261,-0.006639590799653276
6806.757959072476,-0.006962327475531683
6806.758958844692,-0.007286750984353872
6806.759958616907,-0.00761277712091863
6806.760958389122,-0.007940321137310871
6806.761958161337,-0.008269297773381189
6806.762957933553,-0.008599621287136637
6806.763957705768,-0.008931205485033292
6806.764957477983,-0.009263963752161635
6806.765957250198,-0.009597809082316286
6806.766957022413,-0.009932654107942036
6806.767956794629,-0.010268411129948429
6806.768956566844,-0.010604992147385419
6806.76995633906,-0.010942308886972788
6806.770956111275,-0.011280272832476072
6806.77195588349,-0.011618795253921732
6806.772955655705,-0.011957787236644242
6806.773955427921,-0.012297159710157678
6806.774955200136,-0.012636823476844396
6806.775954972351,-0.012976689240453443
6806.776954744566,-0.013316667634401497
6806.777954516781,-0.013656669249869373
6806.778954288997,-0.013996604663687517
6806.779954061212,-0.014336384466004281
6806.780953833428,-0.014675919287731208
6806.781953605643,-0.015015119827760043
6806.782953377858,-0.015353896879946632
6806.783953150073,-0.015692161359857335
6806.7849529222885,-0.01602982433127396
6806.785952694504,-0.016366797032453657
6806.786952466719,-0.016702990902140512
6806.787952238934,-0.01703831760532592
6806.788952011149,-0.017372689058754893
6806.789951783365,-0.017706017456175668
6806.79095155558,-0.018038215293329822
6806.791951327796,-0.018369195392680126
6806.792951100011,-0.01869887092787302
6806.793950872226,-0.019027155447932556
6806.794950644441,-0.019353962901182343
6806.7959504166565,-0.019679207658892053
6806.796950188872,-0.020002804538644958
6806.797949961087,-0.02032466882742319
6806.798949733302,-0.020644716304407628
6806.799949505517,-0.02096286326348965
6806.800949277733,-0.021279026535492247
6806.801949049948,-0.02159312351009846
6806.802948822164,-0.021905072157485193
6806.803948594379,-0.02221479104966085
6806.804948366594,-0.022522199381505237
6806.805948138809,-0.022827216991510406
6806.8069479110245,-0.0231297643822211
6806.80794768324,-0.023429762740373516
6806.808947455455,-0.023727133956730952
6806.80994722767,-0.02402180064561488
6806.810946999885,-0.024313686164129683
6806.811946772101,-0.02460271463107897
6806.812946544316,-0.02488881094557106
6806.813946316532,-0.025171900805310676
6806.814946088746,-0.02545191072457389
6806.815945860962,-0.02572876805186306
6806.816945633177,-0.026002400987238505
6806.8179454053925,-0.026272738599323924
6806.818945177608,-0.026539710841982776
6806.819944949823,-0.026803248570663244
6806.820944722038,-0.027063283558409975
6806.821944494253,-0.0273197485115412
6806.822944266469,-0.02757257708499029
6806.823944038684,-0.027821703897311416
6806.8249438109,-0.028067064545349123
6806.825943583114,-0.028308595618572203
6806.82694335533,-0.028546234713072344
6806.827943127545,-0.028779920445228323
6806.8289428997605,-0.029009592465036725
6806.829942671976,-0.029235191469110147
6806.83094244419,-0.02945665921334376
6806.831942216406,-0.02967393852525109
6806.832941988621,-0.02988697331596949
6806.833941760837,-0.03009570859193568
6806.834941533052,-0.03030009046623149
6806.835941305268,-0.030500066169599997
6806.836941077482,-0.03069558406113216
6806.837940849698,-0.030886593638624355
6806.838940621913,-0.031073045548607382
6806.8399403941285,-0.03125489159604791
6806.840940166344,-0.031432084753723534
6806.841939938558,-0.031604579171272996
6806.842939710774,-0.03177233018392336
6806.843939482989,-0.031935294320895875
6806.844939255205,-0.03209342931349271
6806.84593902742,-0.03224669410286651
6806.846938799636,-0.03239504884747493
6806.84793857185,-0.03253845493022226
6806.848938344066,-0.03267687496529023
6806.849938116281,-0.032810272804660104
6806.850937888496,-0.03293861354432788
6806.851937660712,-0.03306186353021425
6806.852937432926,-0.033179990363770624
6806.853937205142,-0.03329296290728221
6806.854936977357,-0.033400751288868935
6806.855936749573,-0.033503326907184536
6806.856936521788,-0.03360066243581428
6806.857936294004,-0.033692731827371536
6806.858936066218,-0.03377951031729375
6806.859935838434,-0.03386097442733826
6806.860935610649,-0.033937101968778756
6806.861935382864,-0.034007872045303464
6806.86293515508,-0.03407326505561581
6806.863934927294,-0.03413326269573881
6806.86493469951,-0.034187847961024316
6806.865934471725,-0.03423700514786807
6806.866934243941,-0.03428071985513158
6806.867934016156,-0.034318978985271614
6806.868933788372,-0.034351770745177944
6806.869933560586,-0.03437908464671957
6806.8709333328015,-0.03440091150699955
6806.871933105017,-0.03441724344831792
6806.872932877232,-0.034428073897841846
6806.873932649448,-0.03443339758698197
6806.874932421662,-0.034433210550473374
6806.875932193878,-0.034427510125159634
6806.876931966093,-0.03441629494847812
6806.877931738309,-0.03439956495664522
6806.878931510524,-0.03437732138253994
6806.879931282739,-0.034349566753284905
6806.880931054954,-0.03431630488752377
6806.8819308271695,-0.03427754089239427
6806.882930599385,-0.03423328116019644
6806.8839303716,-0.03418353336475537
6806.884930143816,-0.03412830645747834
6806.88592991603,-0.034067610663105985
6806.886929688246,-0.03400145747515739
6806.887929460461,-0.033929859651069275
6806.888929232677,-0.03385283120702941
6806.889929004892,-0.03377038741250452
6806.890928777107,-0.033682544784462816
6806.891928549322,-0.033589321081291146
6806.8929283215375,-0.03349073529640693
6806.893928093753,-0.033386807651564494
6806.894927865968,-0.033277559589855676
6806.895927638183,-0.03316301376840429
6806.896927410398,-0.03304319405075428
6806.897927182614,-0.03291812549895164
6806.898926954829,-0.03278783436532038
6806.899926727045,-0.03265234808393326
6806.90092649926,-0.03251169526177844
6806.901926271475,-0.03236590566962351
6806.90292604369,-0.032215010232578965
6806.9039258159055,-0.032059041020363194
6806.904925588121,-0.03189803123727164
6806.905925360336,-0.03173201521185279
6806.906925132551,-0.03156102838629405
6806.907924904766,-0.03138510730552054
6806.908924676982,-0.031204289606009867
6806.909924449197,-0.031018614004326147
6806.910924221413,-0.030828120285376317
6806.911923993628,-0.0306328492903918
6806.912923765843,-0.030432842904638446
6806.913923538058,-0.030228144044857515
6806.9149233102735,-0.030018796646440613
6806.915923082489,-0.02980484565034118
6806.916922854704,-0.02958633698972557
6806.917922626919,-0.02936331757636685
6806.918922399134,-0.02913583528678479
6806.91992217135,-0.028903938948135807
6806.920921943565,-0.02866767832385708
6806.921921715781,-0.028427104099069355
6806.922921487996,-0.02818226786574343
6806.923921260211,-0.0279332221076353
6806.924921032426,-0.027680020184995508
6806.9259208046415,-0.027422716319058127
6806.926920576857,-0.02716136557631514
6806.927920349072,-0.026896023852581896
6806.928920121287,-0.02662674785685955
6806.929919893502,-0.0263535950950003
6806.930919665718,-0.02607662385318096
6806.931919437933,-0.025795893181190476
6806.932919210149,-0.025511462875536486
6806.933918982364,-0.0252233934623758
6806.934918754579,-0.02493174618027356
6806.935918526794,-0.024636582962795493
6806.936918299009,-0.024337966420937777
6806.937918071225,-0.024035959825399137
6806.93891784344,-0.023730627088699816
6806.939917615655,-0.023422032747152398
6806.94091738787,-0.02311024194268965
6806.941917160086,-0.0227953204045547
6806.942916932301,-0.022477334430859114
6806.943916704517,-0.022156350870014493
6806.944916476731,-0.021832437102043422
6806.945916248947,-0.021505661019775524
6806.946916021162,-0.021176091009934478
6806.947915793377,-0.02084379593412186
6806.948915565593,-0.020508845109703626
6806.949915337808,-0.020171308290604855
6806.950915110023,-0.019831255648018336
6806.951914882238,-0.019488757751032235
6806.952914654454,-0.019143885547181893
6806.953914426669,-0.018796710342930654
6806.954914198885,-0.018447303784084424
6806.955913971099,-0.018095737836144606
6806.9569137433145,-0.01774208476460395
6806.95791351553,-0.017386417115190036
6806.958913287745,-0.017028807694061086
6806.959913059961,-0.01666932954795906
6806.960912832175,-0.01630805594432518
6806.961912604391,-0.015945060351383284
6806.962912376606,-0.015580416418196623
6806.963912148822,-0.01521419795470398
6806.964911921037,-0.014846478911741182
6806.965911693253,-0.014477333361054275
6806.966911465467,-0.014106835475310804
6806.9679112376825,-0.013735059508115778
6806.968911009898,-0.013362079774038913
6806.969910782113,-0.012987970628659792
6806.970910554329,-0.012612806448637357
6806.971910326543,-0.012236661611810166
6806.972910098759,-0.011859610477333487
6806.973909870974,-0.011481727365859118
6806.97490964319,-0.01110308653976368
6806.975909415405,-0.010723762183431037
6806.976909187621,-0.010343828383594534
6806.977908959835,-0.009963359109744949
6806.9789087320505,-0.009582428194610318
6806.979908504266,-0.009201109314714071
6806.980908276481,-0.008819475971018315
6806.981908048697,-0.008437601469659353
6806.982907820911,-0.008055558902782933
6806.983907593127,-0.007673421129486878
6806.984907365342,-0.007291260756879015
6806.985907137558,-0.006909150121258414
6806.986906909773,-0.0065271612694280685
6806.9879066819885,-0.006145365940147147
6806.988906454203,-0.0057638355457309
6806.9899062264185,-0.005382641153806202
6806.990905998634,-0.005001853469230465
6806.991905770849,-0.004621542816181351
6806.992905543065,-0.004241779120424362
6806.993905315279,-0.0038626318917649605
6806.994905087495,-0.003484170206691526
6806.99590485971,-0.0031064626912151163
6806.996904631926,-0.0027295775039118614
6806.997904404141,-0.0023535823191736752
6806.9989041763565,-0.0019785443106729726
6806.999903948571,-0.0016045301350471196
6807.0009037207865,-0.001231605915808405
6807.001903493002,-0.0008598372274854005
6807.002903265217,-0.0004892890800016259
6807.003903037433,-0.0001200259032974767
6807.004902809647,0.0002478884677986338
6807.005902581863,0.0006143908084440073
6807.006902354078,0.0009794185183944427
6807.007902126294,0.0013429096363503643
6807.008901898509,0.0017048028540307713
6807.009901670724,0.002065037529969732
6807.010901442939,0.0024235537030305007
6807.0119012151545,0.0027802921056327722
6807.01290098737,0.0031351941766891264
6807.013900759585,0.0034882020742472417
6807.014900531801,0.0038392586878349642
6807.015900304015,0.004188307650505759
6807.016900076231,0.004535293350582392
6807.017899848446,0.004880160943096906
6807.018899620662,0.005222856360925017
6807.019899392877,0.005563326325613078
6807.020899165092,0.005901518357895654
6807.021898937307,0.006237380787901642
6807.022898709522,0.0065708627650467024
6807.023898481738,0.006901914267609597
6807.024898253953,0.007230486111989924
6807.025898026168,0.007556529961644617
6807.026897798383,0.007879998335700555
6807.027897570599,0.008200844617240586
6807.028897342814,0.008519023061260358
6807.02989711503,0.008834488802293445
6807.030896887245,0.009147197861702436
6807.03189665946,0.009457107154634036
6807.032896431675,0.009764174496636512
6807.03389620389,0.010068358609938285
6807.034895976106,0.01036961912938676
6807.035895748321,0.010667916608046833
6807.036895520536,0.010963212522458668
6807.037895292751,0.011255469277554456
6807.038895064967,0.011544650211233807
6807.039894837182,0.011830719598597416
6807.040894609398,0.012113642655838478
6807.041894381613,0.012393385543791206
6807.042894153828,0.012669915371135753
6807.043893926043,0.012943200197258652
6807.044893698258,0.01321320903476803
6807.045893470474,0.01347991185166292
6807.046893242689,0.013743279573156172
6807.047893014904,0.014003284083150774
6807.048892787119,0.01425989822536969
6807.049892559335,0.01451309580413979
6807.05089233155,0.014762851584830863
6807.051892103766,0.015009141293951266
6807.052891875981,0.015251941618902231
6807.053891648196,0.015491230207393418
6807.054891420411,0.015726985666522742
6807.055891192626,0.015959187561523744
6807.056890964842,0.016187816414184094
6807.057890737057,0.016412853700938694
6807.058890509272,0.01663428185064093
6807.059890281487,0.016852084242015456
6807.060890053703,0.01706624520079583
6807.061889825918,0.017276749996550152
6807.062889598134,0.017483584839197867
6807.063889370349,0.01768673687522078
6807.064889142564,0.01788619418357144
6807.065888914779,0.018081945771282082
6807.066888686994,0.01827398156877744
6807.06788845921,0.018462292424894958
6807.068888231425,0.018646870101616114
6807.06988800364,0.018827707268512902
6807.070887775855,0.019004797496913937
6807.071887548071,0.019178135253795015
6807.072887320286,0.019347715895399485
6807.0738870925015,0.019513535660594192
6807.074886864716,0.019675591663967134
6807.075886636932,0.019833881888673285
6807.076886409147,0.019988405179035162
6807.077886181362,0.02013916123290487
6807.078885953578,0.020286150593794253
6807.079885725793,0.020429374642779604
6807.080885498008,0.020568835590187372
6807.081885270223,0.020704536467067023
6807.082885042439,0.02083648111645717
6807.083884814654,0.02096467418445092
6807.0848845868695,0.021089121111066332
6807.085884359084,0.02120982812092799
6807.0868841313,0.021326802213765466
6807.087883903515,0.021440051154734654
6807.08888367573,0.021549583464567874
6807.089883447946,0.02165540840955883
6807.09088322016,0.021757535991388573
6807.091882992376,0.02185597693679885
6807.092882764591,0.02195074268711951
6807.093882536807,0.022041845387656914
6807.094882309022,0.022129297876950536
6807.0958820812375,0.022213113675905123
6807.096881853452,0.0222933069768059
6807.097881625668,0.022369892632224338
6807.098881397883,0.022442886143822074
6807.099881170098,0.022512303651060238
6807.100880942314,0.022578161919821517
6807.101880714528,0.022640478330951962
6807.102880486744,0.022699270868729297
6807.103880258959,0.022754558109264425
6807.104880031175,0.022806359208842573
6807.10587980339,0.022854693892210363
6807.1068795756055,0.022899582440815032
6807.10787934782,0.022941045681001925
6807.108879120035,0.022979104972176288
6807.109878892251,0.023013782194935273
6807.110878664466,0.023045099739176168
6807.111878436682,0.023073080492186857
6807.112878208896,0.0230977478267247
6807.113877981112,0.023119125589090152
6807.114877753327,0.023137238087201483
6807.115877525543,0.02315211007867716
6807.116877297758,0.02316376675893241
6807.1178770699735,0.023172233749296358
6807.118876842188,0.023177537085155936
6807.119876614403,0.023179703204132554
6807.120876386619,0.023178758934297102
6807.121876158834,0.023174731482428736
6807.12287593105,0.023167648422322495
6807.123875703264,0.023157537683150726
6807.12487547548,0.023144427537883015
6807.125875247695,0.023128346591769187
6807.126875019911,0.023109323770889794
6807.127874792126,0.023087388310778414
6807.1288745643415,0.02306256974511982
6807.129874336556,0.0230348978945282
6807.130874108771,0.02300440285540932
6807.131873880987,0.022971114988910798
6807.132873653202,0.022935064909964584
6807.133873425418,0.022896283476426013
6807.134873197632,0.022854801778313703
6807.135872969848,0.022810651127154698
6807.136872742063,0.02276386304543912
6807.137872514279,0.022714469256188637
6807.138872286494,0.022662501672642704
6807.1398720587085,0.022607992388066347
6807.140871830924,0.022550973665683052
6807.141871603139,0.022491477928735834
6807.142871375355,0.02242953775067932
6807.14387114757,0.022365185845505443
6807.144870919786,0.022298455058204866
6807.145870692,0.02222937835536616
6807.146870464216,0.02215798881591444
6807.147870236431,0.022084319621990804
6807.148870008647,0.02200840404997393
6807.149869780862,0.021930275461644826
6807.1508695530765,0.021849967295495883
6807.151869325292,0.021767513058185257
6807.152869097507,0.021682946316137788
6807.153868869723,0.021596300687293745
6807.154868641938,0.021507609833006806
6807.155868414153,0.02141690745009257
6807.156868186368,0.02132422726302894
6807.157867958584,0.021229603016309474
6807.158867730799,0.021133068466950372
6807.159867503015,0.02103465737715155
6807.16086727523,0.020934403507111836
6807.1618670474445,0.020832340607997938
6807.16286681966,0.0207285024150665
6807.163866591875,0.02062292264093841
6807.164866364091,0.020515634969024164
6807.165866136306,0.02040667304709918
6807.166865908521,0.020296070481027557
6807.167865680736,0.020183860828633004
6807.168865452952,0.020070077593715346
6807.169865225167,0.019954754220211212
6807.170864997383,0.019837924086497448
6807.171864769598,0.019719620499835954
6807.1728645418125,0.01959987669095885
6807.173864314028,0.019478725808792986
6807.174864086243,0.019356200915322957
6807.175863858459,0.019232334980591827
6807.176863630674,0.01910716087783868
6807.177863402889,0.018980711378771973
6807.178863175104,0.01885301914897734
6807.17986294732,0.01872411674345829
6807.180862719535,0.01859403660230778
6807.181862491751,0.01846281104650839
6807.182862263966,0.01833047227385844
6807.1838620361805,0.018197052355021216
6807.184861808396,0.01806258322969419
6807.185861580611,0.017927096702895072
6807.186861352827,0.017790624441361334
6807.187861125042,0.01765319797006005
6807.188860897257,0.017514848668804782
6807.189860669472,0.01737560776897639
6807.190860441688,0.01723550635034485
6807.191860213903,0.017094575337989425
6807.192859986119,0.01695284549931477
6807.193859758334,0.016810347441160875
6807.1948595305485,0.016667111607004882
6807.195859302764,0.016523168274253063
6807.196859074979,0.01637854755162115
6807.197858847195,0.01623327937660117
6807.19885861941,0.016087393513012797
6807.199858391625,0.015940919548636846
6807.20085816384,0.01579388689292848
6807.201857936056,0.01564632477480736
6807.202857708271,0.015498262240521882
6807.203857480487,0.015349728151584627
6807.204857252701,0.01520075118277596
6807.205857024916,0.015051359820212848
6807.206856797132,0.014901582359479956
6807.207856569347,0.014751446903820112
6807.208856341563,0.014600981362381379
6807.209856113778,0.0144502134485182
6807.210855885993,0.014299170678144292
6807.211855658208,0.01414788036813537
6807.212855430424,0.013996369634780102
6807.213855202639,0.013844665392278094
6807.214854974855,0.013692794351283932
6807.215854747069,0.013540783017496581
6807.216854519284,0.013388657690293529
6807.2178542915,0.013236444461409083
6807.218854063715,0.013084169213656158
6807.219853835931,0.012931857619690828
6807.220853608145,0.012779535140818782
6807.221853380361,0.012627227025842735
6807.222853152576,0.012474958309949753
6807.223852924792,0.01232275381363735
6807.224852697007,0.01217063814167725
6807.225852469222,0.012018635682115595
6807.226852241437,0.01186677060530839
6807.227852013652,0.011715066862990982
6807.228851785868,0.011563548187380425
6807.229851558083,0.011412238090309708
6807.230851330299,0.011261159862392964
6807.231851102513,0.011110336572221107
6807.232850874729,0.01095979106558761
6807.233850646944,0.010809545964744463
6807.23485041916,0.010659623667688715
6807.235850191375,0.01051004634748017
6807.23684996359,0.010360835951591025
6807.237849735805,0.010212014201288264
6807.23884950802,0.010063602591049627
6807.239849280236,0.009915622388013957
6807.240849052451,0.009768094631466613
6807.241848824667,0.009621040132360618
6807.242848596881,0.00947447947287409
6807.243848369097,0.009328433006004418
6807.244848141312,0.009182920855199582
6807.245847913528,0.009037962914026913
6807.246847685743,0.00889357884587946
6807.247847457958,0.008749788083720034
6807.248847230173,0.008606609829862935
6807.249847002388,0.008464063055793258
6807.250846774604,0.008322166502023807
6807.251846546819,0.00818093867798963
6807.252846319035,0.008040397861980391
6807.253846091249,0.007900562101110844
6807.254845863465,0.0077614492113297715
6807.25584563568,0.0076230767774677225
6807.256845407896,0.007485462153323717
6807.257845180111,0.007348622461790901
6807.258844952326,0.007212574595020814
6807.259844724541,0.0070773352146256
6807.260844496756,0.006942920751917106
6807.261844268972,0.006809347408181513
6807.262844041187,0.006676631154987779
6807.263843813403,0.006544787734527947
6807.264843585617,0.006413832659987232
6807.265843357833,0.006283781215941681
6807.266843130048,0.0061546484587812
6807.267842902264,0.006026449217155758
6807.268842674479,0.005899198092442625
6807.2698424466935,0.0057729094592326845
6807.270842218909,0.005647597465834021
6807.271841991124,0.005523276034791336
6807.27284176334,0.005399958863420054
6807.273841535555,0.005277659424354367
6807.274841307771,0.005156390966108802
6807.275841079985,0.005036166513653146
6807.276840852201,0.0049169988690007365
6807.277840624416,0.004798900611810116
6807.278840396632,0.004681884099999998
6807.279840168847,0.0045659614703773286
6807.2808399410615,0.004451144639278014
6807.281839713277,0.004337445303219672
6807.282839485492,0.00422487493956557
6807.283839257708,0.004113444807198683
6807.284839029923,0.004003165947204707
6807.285838802138,0.0038940491835627515
6807.286838574353,0.0037861051238423904
6807.287838346569,0.003679344159905794
6807.288838118784,0.0035737764686136924
6807.289837891,0.0034694120125340912
6807.290837663215,0.003366260540652837
6807.291837435429,0.0032643315890854186
6807.292837207645,0.0031636344817897117
6807.29383697986,0.00306417833127971
6807.294836752076,0.002965972039340564
6807.295836524291,0.0028690242977454697
6807.296836296506,0.002773343588975023
6807.297836068721,0.0026789381869396153
6807.298835840937,0.0025858161577053547
6807.299835613152,0.002493985360223821
6807.300835385368,0.0024034534470657913
6807.301835157583,0.002314227865158884
6807.302834929797,0.002226315856528922
6807.303834702013,0.002139724459044692
6807.304834474228,0.002054460507165675
6807.305834246444,0.0019705306326922483
6807.306834018659,0.0018879412655178121
6807.307833790874,0.0018066986343822705
6807.308833563089,0.001726808767626323
6807.309833335305,0.001648277493946133
6807.31083310752,0.0015711104431481511
6807.311832879735,0.0014953130469041469
6807.312832651951,0.0014208905395068378
6807.313832424165,0.0013478479586268158
6807.314832196381,0.0012761901460717135
6807.315831968596,0.0012059217485486794
6807.316831740812,0.0011370472184312227
6807.317831513027,0.0010695708145313503
6807.318831285242,0.0010034966028776887
6807.319831057457,0.0009388284574999997
6807.320830829673,0.0008755700612202309
6807.321830601888,0.0008137249064500021
6807.322830374103,0.0007532962959942371
6807.323830146319,0.0006942873438604832
6807.324829918533,0.0006367009760733444
6807.325829690749,0.000580539931493361
6807.326829462964,0.0005258067626396267
6807.32782923518,0.0004725038365154234
6807.328829007395,0.0004206333354361961
6807.32982877961,0.00037019725785926774
6807.330828551825,0.0003211974192148327
6807.3318283240405,0.00027363545273794646
6807.332828096256,0.0002275128103014492
6807.333827868471,0.00018283076324999758
6807.334827640686,0.00013959040323559903
6807.335827412901,9.779264305521422e-05
6807.336827185117,5.7438217491086516e-05
6807.337826957332,1.852768415446214e-05
6807.338826729548,-1.8938575666708988e-05
6807.339826501763,-5.496035615563264e-05
6807.340826273978,-8.953762610979336e-05
6807.341826046193,-0.00012267052807921964
6807.3428258184085,-0.00015435937749993988
6807.343825590624,-0.00018460466182282947
6807.344825362839,-0.00021340703963816483
6807.345825135054,-0.00024076733979627485
6807.346824907269,-0.0002666865605247178
6807.347824679485,-0.0002911658685424244
6807.3488244517,-0.0003142065981712285
6807.349824223916,-0.00033581025044514436
6807.35082399613,-0.00035597849221762
6807.351823768346,-0.0003747131552667907
6807.352823540561,-0.0003920162353984999
6807.3538233127765,-0.00040788989154659353
6807.354823084992,-0.0004223364448697939
6807.355822857207,-0.0004353583778443742
6807.356822629422,-0.00044695833335191634
6807.357822401637,-0.0004571391137616293
6807.358822173853,-0.00046590368000701303
6807.359821946068,-0.0004732551506570067
6807.360821718284,-0.00047919680098213065
6807.361821490498,-0.00048373206201646646
6807.362821262714,-0.00048686451961658895
6807.363821034929,-0.000488597913518761
6807.3648208071445,-0.0004889361363958121
6807.36582057936,-0.00048788323291515764
6807.366820351575,-0.00048544339879938854
6807.36782012379,-0.00048162097989079463
6807.368819896005,-0.0004764204712210788
6807.369819668221,-0.00046984651608735986
6807.370819440436,-0.0004619039051353247
6807.371819212652,-0.0004525975754500566
6807.372818984866,-0.00044193260965466336
6807.373818757082,-0.00042991423501639083
6807.374818529297,-0.0004165478225594973
6807.3758183015125,-0.00040183888618383753
6807.376818073728,-0.0003857930817878986
6807.377817845943,-0.0003684162063949678
6807.378817618158,-0.0003497141972811797
6807.379817390373,-0.000329693131104348
6807.380817162589,-0.00030835922303268446
6807.381816934804,-0.00028571882587270477
6807.38281670702,-0.00026177842919579143
6807.383816479234,-0.00023654465846303176
6807.38481625145,-0.00021002427414807846
6807.385816023665,-0.00018222417085790146
6807.3868157958805,-0.0001531513764514164
6807.387815568096,-0.0001228130511560763
6807.388815340311,-9.121648668257593e-05
6807.389815112526,-5.83691053378018e-05
6807.390814884741,-2.4278459136044858e-05
6807.391814656957,1.104777109171296e-05
6807.392814429172,4.7601776590884095e-05
6807.393814201388,8.537562157942846e-05
6807.394813973602,0.00012436124414795928
6807.395813745818,0.0001645504571647765
6807.396813518033,0.00020593494918677354
6807.397813290248,0.00024850628537701164
6807.398813062464,0.00029225590842949645
6807.399812834678,0.00033717513950134835
6807.400812606894,0.0003832551791521681
6807.401812379109,0.000430487108289996
6807.402812151325,0.00047886188912287284
6807.40381192354,0.0005283703661146524
6807.404811695756,0.0005790032669434015
6807.40581146797,0.0006307512034604573
6807.406811240186,0.0006836046726479978
6807.407811012401,0.0007375540575728222
6807.408810784616,0.0007925896283339342
6807.409810556832,0.0008487015430015026
6807.410810329046,0.000905879848544833
6807.411810101262,0.0009641144817471416
6807.412809873477,0.001023395270105146
6807.413809645693,0.0010837119327117431
6807.414809417908,0.0011450540811202932
6807.415809190123,0.0012074112201892113
6807.416808962338,0.0012707727489056633
6807.417808734554,0.001335127961187143
6807.418808506769,0.001400466046659593
6807.419808278984,0.0014667760914105273
6807.4208080512,0.0015340470787153773
6807.421807823414,0.0016022678897350134
6807.42280759563,0.0016714273041821498
6807.423807367845,0.0017415140009541148
6807.424807140061,0.00181251655872926
6807.425806912276,0.0018844234565241259
6807.426806684491,0.0019572230742083575
6807.427806456706,0.002030903692974293
6807.4288062289215,0.002105453495758164
6807.429806001137,0.002180860567609937
6807.430805773352,0.002257112896009046
6807.431805545568,0.002334198371123567
6807.432805317782,0.0024121047860107873
6807.433805089998,0.0024908198367575023
6807.434804862213,0.002570331122558748
6807.435804634429,0.002650626145733889
6807.436804406644,0.002731692311679134
6807.437804178859,0.002813516928755501
6807.438803951074,0.0028960872081111567
6807.4398037232895,0.002979390263436844
6807.440803495505,0.003063413110652891
6807.44180326772,0.0031481426675260414
6807.442803039936,0.003233565753214139
6807.44380281215,0.0033196690877364747
6807.444802584366,0.0034064392913674838
6807.445802356581,0.003493862883951376
6807.446802128797,0.003581926284135249
6807.447801901012,0.003670615808518286
6807.448801673227,0.0037599176707147236
6807.449801445442,0.003849817980328496
6807.4508012176575,0.0039403027418377515
6807.451800989873,0.004031357853387848
6807.452800762088,0.004122969105491906
6807.453800534304,0.004215122179638486
6807.454800306518,0.004307802646806428
6807.455800078734,0.00440099596588725
6807.456799850949,0.004494687482015809
6807.457799623165,0.0045888624248100795
6807.45879939538,0.00468350590652094
6807.459799167595,0.004778602920092889
6807.46079893981,0.004874138337136551
6807.4617987120255,0.0049700969058138296
6807.462798484241,0.005066463248636544
6807.463798256456,0.005163221860179446
6807.464798028671,0.005260357104708524
6807.465797800886,0.005357853213725579
6807.466797573102,0.005455694283430129
6807.467797345317,0.005553864272099781
6807.468797117533,0.005652346997390326
6807.469796889748,0.005751126133556985
6807.470796661963,0.005850185208598492
6807.471796434178,0.00594950760132602
6807.4727962063935,0.006049076538359322
6807.473795978609,0.006148875091052758
6807.474795750824,0.006248886172354258
6807.475795523039,0.006349092533600459
6807.476795295254,0.00644947676125138
6807.47779506747,0.006550021273568005
6807.478794839685,0.006650708317236111
6807.479794611901,0.006751519963939587
6807.480794384115,0.006852438106886375
6807.481794156331,0.006953444457290121
6807.482793928546,0.007054520540810626
6807.483793700761,0.007155647693956248
6807.484793472977,0.007256807060451465
6807.485793245192,0.007357979587573027
6807.486793017407,0.007459146022458226
6807.487792789622,0.007560286908389091
6807.488792561838,0.007661382581056552
6807.489792334053,0.007762413164808946
6807.490792106269,0.00786335856888966
6807.491791878483,0.007964198483669237
6807.492791650699,0.008064912376877805
6807.493791422914,0.008165479489844245
6807.494791195129,0.008265878833748975
6807.495790967345,0.008366089185897579
6807.49679073956,0.00846608908602268
6807.497790511775,0.008565856832621552
6807.49879028399,0.008665370479336862
6807.499790056206,0.008764607831387806
6807.500789828421,0.00886354644205873
6807.501789600637,0.008962163609252153
6807.502789372851,0.009060436372112983
6807.503789145067,0.009158341507730565
6807.504788917282,0.00925585552792516
6807.505788689497,0.009352954676125442
6807.506788461713,0.009449614924343618
6807.507788233928,0.009545811970254949
6807.508788006143,0.009641521234388585
6807.509787778358,0.009736717857436924
6807.510787550574,0.009831376697691038
6807.511787322789,0.009925472328610088
6807.512787095005,0.010018979036533095
6807.513786867219,0.010111870818541797
6807.5147866394345,0.010204121380483693
6807.51578641165,0.010295704135164601
6807.516786183865,0.010386592200720116
6807.517785956081,0.010476758399175378
6807.518785728296,0.010566175255202299
6807.519785500511,0.010654814995083216
6807.520785272726,0.010742649545889582
6807.521785044942,0.010829650534884131
6807.522784817157,0.010915789289154702
6807.523784589373,0.011001036835487844
6807.524784361587,0.011085363900490268
6807.5257841338025,0.01116874091096611
6807.526783906018,0.011251137994558015
6807.527783678233,0.011332524980660024
6807.528783450449,0.011412871401610332
6807.529783222663,0.011492146494172044
6807.530782994879,0.011570319201310342
6807.531782767094,0.011647358174274723
6807.53278253931,0.011723231774995289
6807.533782311525,0.011797908078802521
6807.5347820837405,0.01187135487748014
6807.535781855955,0.011943539682660915
6807.5367816281705,0.012014429729575305
6807.537781400386,0.012083991981162627
6807.538781172601,0.012152193132554301
6807.539780944817,0.012218999615938237
6807.540780717031,0.012284377605813242
6807.541780489247,0.012348293024641766
6807.542780261462,0.012410711548909025
6807.543780033678,0.012471598615596267
6807.544779805893,0.012530919429075572
6807.545779578108,0.012588638968433324
6807.546779350323,0.01264472199522925
6807.5477791225385,0.012699133061697633
6807.548778894754,0.012751836519397111
6807.549778666969,0.012802796528315416
6807.550778439185,0.012851977066435302
6807.551778211399,0.012899341939768104
6807.552777983615,0.01294485479286135
6807.55377775583,0.01298847911978705
6807.554777528046,0.013030178275617296
6807.555777300261,0.013069915488393785
6807.556777072476,0.013107653871597753
6807.557776844691,0.013143356437126621
6807.5587766169065,0.013176986108783262
6807.559776389122,0.013208505736283425
6807.560776161337,0.013237878109786431
6807.561775933553,0.013265065974953688
6807.562775705767,0.013290032048539112
6807.563775477983,0.01331273903451509
6807.564775250198,0.01333314964073715
6807.565775022414,0.013351226596150042
6807.566774794629,0.013366932668537475
6807.567774566844,0.013380230682817344
6807.568774339059,0.01339108353988385
6807.5697741112745,0.013399454235997584
6807.57077388349,0.013405305882724391
6807.571773655705,0.013408601727423556
6807.572773427921,0.0134093051742857
6807.573773200135,0.01340737980592038
6807.574772972351,0.013402789405492992
6807.575772744566,0.013395497979409768
6807.576772516782,0.013385469780548533
6807.577772288997,0.013372669332031524
6807.578772061212,0.01335706145153489
6807.579771833427,0.013338611276127487
6807.580771605642,0.013317284287629527
6807.581771377858,0.013293046338479254
6807.582771150073,0.013265863678093476
6807.583770922289,0.013235702979705073
6807.584770694503,0.013202531367657866
6807.585770466719,0.013166316445136338
6807.586770238934,0.013127026322304582
6807.58777001115,0.01308462964482578
6807.588769783365,0.013039095622730274
6807.58976955558,0.012990394059597085
6807.590769327795,0.012938495382010522
6807.59176910001,0.012883370669250433
6807.592768872226,0.01282499168317155
6807.593768644441,0.012763330898224408
6807.594768416656,0.012698361531567405
6807.595768188871,0.0126300575732168
6807.596767961087,0.012558393816178763
6807.597767733302,0.012483345886505083
6807.598767505518,0.012404890273211726
6807.599767277733,0.012323004357997337
6807.600767049948,0.012237666444696904
6807.601766822163,0.012148855788404403
6807.602766594378,0.012056552624197215
6807.603766366594,0.011960738195394699
6807.604766138809,0.011861394781283487
6807.605765911024,0.011758505724242852
6807.606765683239,0.011652055456204742
6807.607765455455,0.01154202952438492
6807.60876522767,0.011428414616223813
6807.609764999886,0.011311198583478085
6807.6107647721,0.011190370465406711
6807.611764544316,0.011065920510998235
6807.612764316531,0.010937840200189142
6807.613764088746,0.010806122264026842
6807.614763860962,0.010670760703734513
6807.615763633177,0.010531750808639075
6807.616763405392,0.010389089172927787
6807.617763177607,0.01024277371120315
6807.618762949823,0.010092803672810072
6807.619762722038,0.009939179654913472
6807.6207624942535,0.009781903614308607
6807.621762266468,0.009620978877950472
6807.622762038684,0.009456410152192408
6807.623761810899,0.009288203530727904
6807.624761583114,0.00911636650123304
6807.62576135533,0.008940907950710616
6807.626761127545,0.008761838169540343
6807.62776089976,0.008579168854242897
6807.628760671975,0.008392913108968931
6807.629760444191,0.008203085445727473
6807.630760216406,0.008009701783371345
6807.6317599886215,0.007812779445360395
6807.632759760836,0.007612337156326275
6807.633759533052,0.0074083950374651784
6807.634759305267,0.0072009746007874196
6807.635759077482,0.006990098742254695
6807.636758849698,0.0067757917338375105
6807.637758621913,0.0065580792145264015
6807.638758394128,0.006336988180331338
6807.639758166343,0.0061125469733041065
6807.640757938559,0.0058847852696186104
6807.641757710774,0.005653734066743997
6807.6427574829895,0.0054194256697453385
6807.643757255204,0.005181893676746344
6807.64475702742,0.004941172963588254
6807.645756799635,0.0046972996677186645
6807.64675657185,0.004450311171343615
6807.647756344066,0.004200246083875778
6807.648756116281,0.003947144223711122
6807.649755888496,0.00369104659936593
6807.650755660711,0.0034319953900057137
6807.651755432927,0.0031700339253972493
6807.652755205142,0.0029052066653147027
6807.6537549773575,0.002637559178430542
6807.654754749572,0.0023671381207216314
6807.655754521788,0.002093991213420473
6807.656754294003,0.0018181672205410102
6807.657754066218,0.001539715926007745
6807.658753838434,0.0012586881104161133
6807.659753610649,0.0009751355274512272
6807.660753382864,0.0006891108799912206
6807.661753155079,0.00040066779592060953
6807.662752927295,0.00010986080367829532
6807.66375269951,-0.00018325469243587542
6807.6647524717255,-0.0004786224371727461
6807.66575224394,-0.0007761853494410777
6807.666752016155,-0.0010758855475884019
6807.667751788371,-0.0013776643748341603
6807.668751560586,-0.0016814624248344002
