Time,Filtered_EMG_Bicep,Filtered_EMG_Tricep
6572.678290994949,0.004035037043766849,0.003568235056106745
6572.679290767164,0.004423470113626635,0.004168498055578927
6572.68029053938,0.004812254500370261,0.004794002026405505
6572.681290311595,0.005197888571394513,0.005440726045665691
6572.682290083811,0.005576802228355646,0.006104230228841781
6572.683289856025,0.005945414084381445,0.006779702083988448
6572.684289628241,0.0063001917228637785,0.007462011755534999
6572.685289400456,0.006637713647889559,0.008145775660528515
6572.686289172671,0.006954731362419258,0.008825427803027051
6572.687288944887,0.007248229954720391,0.009495297795159997
6572.688288717101,0.007515485650662756,0.01014969431306838
6572.689288489317,0.007754118938008987,0.010782992389056481
6572.690288261532,0.007962141993489666,0.01138972261514694
6572.691288033748,0.008137999183534625,0.011964660063960691
6572.692287805963,0.008280599379736272,0.012502910630662934
6572.693287578178,0.008389338834248397,0.01299999265455664
6572.694287350393,0.008464113539249451,0.013451912013595612
6572.6952871226085,0.008505320403635951,0.01385522915584074
6572.696286894824,0.008513847130617608,0.014207116548207508
6572.697286667039,0.008491051212564736,0.01450540484213154
6572.698286439255,0.00843872883463576,0.014748615929709151
6572.699286211469,0.008359074622214972,0.01493598122521528
6572.700285983685,0.008254633127528069,0.015067444024509559
6572.7012857559,0.008128242924347112,0.015143645577561267
6572.702285528116,0.0079829743807084,0.015165895373883048
6572.703285300331,0.007822062627157199,0.015136126872609014
6572.704285072546,0.007648837720799533,0.015056840356601263
6572.705284844761,0.00746665428810644,0.014931034789600171
6572.7062846169765,0.007278822941071054,0.014762130717082681
6572.707284389192,0.007088545571313552,0.01455388654274813
6572.708284161407,0.006898856322101649,0.014310310895253624
6572.709283933622,0.0067125696709679685,0.014035574109734073
6572.710283705837,0.006532236660942525,0.013733921956814795
6572.711283478053,0.00636010993228133,0.01340959461416393
6572.712283250268,0.006198117857267833,0.013066753504165082
6572.713283022484,0.006047847774669794,0.01270941806906117
6572.714282794699,0.005910538045070127,0.012341413904837246
6572.715282566914,0.005787078390366422,0.01196633300062781
6572.716282339129,0.005678017744323723,0.011587506168688758
6572.7172821113445,0.005583578657058023,0.01120798713246042
6572.71828188356,0.005503677210845604,0.01083054722439877
6572.719281655775,0.005437947437959214,0.01045767926918144
6572.72028142799,0.005385769352907065,0.010091608959240887
6572.721281200205,0.005346299866739482,0.009734311828332967
6572.722280972421,0.005318505988614371,0.009387533841921739
6572.723280744636,0.005301199793848728,0.00905281374436646
6572.724280516852,0.005293074624215161,0.008731505647847205
6572.725280289067,0.005292741898551389,0.008424800810507433
6572.726280061282,0.00529876778038909,0.008133747967073687
6572.727279833497,0.005309708810951933,0.00785927181411944
6572.7282796057125,0.005324145533742016,0.007602189288123546
6572.729279377928,0.005340713187521486,0.007363223202904708
6572.730279150143,0.005358128756956307,0.007143012793091809
6572.731278922358,0.005375213999130744,0.006942120856355407
6572.732278694573,0.0053909144212285365,0.0067610374836752606
6572.733278466789,0.005404314473510413,0.00660018067902496
6572.734278239004,0.005414649366815381,0.0064598943509883615
6572.73527801122,0.005421313908585234,0.006340444165750268
6572.736277783435,0.005423868621270366,0.0062420116611073915
6572.73727755565,0.005422043226573523,0.006164686946632108
6572.738277327865,0.005415737408444681,0.006108460305647296
6572.7392771000805,0.0054050186721424,0.006073213043888748
6572.740276872296,0.005390117147413926,0.006058707960115693
6572.741276644511,0.0053714173218560035,0.006064579841132024
6572.742276416726,0.005349446839924622,0.006090326411637188
6572.743276188941,0.005324862581086926,0.006135300185027886
6572.744275961157,0.005298434244825178,0.006198701658743812
6572.745275733372,0.005271025678130468,0.006279574301463537
6572.746275505588,0.0052435742075228,0.006376801813693784
6572.747275277803,0.005217068271503976,0.006489108186156655
6572.748275050018,0.005192523697837132,0.006615061082414313
6572.749274822233,0.005170959064882981,0.006753079016173101
6572.7502745944485,0.0051533707285985435,0.006901442696650676
6572.751274366664,0.005140708233831278,0.00705831078392235
6572.752274138879,0.005133850902522606,0.007221740124000602
6572.753273911094,0.005133586381034857,0.007389710326325717
6572.754273683309,0.005140591834186712,0.007560152314467016
6572.755273455525,0.005155418301845328,0.007730980225191016
6572.75627322774,0.005178478511882406,0.007900125757429818
6572.757272999956,0.005210038222882785,0.00806557380182584
6572.75827277217,0.005250211014125468,0.008225397955814704
6572.759272544386,0.005298956393327298,0.008377794431019927
6572.760272316601,0.005356081143608323,0.00852111298150162
6572.761272088816,0.005421243911221908,0.008653883831523644
6572.762271861032,0.005493963069380154,0.008774840040727963
6572.763271633247,0.005573627852714871,0.008882935135400054
6572.764271405462,0.005659512654831257,0.008977356029872322
6572.765271177677,0.005750794228378484,0.009057531255738056
6572.766270949893,0.005846571318920735,0.009123134415777034
6572.767270722108,0.005945886011032188,0.009174082720986914
6572.768270494324,0.006047745811414888,0.009210530534526336
6572.769270266538,0.006151145319154573,0.009232858047370068
6572.770270038754,0.006255086338687457,0.009241655511199383
6572.771269810969,0.006358595530640282,0.00923770377941888
6572.772269583184,0.0064607390979172594,0.00922195215092115
6572.7732693554,0.006560634403408109,0.009195494576517112
6572.774269127614,0.006657458674531336,0.009159545143850539
6572.77526889983,0.006750455030207291,0.009115413455052603
6572.776268672045,0.006838936004630686,0.009064480149047127
6572.777268444261,0.0069222846228796375,0.009008172493759731
6572.778268216476,0.006999953027958709,0.008947939759007165
6572.779267988692,0.007071458776290278,0.008885228024780086
6572.780267760906,0.007136379215836429,0.008821454190817373
6572.7812675331215,0.007194344715205064,0.008757979194857785
6572.782267305337,0.00724503175103419,0.008696080730710713
6572.783267077552,0.007288156882391317,0.00863692599302897
6572.784266849768,0.0073234724641116885,0.008581545150259374
6572.785266621982,0.0073507646611685,0.008530806407573505
6572.786266394198,0.00736985399212324,0.00848539366991368
6572.787266166413,0.007380598293539922,0.008445787879747271
6572.788265938629,0.007382897710402935,0.008412253024402672
6572.789265710844,0.007376701131987834,0.008384827607543855
6572.79026548306,0.007362013411872058,0.00836332213376772
6572.791265255274,0.007338902682925343,0.008347322910543183
6572.7922650274895,0.007307507053551492,0.00833620222468827
6572.793264799705,0.007268039963899002,0.008329134693076076
6572.79426457192,0.0072207935670467165,0.008325119322972403
6572.795264344136,0.007166139750658034,0.00832300654878578
6572.79626411635,0.007104528804808765,0.008321529267592602
6572.797263888566,0.007036486131146183,0.008319336757333082
6572.798263660781,0.006962607611936633,0.008315030398260946
6572.799263432997,0.006883554247241943,0.00830720029151739
6572.800263205212,0.006800046481664548,0.008294462048480502
6572.801262977428,0.006712858387552937,0.008275493103664273
6572.802262749642,0.006622811632935797,0.008249067872928534
6572.8032625218575,0.006530768977573984,0.00821409099915653
6572.804262294073,0.006437626919257209,0.008169627858779723
6572.805262066288,0.006344307062751827,0.008114931458176917
6572.806261838504,0.006251745832326815,0.008049464824914428
6572.807261610718,0.006160882330312742,0.007972918030697851
6572.808261382934,0.006072644442429713,0.007885219122315193
6572.809261155149,0.005987933598628009,0.007786538459115662
6572.810260927365,0.005907608782466181,0.007677286169668621
6572.81126069958,0.005832470395280293,0.00755810262071869
6572.812260471796,0.005763244483192736,0.007429842018684035
6572.81326024401,0.005700567715232478,0.007293549594577546
6572.8142600162255,0.00564497342795048,0.007150433192985668
6572.815259788441,0.0055968790702487425,0.007001830370051077
6572.816259560656,0.005556575483875011,0.006849172231212106
6572.817259332872,0.005524218559383037,0.006693945236247175
6572.818259105086,0.005499823820871304,0.006537652169853531
6572.819258877302,0.005483264386488385,0.00638177350227721
6572.820258649517,0.005474272566091896,0.006227730427650763
6572.821258421733,0.00547244515751312,0.006076850873098778
6572.822258193948,0.005477252331987766,0.005930339646203641
6572.823257966163,0.005488049858393298,0.005789253641316268
6572.824257738378,0.005504094288969144,0.00565448272232293
6572.8252575105935,0.005524560628991441,0.005526736599580582
6572.826257282809,0.005548561978703824,0.005406537742904392
6572.827257055024,0.005575170675909604,0.005294220125306902
6572.82825682724,0.0056034405265186675,0.0051899333940747016
6572.829256599454,0.0056324297125906276,0.005093651940821194
6572.83025637167,0.005661223883551505,0.0050051882759390605
6572.831256143885,0.005688958798152968,0.00492421005985457
6572.832255916101,0.005714841754733048,0.004850260078238545
6572.833255688316,0.005738170980406493,0.004782778376728586
6572.834255460531,0.005758352175952257,0.004721125707014607
6572.835255232746,0.005774911546439505,0.004664607399822138
6572.8362550049615,0.005787504880283827,0.004612496792483011
6572.837254777177,0.005795922506672243,0.004564057402666052
6572.838254549392,0.005800090160683249,0.004518563148841655
6572.839254321607,0.005800065873171491,0.004475316081642287
6572.840254093822,0.005796033040947692,0.004433661310292049
6572.841253866038,0.0057882899152468855,0.004392999035562969
6572.842253638253,0.005777235897538913,0.00435279376982739
6572.843253410469,0.0057633552032885955,0.004312580924902962
6572.844253182684,0.005747198587079953,0.004271971013901127
6572.845252954899,0.0057293638711564294,0.004230651761541014
6572.846252727114,0.005710475955517686,0.004188388434094684
6572.847252499329,0.005691166831251452,0.004145022675358143
6572.848252271545,0.005672055943061705,0.004100470089638757
6572.84925204376,0.005653731134255632,0.004054716783996984
6572.850251815975,0.005636730407302228,0.0040078150837475485
6572.85125158819,0.005621524826841936,0.003959878640157766
6572.852251360406,0.005608502986382757,0.003911077126951903
6572.853251132621,0.0055979574661644965,0.0038616306882739756
6572.854250904837,0.005590073632271097,0.003811804296538743
6572.855250677052,0.0055849210373635294,0.0037619022032851666
6572.856250449267,0.005582447625972075,0.0037122626669243725
6572.857250221482,0.0055824769056056186,0.003663253076268279
6572.858249993697,0.005584708187471068,0.0036152654685643894
6572.859249765913,0.005588719937483716,0.0035687123066625707
6572.860249538128,0.0055939762525192656,0.0035240222734610597
6572.861249310343,0.005599836491349585,0.0034816358007241973
6572.862249082558,0.005605568077474381,0.0034420000947284657
6572.863248854774,0.005610362386488869,0.0034055635264381855
6572.864248626989,0.005613353436127169,0.003372769356684976
6572.865248399205,0.005613638861234648,0.0033440488323307825
6572.86624817142,0.005610302431874181,0.0033198137333079673
6572.8672479436345,0.0056024372151336765,0.003300448493000989
6572.86824771585,0.005589168431795566,0.003286302058132203
6572.869247488065,0.0055696751148688,0.0032776797044364895
6572.870247260281,0.005543209810105506,0.003274835079378751
6572.871247032496,0.005509115760930802,0.0032779627773659487
6572.872246804711,0.00546684127447341,0.0032871917497595744
6572.873246576926,0.0054159511984657755,0.0033025798275153903
6572.874246349142,0.0053561355787663315,0.0033241096054658016
6572.875246121357,0.005287215623619964,0.003351685901214339
6572.876245893573,0.005209147130880197,0.003385134954714797
6572.877245665788,0.0051220215678832405,0.00342420548111865
6572.8782454380025,0.005026065028315712,0.0034685716284663386
6572.879245210218,0.004921635316344439,0.0035178378195348686
6572.880244982433,0.004809217410890685,0.0035715453838588655
6572.881244754649,0.004689417540021264,0.003629180833091548
6572.882244526864,0.004562956071604471,0.0036901856107962165
6572.883244299079,0.004430659418323351,0.003753967143779474
6572.884244071294,0.004293451142445576,0.003819911012288929
6572.88524384351,0.00415234240520859,0.0038873940275707484
6572.886243615725,0.004008421848029613,0.003955797966146802
6572.8872433879405,0.0038628449442718767,0.004024523682842604
6572.888243160155,0.003716822830662001,0.004093005321588079
6572.8892429323705,0.0035716106119611213,0.004160724348963402
6572.890242704586,0.003428495135218273,0.004227223117824026
6572.891242476801,0.0032887822651900094,0.004292117607045242
6572.892242249017,0.003153783758452901,0.004355108887783035
6572.893242021232,0.003024803905317298,0.004415992774653513
6572.894241793447,0.0029031261630464403,0.0044746670779081885
6572.895241565662,0.0027900000302077572,0.004531135905162101
6572.896241337878,0.0026866284006522374,0.004585510574831479
6572.897241110093,0.0025941555846624763,0.004638006888322038
6572.8982408823085,0.002513656109509867,0.0046889387055116345
6572.899240654523,0.0024461243341891924,0.004738707893276556
6572.9002404267385,0.0023924648525929433,0.004787790763504181
6572.901240198954,0.0023534836297965235,0.004836721183920388
6572.902239971169,0.002329879819739305,0.0048860707146847196
6572.903239743385,0.0023222382384306722,0.004936426360949758
6572.904239515599,0.0023310224996041322,0.0049883667333162395
6572.905239287815,0.0023565688480235193,0.00504243751172719
6572.90623906003,0.0023990807429191876,0.005099127121501213
6572.907238832246,0.0024586242438351326,0.005158843487490537
6572.908238604461,0.0025351242281881985,0.005221892656786089
6572.9092383766765,0.0026283614354219295,0.005288459982280994
6572.910238148891,0.002737970317351488,0.005358594451049108
6572.9112379211065,0.002863437696942174,0.005432196633586895
6572.912237693322,0.0030041022840976797,0.005509010617742164
6572.913237465537,0.003159155147517336,0.005588620166679841
6572.914237237753,0.003327641300954768,0.0056704492145375875
6572.915237009967,0.0035084626404449934,0.0057537667054299675
6572.916236782183,0.0037003825504363145,0.005837695691661014
6572.917236554398,0.003902032540043599,0.005921226519548316
6572.918236326614,0.004111921237443948,0.006003233837407702
6572.919236098829,0.0043284459555611296,0.006082497068455937
6572.9202358710445,0.004549906878798162,0.006157723917960742
6572.921235643259,0.004774523758290135,0.006227576437628792
6572.9222354154745,0.005000454884798824,0.006290699135620161
6572.92323518769,0.005225818052689229,0.006345748559908993
6572.924234959905,0.0054487132140986555,0.006391423674422006
6572.925234732121,0.005667246497472988,0.00642649622010599
6572.926234504335,0.0058795551931021305,0.006449840161046071
6572.927234276551,0.006083833204018642,0.006460459282835997
6572.928234048766,0.006278356370633617,0.00645751202016027
6572.929233820982,0.006461507050678077,0.0064403326415784405
6572.930233593197,0.006631797399642392,0.006408448057778726
6572.9312333654125,0.006787890924465161,0.00636158977717134
6572.932233137627,0.00692862199882145,0.006299700857386853
6572.933232909842,0.007053013077676806,0.006222937983242229
6572.934232682058,0.007160289335910234,0.006131668957217143
6572.935232454273,0.007249890398927256,0.006026465911897208
6572.936232226489,0.0073214787484422615,0.0059080945114191215
6572.937231998703,0.00737494432079222,0.005777499382494589
6572.938231770919,0.007410404827604076,0.005635786048332879
6572.939231543134,0.0074282014436402284,0.005484199737623957
6572.94023131535,0.007428889715609306,0.005324101599363134
6572.941231087565,0.007413225820447877,0.0051569430393752485
6572.9422308597805,0.007382148582754796,0.004984239034290663
6572.943230631995,0.007336757880441616,0.004807541309823494
6572.94423040421,0.007278290204294155,0.004628412190490191
6572.945230176426,0.007208092218736853,0.004448399786508385
6572.946229948641,0.00712759321802059,0.004269015032346891
6572.947229720857,0.007038277379246529,0.004091710960733833
6572.948229493071,0.0069416566800427825,0.003917864496991574
6572.949229265287,0.00683924528220635,0.0037487609835016793
6572.950229037502,0.006732536082705458,0.003585581571058583
6572.951228809718,0.006622979995726876,0.003429393526966202
6572.952228581933,0.006511968357097609,0.0032811434112245018
6572.953228354148,0.00640081864641693,0.0031416529700399147
6572.954228126363,0.00629076352470792,0.0030116174898712576
6572.955227898578,0.006182943016423619,0.0028916062528389123
6572.956227670794,0.006078399543684832,0.0027820646760450827
6572.957227443009,0.005978075449451372,0.002683317745890691
6572.958227215225,0.00588281261791025,0.002595574454696591
6572.959226987439,0.005793353795610762,0.0025189330420202
6572.960226759655,0.00571034520238506,0.0024533868951078512
6572.96122653187,0.005634339981671577,0.0023988309769019667
6572.962226304086,0.0055658020061551735,0.0023550686420863395
6572.963226076301,0.005505109566509105,0.002321818688364291
6572.964225848516,0.005452558529228968,0.0022987224912737144
6572.965225620731,0.00540836463990459,0.0022853510948826834
6572.966225392946,0.005372664786785655,0.00228121217039955
6572.967225165162,0.00534551724314362,0.002285756799025813
6572.968224937377,0.005326901130546845,0.0022983860746370625
6572.969224709592,0.005316715494631873,0.0023184575480050683
6572.970224481807,0.005314778405764775,0.0023452915463724
6572.971224254023,0.005320826418397756,0.0023781774094656927
6572.972224026238,0.005334514608881188,0.0024163796961838035
6572.973223798454,0.005355417313102574,0.0024591444354909965
6572.974223570669,0.005383029643023662,0.0025057055095526626
6572.975223342884,0.005416769896439873,0.002555291253465713
6572.976223115099,0.005455983062381767,0.0026071313260216692
6572.977222887314,0.005499945699276759,0.0026604638529429477
6572.97822265953,0.005547872463941748,0.002714542782949691
6572.979222431745,0.00559892449490158,0.002768645345064435
6572.98022220396,0.005652219755182066,0.002822079460532522
6572.981221976175,0.005706845353170956,0.0028741909396603977
6572.982221748391,0.0057618717671858374,0.002924370271463163
6572.983221520606,0.005816368774987654,0.0029720587904561754
6572.9842212928215,0.005869422747927153,0.003016753998626227
6572.985221065037,0.005920154839092965,0.003058013851770488
6572.986220837252,0.005967739475048175,0.0030954598821110687
6572.987220609467,0.006011422433044985,0.0031287791000333067
6572.988220381682,0.006050537655587897,0.003157724684516743
6572.989220153898,0.006084521855872177,0.0031821155330961277
6572.990219926113,0.006112925940543991,0.0032018347910817953
6572.991219698328,0.006135422371145908,0.0032168275025464214
6572.992219470543,0.00615180785867978,0.003227097514161733
6572.993219242759,0.006162001222138631,0.0032327037267426855
6572.994219014974,0.006166036707622887,0.003233755754629682
6572.9952187871895,0.006164053394575892,0.003230409041095202
6572.996218559405,0.006156281443230208,0.00322285948391853
6572.99721833162,0.00614302592612378,0.0032113376306518774
6572.998218103835,0.006124648963270687,0.0031961025017944902
6572.99921787605,0.006101550937896295,0.0031774350986800374
6573.000217648266,0.006074151698552385,0.0031556316596794975
6573.001217420481,0.006042872759500544,0.0031309967520337747
6573.002217192696,0.006008121507279977,0.0031038363290308837
6573.003216964911,0.005970278297351387,0.0030744509295780797
6573.004216737127,0.005929687125076249,0.003043129231438171
6573.005216509342,0.005886650323932511,0.0030101421802704188
6573.0062162815575,0.0058414275172959705,0.0029757378992536637
6573.007216053773,0.0057942388674573865,0.0029401375428170615
6573.008215825988,0.005745272539664319,0.002903532212019314
6573.009215598203,0.005694696189342813,0.0028660810174198597
6573.010215370418,0.0056426721274675405,0.0028279103601106114
6573.011215142634,0.0055893756066384285,0.002789114491445889
6573.012214914849,0.005535015444640574,0.0027497573902551804
6573.013214687064,0.005479856024807598,0.002709875947859476
6573.014214459279,0.005424239605884758,0.0026694843744879244
6573.015214231495,0.005368607817340215,0.002628579653148463
6573.01621400371,0.005313521188279648,0.002587147794919419
6573.0172137759255,0.0052596755641173415,0.0025451706146226646
6573.01821354814,0.005207914309910689,0.0025026327528604353
6573.019213320355,0.005159235268427564,0.0024595287002222264
6573.020213092571,0.005114791534210984,0.002415869603704837
6573.021212864786,0.005075885262796065,0.0023716896471853927
6573.022212637002,0.005043953999041248,0.0023270518163065715
6573.023212409217,0.005020549362391597,0.0022820528954451747
6573.024212181432,0.005007308286935643,0.0022368275829644613
6573.025211953647,0.005005917305796621,0.0021915516283864847
6573.026211725863,0.0050180706093346005,0.002146443899172976
6573.027211498078,0.005045422880154133,0.0021017673030516277
6573.0282112702935,0.005089538249424165,0.0020578285348624055
6573.029211042508,0.0051518370554442736,0.002014976669254362
6573.030210814723,0.005233542309487645,0.0019736006595572463
6573.031210586939,0.005335627834220635,0.0019341258156511515
6573.032210359154,0.005458769955891668,0.0018970093260794057
6573.03321013137,0.005603304454639632,0.001862734883485121
6573.034209903584,0.005769190249881628,0.0018318064804403382
6573.0352096758,0.005955981041479935,0.0018047414595438092
6573.036209448015,0.006162805857585222,0.0017820629203232977
6573.037209220231,0.006388359191253412,0.0017642916033039698
6573.038208992446,0.006630901147910798,0.0017519373817017133
6573.039208764661,0.006888267782193343,0.0017454904871492683
6573.040208536876,0.00715789159503841,0.001745412582995988
6573.041208309091,0.007436832006684632,0.0017521277905729337
6573.042208081307,0.007721815502612148,0.001766013779581294
6573.043207853522,0.008009285026595567,0.0017873930522281749
6573.044207625738,0.00829545804142408,0.0018165245737280001
6573.045207397952,0.008576392488120355,0.0018535959215914156
6573.046207170168,0.00884805963793929,0.0018987161386377102
6573.047206942383,0.009106422530376716,0.0019519094768552215
6573.048206714599,0.009347518322379319,0.0020131102077476496
6573.049206486814,0.009567542460729241,0.002082158647505559
6573.050206259029,0.009762932176154046,0.002158798502553926
6573.051206031244,0.009930446448966616,0.0022426755861329295
6573.052205803459,0.010067239405214477,0.002333337894411266
6573.053205575675,0.010170924214922146,0.0024302369661650127
6573.05420534789,0.010239625106903258,0.0025327303935065116
6573.055205120106,0.010272015994765578,0.002640085318864786
6573.05620489232,0.010267345080740517,0.002751482755175933
6573.057204664536,0.010225445385942642,0.0028660226009737367
6573.058204436751,0.010146731488175166,0.002982729286908934
6573.059204208967,0.010032183037442854,0.003100558074283739
6573.060203981182,0.009883315957505953,0.0032184021004270525
6573.061203753397,0.009702142582046734,0.0033351003014337093
6573.062203525612,0.009491122254008154,0.0034494463383689038
6573.063203297827,0.009253104111033807,0.003560198636739598
6573.064203070043,0.008991263881932134,0.0036660916560626185
6573.065202842258,0.008709036529538713,0.0037658485423816314
6573.066202614474,0.00841004651281544,0.003858195342365278
6573.067202386688,0.008098037343725717,0.0039418769239973565
6573.068202158904,0.007776802011070418,0.00401567464384589
6573.069201931119,0.007450115728981542,0.004078425653839977
6573.070201703335,0.007121672326264525,0.004129043595273851
6573.07120147555,0.006795025428005027,0.004166540319557918
6573.072201247765,0.006473535407797585,0.004190048209717987
6573.07320101998,0.006160322913394129,0.004198842622255433
6573.074200792195,0.005858229584370096,0.004192363892430047
6573.075200564411,0.005569786381246353,0.004170238257681945
6573.076200336626,0.005297189743111395,0.0041322969952366576
6573.077200108842,0.005042285613687286,0.00407859306248617
6573.078199881056,0.004806561235714706,0.0040094145620282
6573.079199653272,0.004591144488511269,0.003925294422729265
6573.080199425487,0.004396810407829836,0.0038270158236961894
6573.081199197703,0.004223994378683634,0.0037156131220327606
6573.082198969918,0.004072811344042726,0.00359236834627425
6573.0831987421325,0.003943080236569375,0.003458803582793422
6573.084198514348,0.003834352720125243,0.003316669721615214
6573.085198286563,0.0037459452265662376,0.0031679320387807807
6573.086198058779,0.0036769732100348355,0.0030147530409891446
6573.087197830994,0.003626386542891751,0.002859472941172682
6573.08819760321,0.0035930050561792833,0.0027045880799854327
6573.089197375424,0.003575553364241403,0.002552727548283578
6573.09019714764,0.0035726942615468705,0.002406628204355804
6573.091196919855,0.0035830600936674704,0.0022691082322943944
6573.092196692071,0.0036052815841656873,0.0021430393618989906
6573.093196464286,0.003638013693950449,0.002031317861206412
6573.0941962365005,0.0036799582285995365,0.00193683441545602
6573.095196008716,0.0037298830559652674,0.00186244302470445
6573.096195780931,0.003786637894876638,0.0018109290883903456
6573.097195553147,0.0038491666720794123,0.001784976886201216
6573.098195325362,0.003916516446148676,0.0017871366884292055
6573.099195097577,0.003987842896589673,0.0018197917254210636
6573.100194869792,0.0040624123925048295,0.0018851252334005269
6573.101194642008,0.004139600691673825,0.0019850878085198973
6573.102194414223,0.004218888372587214,0.002121365359619021
6573.103194186439,0.004299853167013159,0.0022953480336022182
6573.104193958654,0.004382159445747694,0.0025081005623355497
6573.105193730868,0.004465545227009217,0.0027603345328474816
6573.106193503084,0.004549807229720202,0.0030523831191441694
6573.107193275299,0.004634784654564255,0.003384178829106239
6573.108193047515,0.004720342483303595,0.0037552347955544154
6573.10919281973,0.004806355097997053,0.00416463008029597
6573.110192591945,0.0048926909511475825,0.00461099939444241
6573.11119236416,0.004979198915628222,0.0050925275913122695
6573.112192136376,0.0050656968466428086,0.005606949267484413
6573.113191908591,0.005151962796154509,0.006151553817611598
6573.114191680807,0.005237729202232515,0.006723196319734871
6573.115191453022,0.005322680202231765,0.0073183146444510475
6573.116191225236,0.005406451995186023,0.007932953144836873
6573.117190997452,0.005488635954093554,0.008562793178434384
6573.118190769667,0.005568784024587988,0.009203190538928024
6573.119190541883,0.0056464158653823275,0.009849219636554444
6573.120190314098,0.005721027158459458,0.010495723980186323
6573.121190086313,0.005792098520881749,0.011137372247167168
6573.122189858528,0.005859104517928973,0.011768719086019433
6573.123189630744,0.005921522443892613,0.012384269832373918
6573.124189402959,0.005978840758482685,0.012978548439140366
6573.125189175175,0.0060305672387282955,0.013546167953072447
6573.12618894739,0.006076236948793335,0.014081902702306462
6573.127188719604,0.006115420032853935,0.014580761035277438
6573.12818849182,0.006147729150992173,0.015038057121689501
6573.129188264035,0.0061728262034924175,0.015449480139351584
6573.130188036251,0.006190427932534832,0.015811159190187312
6573.131187808466,0.006200310100071944,0.016119722484939415
6573.132187580681,0.006202310167544339,0.01637234960550977
6573.133187352896,0.0061963286434875255,0.016566815851724502
6573.134187125112,0.006182329437413696,0.01670152772590885
6573.135186897327,0.006160339632614367,0.016775548601048743
6573.136186669542,0.006130449062045929,0.016788613763556594
6573.137186441758,0.006092809940396472,0.016741134426329938
6573.138186213972,0.006047636595024355,0.016634190861256747
6573.139185986188,0.00599520511449735,0.016469515250979214
6573.140185758403,0.0059358525866694,0.016249465007303725
6573.141185530619,0.005869975590752836,0.015976987169064434
6573.142185302834,0.005798027717045243,0.015655574299710328
6573.143185075049,0.005720516015187923,0.015289212278731429
6573.144184847264,0.005637996338220679,0.014882320587611426
6573.14518461948,0.005551067569643661,0.014439686046028622
6573.146184391695,0.005460364755339725,0.013966391292276788
6573.14718416391,0.0053665512384376895,0.013467739457705111
6573.148183936125,0.0052703100001553335,0.01294917640669083
6573.14918370834,0.005172334515061599,0.012416211716683896
6573.150183480556,0.0050733194950717524,0.01187433943898697
6573.151183252771,0.0049739518934064295,0.011328959705453657
6573.152183024987,0.00487490247396612,0.010785302389705992
6573.153182797202,0.004776818148581727,0.010248354187956533
6573.154182569417,0.004680315173487952,0.009722790564543934
6573.155182341632,0.004585973214099271,0.00921291396256898
6573.156182113848,0.004494330251783885,0.008722599504755226
6573.157181886063,0.0044058782878474215,0.008255249156214483
6573.158181658278,0.004321059760655908,0.007813755075182989
6573.159181430493,0.0042402645453596495,0.0074004726841766545
6573.160181202708,0.004163827397478226,0.007017203833113464
6573.161180974924,0.004092025740389242,0.0066651902689397954
6573.162180747139,0.004025077743225716,0.0063451174616356906
6573.163180519355,0.003963140655957437,0.006057128650110619
6573.164180291569,0.003906309363349105,0.00580084874634739
6573.165180063785,0.0038546151055082545,0.005575417471657287
6573.166179836,0.003808024309515397,0.005379530820106982
6573.167179608216,0.0037664375095213263,0.005211489702012537
6573.168179380431,0.0037296884149244742,0.0050692544683358315
6573.169179152646,0.003697543297172287,0.00495050395962447
6573.170178924861,0.003669700964465279,0.00485269770256447
6573.171178697076,0.003645793648306669,0.0047731398295449996
6573.172178469292,0.0036253891238390385,0.004709043214295095
6573.173178241507,0.003607994334619774,0.004657592253712725
6573.174178013723,0.003593060716223913,0.004616002759439418
6573.175177785937,0.0035799913346793214,0.004581577596112403
6573.176177558153,0.003568149878256022,0.004551756985299546
6573.177177330368,0.0035568714528203967,0.00452416269275493
6573.178177102584,0.0035454750279264404,0.004496635540472245
6573.179176874799,0.0035332772779531896,0.004467265802795237
6573.180176647014,0.0035196074772574446,0.004434416110612023
6573.181176419229,0.003503823043900736,0.004396736602835451
6573.182176191444,0.0034853252810744463,0.004353172292232956
6573.18317596366,0.0034635748403009196,0.004302962915581229
6573.184175735875,0.003438106421366757,0.004245635829880159
6573.185175508091,0.0034085422224849203,0.004180992739346433
6573.186175280305,0.003374603669022814,0.004109091168360596
6573.187175052521,0.0033361210009729674,0.004030221629788611
6573.188174824736,0.0032930403855378665,0.003944881407763247
6573.189174596952,0.0032454283084630596,0.0038537458355302093
6573.190174369167,0.003193473057100904,0.0037576379352657254
6573.191174141382,0.003137483143787926,0.003657497284144542
6573.192173913597,0.003077882569154603,0.003554348945143513
6573.193173685812,0.003015202940991253,0.003449273233086946
6573.194173458028,0.002950072652237542,0.003343376980287259
6573.195173230243,0.0028832035168030483,0.003237766836091005
6573.196173002459,0.002815375379704295,0.0031335249976197042
6573.197172774673,0.0027474192369849847,0.0030316876440457568
6573.198172546889,0.0026801993766824715,0.0029332262500320603
6573.199172319104,0.002614595047072034,0.0028390318896914625
6573.20017209132,0.0025514821725647215,0.0027499025998751
6573.201171863535,0.0024917156231224675,0.002666533832719013
6573.20217163575,0.0024361124723837335,0.0025895119772953567
6573.203171407965,0.0023854365732093375,0.002519310863922431
6573.20417118018,0.0023403846752793347,0.0024562910899143544
6573.205170952396,0.002301574230894134,0.002400701939005204
6573.206170724611,0.0022695329861044064,0.0023526856234165547
6573.207170496827,0.0022446904336767253,0.002312283560176673
6573.208170269041,0.002227371211010514,0.002279444387934159
6573.209170041257,0.002217790545670514,0.0022540334170762255
6573.210169813472,0.0022160518563750903,0.0022358431775677504
6573.211169585688,0.0022221465912470556,0.002224604697443431
6573.212169357903,0.002235956334673556,0.002219999128043945
6573.213169130117,0.0022572571576109784,0.0022216693388715605
6573.214168902333,0.0022857261367563563,0.002229231132810023
6573.215168674548,0.00232094992522659,0.0022422837787925962
6573.216168446764,0.002362435209314867,0.002260419627212312
6573.217168218979,0.0024096208220888535,0.0022832326578930548
6573.218167991195,0.0024618912084568324,0.0023103258899344423
6573.219167763409,0.002518590864269688,0.0023413176409591598
6573.220167535625,0.0025790393205357277,0.0023758466610430576
6573.22116730784,0.002642546215053314,0.0024135761864473846
6573.222167080055,0.0027084259760293836,0.002454196954487779
6573.223166852271,0.002776011629256028,0.0024974291904883428
6573.224166624485,0.002844667247725413,0.002543023534676313
6573.225166396701,0.002913798623515402,0.0025907608506672546
6573.226166168916,0.0029828618819349685,0.0026404508695841845
6573.227165941132,0.003051369958861433,0.002691929666564581
6573.228165713347,0.003118897054865063,0.0027450560179800012
6573.229165485563,0.0031850812961431076,0.0027997067482542
6573.230165257777,0.0032496258614295153,0.0028557712590106432
6573.231165029993,0.003312298809788325,0.0029131455302525678
6573.232164802208,0.0033729317936446617,0.0029717259571513423
6573.233164574423,0.0034314177728376966,0.0030314034102863112
6573.234164346639,0.003487707780926051,0.003092057881486207
6573.235164118853,0.0035418067797508617,0.0031535540167176206
6573.236163891069,0.0035937686940039093,0.0032157377608658987
6573.237163663284,0.003643690801398131,0.003278434262354646
6573.2381634355,0.003691707695802987,0.003341447116668112
6573.239163207715,0.003737985014707523,0.003404558973411568
6573.24016297993,0.0037827130616541814,0.003467533496679128
6573.241162752145,0.0038261004086308247,0.0035301186453851837
6573.2421625243605,0.0038683675588117115,0.003592051208444732
6573.243162296576,0.00390974077294377,0.003653062476584708
6573.244162068791,0.003950446175634076,0.0037128848644271506
6573.245161841007,0.003990704241599716,0.0037712592309729776
6573.246161613221,0.004030724738663631,0.003827942604331694
6573.247161385437,0.004070702207005571,0.0038827160118771915
6573.248161157652,0.004110812084626109,0.003935392146770828
6573.249160929868,0.004151207618996715,0.003985822647135131
6573.250160702083,0.004192017704802272,0.004033904803332009
6573.251160474298,0.004233345741759247,0.0040795875254371426
6573.252160246513,0.0042752695237013956,0.004122876388476141
6573.2531600187285,0.004317842089850526,0.004163837525870296
6573.254159790944,0.004361093428265325,0.0042026000684556725
6573.255159563159,0.004405032907654316,0.004239356741670423
6573.256159335375,0.004449652276189401,0.004274362157308138
6573.257159107589,0.004494928979892169,0.004307928311579438
6573.258158879805,0.004540829458766231,0.00434041690087037
6573.25915865202,0.004587312041973675,0.0043722283287986365
6573.260158424236,0.004634329104701348,0.004403787631329001
6573.261158196451,0.004681828236956747,0.004435527850281323
6573.262157968666,0.0047297522808797095,0.004467871555454793
6573.263157740881,0.0047780382179326755,0.00450121127648576
6573.2641575130965,0.004826615019522675,0.004535889625743394
6573.265157285312,0.004875400677841854,0.004572179910621314
6573.266157057527,0.004924298688195282,0.004610268046265867
6573.267156829743,0.0049731942858914835,0.004650236569777313
6573.268156601957,0.005021950788230109,0.004692051503440225
6573.269156374173,0.005070406454327947,0.004735552711756111
6573.270156146388,0.0051183723103027665,0.00478044826536085
6573.271155918604,0.005165631353595811,0.004826313190229031
6573.272155690819,0.005211939441658472,0.004872592844268575
6573.273155463034,0.005257028015275627,0.004918611009438596
6573.274155235249,0.005300608646449467,0.004963582611578464
6573.2751550074645,0.005342379263228774,0.005006630791894148
6573.27615477968,0.0053820317886052035,0.005046807863152184
6573.277154551895,0.005419260815113033,0.005083119504214121
6573.27815432411,0.0054537728121358976,0.00511455140281976
6573.279154096325,0.005485295259895582,0.005140097465945531
6573.280153868541,0.005513585066170009,0.005158788671123529
6573.281153640756,0.005538435661113097,0.005169721598260742
6573.282153412972,0.0055596822553791,0.005172085627722426
6573.283153185187,0.005577204840423878,0.005165187725532125
6573.284152957402,0.005590928579706103,0.005148473735017023
6573.285152729617,0.005600821326550476,0.005121545254522347
6573.2861525018325,0.0056068881993089174,0.0050841715261341625
6573.287152274048,0.005609163479549852,0.005036296184998862
6573.288152046263,0.005607700481580059,0.004978039057976407
6573.289151818478,0.005602560319547984,0.004909693364007445
6573.290151590693,0.005593800581163799,0.004831718706269397
6573.291151362909,0.005581464828662943,0.00474473028083384
6573.292151135124,0.005565573676591557,0.004649484828936084
6573.29315090734,0.0055461180094036324,0.004546863996465535
6573.294150679555,0.005523054716738566,0.004437855856456349
6573.29515045177,0.005496305144894614,0.004323535354475004
6573.296150223985,0.005465756304928042,0.004205044366658032
6573.2971499962005,0.0054312647440660335,0.004083571964040554
6573.298149768416,0.005392662856444202,0.003960335393366426
6573.299149540631,0.005349767269588456,0.003836562210090248
6573.300149312846,0.005302388817576582,0.0037134739081012744
6573.301149085061,0.005250343534269789,0.003592271282135841
6573.302148857277,0.005193464077247731,0.003474121661234681
6573.303148629492,0.005131611001683334,0.00336014808328751
6573.304148401708,0.005064683321341165,0.0032514204295312267
6573.305148173922,0.004992627833545625,0.003148948480203676
6573.306147946138,0.004915446788032108,0.0030536767772781676
6573.307147718353,0.00483320366677101,0.002966481096003893
6573.308147490568,0.004746027067678092,0.0028881662540118274
6573.309147262784,0.0046541128576831365,0.0028194649339426353
6573.310147034999,0.004557724817620856,0.0027610371527740443
6573.311146807214,0.004457193965413272,0.0027134699823075457
6573.312146579429,0.004352916696180674,0.0026772771497849566
6573.313146351645,0.004245351875537549,0.0026528982522602044
6573.31414612386,0.004135017047944299,0.0026406974658839855
6573.315145896076,0.004022483917454528,0.002640961750777046
6573.31614566829,0.003908373198244484,0.002653898607643221
6573.317145440506,0.0037933488530253498,0.0026796334466278287
6573.318145212721,0.0036781117003516248,0.0027182066134822497
6573.319144984936,0.0035633924060009463,0.002769570111731884
6573.320144757152,0.0034499439446815648,0.002833584080181685
6573.321144529367,0.0033385336596884734,0.0029100131307301853
6573.322144301582,0.003229935028358123,0.0029985226981990663
6573.323144073797,0.003124919187317117,0.003098675574763416
6573.324143846013,0.003024246230816966,0.003209928798844283
6573.325143618228,0.0029286562980754033,0.0033316310725524257
6573.326143390444,0.002838860518476114,0.003463020906864018
6573.327143162658,0.002755531972444264,0.0036032257183889224
6573.3281429348735,0.0026792969152805808,0.0037512621087061556
6573.329142707089,0.0026107265606953346,0.003906037563427626
6573.330142479304,0.002550329715910711,0.004066353835558016
6573.33114225152,0.002498546517736869,0.004230912313113921
6573.332142023735,0.0024557434555614655,0.004398321675346145
6573.33314179595,0.002422209784497376,0.004567108095810955
6573.334141568165,0.002398155339567084,0.00473572816809657
6573.335141340381,0.00238370968769848,0.004902584630269995
6573.336141112596,0.002378922517397774,0.005066044849609654
6573.337140884812,0.002383765152816139,0.005224461896168549
6573.338140657026,0.002398133063239422,0.005376197894771462
6573.3391404292415,0.002421849218347317,0.005519649231037186
6573.340140201457,0.00245466813552741,0.00565327311111795
6573.341139973672,0.002496280486691814,0.00577561490562381
6573.342139745888,0.0025463181547105158,0.00588533560714243
6573.343139518102,0.0026043596248643813,0.00598123861035211
6573.344139290318,0.0026699355684200077,0.006062294945936904
6573.345139062533,0.0027425344616595873,0.006127666121289308
6573.346138834749,0.0028216081198458604,0.006176723849435614
6573.347138606964,0.0029065771085763914,0.0062090661372469986
6573.34813837918,0.0029968360854842487,0.006224529383331292
6573.349138151394,0.003091759180917941,0.0062231962466753644
6573.3501379236095,0.003190705530880426,0.006205399085822601
6573.351137695825,0.0032930250409588338,0.006171718793846614
6573.35213746804,0.0033980644037590003,0.006122978932024922
6573.353137240256,0.0035051733203125567,0.006060235207135698
6573.35413701247,0.0036137107937265155,0.0059847605073776846
6573.355136784686,0.003723051295013155,0.005898025869067008
6573.356136556901,0.0038325905744210687,0.0058016778706664555
6573.357136329117,0.003941750902346803,0.005697513046010476
6573.358136101332,0.00404998553611164,0.005587449987068577
6573.359135873548,0.004156782201140149,0.005473499859003998
6573.360135645762,0.00426166536436178,0.005357736041050985
6573.3611354179775,0.004364197091771334,0.005242263515414732
6573.362135190193,0.004463976335707116,0.005129188476809846
6573.363134962408,0.0045606365953875854,0.005020588475035981
6573.364134734624,0.004653842025340395,0.004918483280141665
6573.365134506838,0.0047432821977944715,0.0048248066192689626
6573.366134279054,0.004828665835583074,0.0047413789945148594
6573.367134051269,0.004909713937391699,0.00466988190482385
6573.368133823485,0.004986152833334251,0.004611833868451992
6573.3691335957,0.005057707811650494,0.004568568616767519
6573.370133367915,0.005124098006491768,0.004541215723830364
6573.37113314013,0.005185033215649162,0.0045306838102866735
6573.3721329123455,0.00524021322576753,0.0045376463651702606
6573.373132684561,0.005289330061097124,0.004562530179992961
6573.374132456776,0.005332073352324648,0.00460550636841418
6573.375132228992,0.005368138773704276,0.0046664839359290946
6573.376132001206,0.005397239244663582,0.004745105885779184
6573.377131773422,0.005419118349205595,0.004840747927834934
6573.378131545637,0.0054335652083169275,0.004952519977406723
6573.379131317853,0.005440429867009955,0.005079270728974358
6573.380131090068,0.005439638144175757,0.00521959562967994
6573.381130862283,0.0054312048701123505,0.005371848572021207
6573.382130634498,0.005415244558047097,0.005534157591478189
6573.3831304067135,0.0053919788376172095,0.005704444792626358
6573.384130178929,0.00536174032325106,0.005880450636807894
6573.385129951144,0.00532497283774174,0.006059762605998801
6573.38612972336,0.005282227981428611,0.006239848104561656
6573.387129495574,0.005234158012408008,0.006418091273383722
6573.38812926779,0.0051815050519910585,0.0065918331831032306
6573.389129040005,0.0051250868500893375,0.0067584146594441615
6573.390128812221,0.0050657796758653085,0.006915220792811553
6573.391128584436,0.005004499185068104,0.007059726037291855
6573.392128356651,0.004942180248954261,0.0071895387549499425
6573.393128128866,0.004879756709121845,0.0073024441036517625
6573.394127901081,0.00481814190113425,0.0073964442542937625
6573.395127673297,0.004758210615809755,0.007469795043622593
6573.396127445512,0.004700782978784973,0.007521038342890488
6573.397127217728,0.004646610557555075,0.007549029627128237
6573.398126989942,0.004596364858026376,0.007552960393750864
6573.399126762158,0.0045506282381831955,0.007532375168039843
6573.400126534373,0.004509887145231116,0.007487182891217344
6573.401126306589,0.004474527495807806,0.0074176625919063245
6573.402126078804,0.004444831990021469,0.0073244634215957356
6573.403125851019,0.004420979183788827,0.007208599324044678
6573.404125623234,0.004403044208285795,0.007071438703294802
6573.405125395449,0.004391001061402177,0.006914689415936891
6573.406125167665,0.0043847263701565515,0.006740379298354809
6573.40712493988,0.004384004464095199,0.006550832339098472
6573.408124712095,0.004388533570344681,0.006348640574370524
6573.40912448431,0.004397932979531224,0.006136631829852942
6573.410124256526,0.004411751128073131,0.005917833542171066
6573.411124028741,0.004429474651472553,0.00569543304811933
6573.412123800957,0.0044505385302493795,0.005472734897621844
6573.413123573172,0.0044743374367545745,0.005253115878699417
6573.4141233453865,0.004500238299077935,0.0050399784977553635
6573.415123117602,0.004527593966767198,0.004836703641397663
6573.416122889817,0.004555757730724505,0.004646603105581095
6573.417122662033,0.004584098325045242,0.004472872656117737
6573.418122434248,0.004612014922365267,0.004318546286754767
6573.419122206463,0.004638951553790739,0.0041864523529633844
6573.420121978678,0.0046644103759526856,0.004079172268968733
6573.421121750894,0.004687963271941861,0.003999002448674666
6573.422121523109,0.0047092613729080995,0.003947920130872768
6573.423121295325,0.004728042183349984,0.003927553649892151
6573.42412106754,0.004744134065638094,0.003939157606983754
6573.4251208397545,0.004757457891182529,0.003983593278223617
6573.42612061197,0.004768025724991179,0.004061314464462793
6573.427120384185,0.004775936515710116,0.004172358857681679
6573.428120156401,0.00478136892176071,0.004316344893520885
6573.429119928616,0.00478457156755507,0.004492474002155758
6573.430119700831,0.004785851127397663,0.004699538151116055
6573.431119473046,0.004785558665121017,0.00493593257891699
6573.432119245262,0.0047840746598675045,0.005199673645164587
6573.433119017477,0.004781793166540217,0.0054884217563098015
6573.434118789693,0.004779105599832811,0.00579950932441477
6573.435118561907,0.004776384676776917,0.006129973657837151
6573.4361183341225,0.004773969074107771,0.006476594597491886
6573.437118106338,0.004772149319902208,0.006835936629949514
6573.438117878553,0.004771155343609883,0.00720439511532157
6573.439117650769,0.004771145999429511,0.007578246136595345
6573.440117422984,0.0047722007981959675,0.007953699300991985
6573.441117195199,0.004774314032012265,0.008326952616891595
6573.442116967414,0.004777391431172828,0.008694248375987394
6573.44311673963,0.004781249453662143,0.009051928870398856
6573.444116511845,0.0047856172849622125,0.00939649083473724
6573.4451162840605,0.004790141604980251,0.009724637697839223
6573.446116056275,0.004794394130097841,0.010033328933516656
6573.4471158284905,0.004797881856326258,0.01031982587347275
6573.448115600706,0.00480005982544117,0.010581733226870144
6573.449115372921,0.004800346113961609,0.01081703530178694
6573.450115145137,0.004798138619253659,0.01102412570714359
6573.451114917352,0.004792833128547059,0.011201829309500248
6573.452114689567,0.004783842140750051,0.011349415523712623
6573.453114461782,0.0047706139557485705,0.011466602591396804
6573.454114233998,0.00475265159802839,0.011553553180992014
6573.455114006213,0.004729531158828118,0.011610862196603781
6573.4561137784285,0.004700919125173695,0.011639537929494962
6573.457113550643,0.004666588235671118,0.011640977595367426
6573.4581133228585,0.004626431372928435,0.011616937981317188
6573.459113095074,0.004580472980182194,0.01156950154279339
6573.460112867289,0.004528877499818653,0.011501038003849393
6573.461112639505,0.0044719544142513825,0.01141416145575409
6573.46211241172,0.004410159645672274,0.011311683173759784
6573.463112183935,0.004344093292325431,0.0111965608048933
6573.46411195615,0.004274493847444433,0.011071845044528282
6573.465111728366,0.004202229106053486,0.010940625231161568
6573.466111500581,0.004128283946046593,0.010805975341087131
6573.4671112727965,0.004053745151654884,0.010670901672502418
6573.468111045011,0.003979783494437291,0.010538293191390146
6573.4691108172265,0.003907633418722206,0.010410875222897537
6573.470110589442,0.003838570858093404,0.010291167018272698
6573.471110361657,0.003773889864188542,0.01018144371883894
6573.472110133873,0.003714878800161731,0.010083703289496669
6573.473109906087,0.0036627968249995113,0.009999638979203177
6573.474109678303,0.003618851292594168,0.009930617709589171
6573.475109450518,0.0035841765448380203,0.009877664537478322
6573.476109222734,0.0035598144209963464,0.009841453120349748
6573.477108994949,0.0035466966538571995,0.009822302051103265
6573.4781087671645,0.0035456291825102177,0.009820177002405244
6573.479108539379,0.003557278285542769,0.009834698705567973
6573.480108311594,0.003582158347480675,0.009865156779776762
6573.48110808381,0.0036206210584261394,0.009910529320390117
6573.482107856025,0.00367284593861221,0.009969508003613103
6573.483107628241,0.0037388322431670135,0.010040528300174274
6573.484107400455,0.0038183924628608827,0.010121804213125411
6573.485107172671,0.003911147735367032,0.010211366782424321
6573.486106944886,0.0040165255116831645,0.01030710546732282
6573.487106717102,0.004133759818176026,0.010406811427347746
6573.488106489317,0.004261894449621605,0.010508221639071181
6573.4891062615325,0.004399789419575808,0.010609062709787976
6573.490106033747,0.004546130953151997,0.010707093243494663
6573.491105805962,0.004699445219887922,0.01080014373615419
6573.492105578178,0.004858115886034028,0.010886153213365982
6573.493105350393,0.00502040544148662,0.010963202106336853
6573.494105122609,0.00518448013575792,0.01102954110933555
6573.495104894823,0.005348438223144543,0.011083615892346212
6573.496104667039,0.005510341046486608,0.01112408750882977
6573.497104439254,0.005668246280513777,0.011149848194198106
6573.49810421147,0.005820242436005804,0.011160032153748042
6573.499103983685,0.0059644835376446576,0.011154021032857423
6573.5001037559,0.006099222789416294,0.011131444051608043
6573.501103528115,0.006222844093401773,0.011092173141197795
6573.50210330033,0.006333890498264067,0.011036313694966141
6573.503103072546,0.006431088923757479,0.010964191680671224
6573.504102844761,0.00651337069472057,0.010876337869314964
6573.505102616977,0.006579887477323756,0.010773469850982993
6573.506102389191,0.006630022233680667,0.010656472352412844
6573.507102161407,0.006663394919021857,0.010526376180869155
6573.508101933622,0.0066798628775793754,0.010384335956543329
6573.509101705838,0.006679516192105189,0.010231606719810975
6573.510101478053,0.006662668502069261,0.010069519521128422
6573.511101250268,0.006629843939031383,0.009899456185044612
6573.512101022483,0.006581760831686701,0.00972282356099215
6573.513100794698,0.006519312801788247,0.009541027736108402
6573.514100566914,0.006443547902733447,0.009355448866968232
6573.515100339129,0.006355646535488994,0.009167417410032002
6573.516100111345,0.006256898911004921,0.008978192520024991
6573.517099883559,0.006148682738625665,0.008788943243483257
6573.518099655775,0.0060324416188399016,0.00860073293857017
6573.51909942799,0.005909664371668463,0.00841450718343808
6573.520099200206,0.005781865314168748,0.00823108531458438
6573.521098972421,0.005650565379994507,0.008051155614299524
6573.522098744636,0.005517273973689093,0.007875273975605408
6573.523098516851,0.005383471515485476,0.007703865609690853
6573.524098289066,0.005250592666991599,0.0075372291148932975
6573.525098061282,0.005120010199975335,0.007375542132139259
6573.526097833497,0.00499301944002227,0.0072188679560466675
6573.527097605713,0.00487082328357252,0.007067162820744981
6573.528097377927,0.004754517983542546,0.006920283979734015
6573.529097150143,0.004645080137200595,0.0067779989576850184
6573.530096922358,0.0045433554539903295,0.006639996370268752
6573.5310966945735,0.004450049868112388,0.006505898540679603
6573.532096466789,0.004365723426908571,0.006375275917503299
6573.533096239004,0.004290787197261741,0.006247663103257017
6573.534096011219,0.004225503234460819,0.006122576152624182
6573.535095783434,0.004169987480132515,0.005999530678992429
6573.53609555565,0.0041242153179872326,0.005878060197958506
6573.537095327865,0.004088029422601888,0.0057577340468362055
6573.53809510008,0.004061149470749888,0.005638174211517334
6573.539094872295,0.0040431832335754165,0.0055190705243874155
6573.540094644511,0.004033638556799179,0.005400193944254022
6573.541094416726,0.004031935806208108,0.005281407889398259
6573.5420941889415,0.00403742049200396,0.005162677766536353
6573.543093961157,0.004049375916232114,0.005044078882639373
6573.544093733372,0.004067035764100031,0.004925802874526003
6573.545093505587,0.004089596591842993,0.004808162707238369
6573.546093277802,0.004116230176020978,0.0046915962210423955
6573.547093050018,0.00414609569523372,0.00457666815001634
6573.548092822233,0.004178351724016966,0.0044640704761863765
6573.549092594448,0.0042121680296924174,0.004354620920038648
6573.550092366663,0.004246737154144661,0.0042492593090663645
6573.551092138879,0.004281285701473373,0.004149041515250283
6573.552091911094,0.004315085131935649,0.0040551306272882705
6573.5530916833095,0.0043474617294742895,0.00396878506718864
6573.554091455525,0.0043778053480892955,0.0038913435073801472
6573.55509122774,0.004405576601308566,0.003824206669221865
6573.556090999955,0.0044303122936796184,0.0037688163150112874
6573.55709077217,0.004451628993146278,0.0037266319312997866
6573.558090544386,0.004469224644281362,0.0036991057360409806
6573.559090316601,0.004482878078905815,0.003687656724631761
6573.560090088816,0.004492446314350386,0.0036936444832772366
6573.561089861031,0.004497859704709939,0.003718343442013987
6573.562089633247,0.004499115260465443,0.0037629181412134525
6573.563089405462,0.0044962686402999965,0.0038283999720882408
6573.5640891776775,0.004489425367023845,0.003915665740146737
6573.565088949892,0.004478731751497413,0.004025418304335201
6573.566088722107,0.004464365892397723,0.004158169471114796
6573.567088494323,0.004446529015283488,0.00431422526342974
6573.568088266538,0.004425437363916707,0.004493673624967934
6573.569088038754,0.004401314868034814,0.004696374560000176
6573.570087810969,0.00437438684971691,0.004921952672876082
6573.571087583184,0.004344875051961594,0.0051697921090983825
6573.572087355399,0.0043129942526659295,0.005439034055529504
6573.573087127615,0.004278950647604363,0.005728577197616464
6573.57408689983,0.004242942041791345,0.0060370817373169225
6573.5750866720455,0.0042051597029478015,0.0063629776465493485
6573.57608644426,0.004165791546640328,0.006704477766822408
6573.577086216475,0.004125026188966101,0.0070595962168800855
6573.578085988691,0.004083057374655916,0.007426172365794408
6573.579085760906,0.004040088394159801,0.007801900375003753
6573.580085533122,0.003996336284603117,0.008184364020176969
6573.581085305337,0.003952035748825527,0.008571076192811352
6573.582085077552,0.003907442759833977,0.008959522167655044
6573.583084849767,0.003862837777285451,0.009347205405624736
6573.584084621983,0.0038185284447645614,0.009731694337905033
6573.585084394198,0.003774851582373956,0.010110668271132797
6573.5860841664135,0.0037321742406534173,0.010481960362643825
6573.587083938628,0.0036908935578027625,0.010843595667151422
6573.588083710843,0.003651435200146872,0.011193822567720502
6573.589083483059,0.003614250292553415,0.01153113633168131
6573.590083255274,0.0035798109386280625,0.011854293961649663
6573.59108302749,0.0035486046158163614,0.012162319993528055
6573.592082799705,0.0035211278372147144,0.012454503504482298
6573.59308257192,0.0034978794866149638,0.012730387280074206
6573.594082344135,0.0034793541902160357,0.01298975069733651
6573.595082116351,0.003466036019323928,0.013232588242863401
6573.596081888566,0.0034583927294708637,0.013459085586839219
6573.597081660781,0.0034568706333306144,0.0136695947922515
6573.598081432996,0.0034618900930012903,0.013864609713331776
6573.599081205211,0.003473841523873267,0.014044742129704545
6573.600080977427,0.003493081744306206,0.0142106988191753
6573.601080749642,0.003519930491288128,0.014363259662831931
6573.602080521858,0.0035546669413356563,0.014503256990210158
6573.603080294072,0.003597526096745692,0.01463155659563208
6573.604080066288,0.0036486948948470316,0.014749040999491394
6573.605079838503,0.0037083078738772792,0.014856595441882073
6573.606079610719,0.0037764422120431015,0.014955096785723787
6573.607079382934,0.003853111995529636,0.01504540512251021
6573.608079155149,0.003938261707449349,0.015128357591443537
6573.609078927364,0.004031759148223796,0.015204763804302381
6573.610078699579,0.004133388222022774,0.015275402220794806
6573.611078471795,0.004242842165053861,0.015341016708474596
6573.61207824401,0.0043597178061345184,0.015402312337119287
6573.613078016226,0.004483511358123232,0.01545994935326017
6573.61407778844,0.004613616098743003,0.015514534454892988
6573.615077560656,0.004749322162829407,0.015566609013059986
6573.616077332871,0.004889818549884395,0.01561663462843949
6573.617077105087,0.005034197339332715,0.015664977083120174
6573.618076877302,0.0051814600012169455,0.015711890103273615
6573.619076649517,0.00533052561567975,0.01575750035205548
6573.620076421732,0.0054802407889976475,0.0158017948916488
6573.621076193947,0.005629391072162871,0.015844612158156534
6573.622075966163,0.005776713725849128,0.015885637303572026
6573.623075738378,0.005920911698907863,0.015924402506886218
6573.624075510594,0.006060668672708671,0.015960292501644
6573.625075282808,0.00619466497007924,0.01599255512619532
6573.626075055024,0.006321594043827825,0.016020316246648517
6573.627074827239,0.0064401791675766295,0.0160425980555635
6573.628074599455,0.0065491899094851785,0.016058339605727053
6573.62907437167,0.006647458036950277,0.016066418467090407
6573.6300741438845,0.006733892658634398,0.016065672514556803
6573.6310739161,0.006807494565468264,0.016054921077810893
6573.632073688315,0.006867369806060363,0.016032985073159093
6573.633073460531,0.00691274250833084,0.0159987062256762
6573.634073232746,0.0069429668678187,0.015950965866592955
6573.635073004962,0.006957538117231355,0.015888703875191115
6573.636072777176,0.006956102210683833,0.01581093812815845
6573.637072549392,0.006938463893741687,0.015716784469882557
6573.638072321607,0.006904592776131573,0.015605476862011705
6573.639072093823,0.006854627015795219,0.01547638707174655
6573.640071866038,0.0067888743220083,0.015329043079406891
6573.6410716382525,0.006707810210371467,0.01516314541833776
6573.642071410468,0.006612073738159955,0.014978580889877755
6573.643071182683,0.006502461204793296,0.014775433322667206
6573.644070954899,0.006379918416979822,0.014553991068143292
6573.645070727114,0.006245532059306598,0.014314750788785286
6573.64607049933,0.006100520522961508,0.014058417053964108
6573.647070271544,0.0059462243071054365,0.013785897488437992
6573.64807004376,0.005784095899214011,0.013498293659086181
6573.649069815975,0.005615688928035813,0.013196888329694643
6573.650069588191,0.005442646386542581,0.01288313001333597
6573.651069360406,0.005266687792853978,0.012558615899836324
6573.65206913262,0.005089595217741788,0.012225074269429353
6573.653068904836,0.004913198139473688,0.011884347409575509
6573.654068677051,0.00473935714410325,0.011538375806270984
6573.655068449267,0.0045699466104826905,0.011189184021793567
6573.656068221482,0.004406836654408021,0.010838868282240066
6573.657067993698,0.004251874657870836,0.010489585460140494
6573.658067765912,0.004106866637220748,0.010143542912041965
6573.659067538128,0.00397355856786437,0.009802988559624625
6573.660067310343,0.0038536176826017804,0.009470200671811008
6573.661067082559,0.0037486137506870182,0.009147476932635875
6573.662066854774,0.0036600004114362853,0.00883712248505447
6573.663066626988,0.003589096734083371,0.008541436727267348
6573.664066399204,0.0035370692630954693,0.008262698767321124
6573.665066171419,0.003504914856426629,0.00800315163385902
6573.666065943635,0.00349344462391318,0.007764985534642942
6573.66706571585,0.0035032692441294357,0.00755032056878562
6573.668065488065,0.003534785914057263,0.007361189304508574
6573.66906526028,0.0035881671834341352,0.007199519552269651
6573.670065032496,0.003663351940059663,0.007067117517785747
6573.671064804711,0.0037600388334251594,0.00696565133129761
6573.672064576927,0.003877682435553132,0.006896634762071508
6573.673064349142,0.004015492415303764,0.006861410809909213
6573.674064121356,0.004172435930497822,0.006861134866467738
6573.675063893572,0.004347243330241546,0.006896757224061076
6573.676063665787,0.004538417138935341,0.006969004769242423
6573.677063438003,0.004744244204506135,0.007078361650949276
6573.678063210218,0.004962810861785831,0.00722504859828008
6573.679062982433,0.0051920209772841515,0.007409000534239405
6573.680062754648,0.005429616773444222,0.007629842337105852
6573.681062526864,0.005673202353355592,0.007886863042780927
6573.682062299079,0.0059202698375963,0.008178989312230855
6573.683062071294,0.006168227962945278,0.008504759453146932
6573.68406184351,0.006414432886168809,0.008862299610722983
6573.685061615724,0.006656220823504647,0.009249303905637928
6573.68606138794,0.006890942066660128,0.00966302030867936
6573.687061160155,0.007115995844496094,0.01010024396207174
6573.688060932371,0.007328865441718967,0.010557319551108595
6573.689060704586,0.007527152979424465,0.011030154190757068
6573.690060476801,0.007708613352624789,0.011514242066758872
6573.691060249016,0.007871186973590785,0.01200470174162655
6573.692060021232,0.008013031072141524,0.012496326637053988
6573.693059793447,0.008132549266939368,0.012983648753499895
6573.694059565662,0.008228418961831156,0.013461015158468346
6573.695059337877,0.008299615932483484,0.013922676153991159
6573.696059110092,0.008345435353212414,0.014362883362066666
6573.697058882308,0.008365508517022521,0.01477599530828663
6573.698058654523,0.008359814587787992,0.01515658749964001
6573.699058426739,0.008328686838675351,0.015499563574221775
6573.700058198954,0.008272812977522165,0.015800263968489926
6573.701057971169,0.008193229359555906,0.016054568737977636
6573.702057743384,0.008091309098735198,0.016258991551236602
6573.7030575156,0.00796874422260861,0.016410762242246
6573.704057287815,0.007827522032649999,0.016507895503910804
6573.70505706003,0.007669895797736924,0.016549243357986083
6573.706056832245,0.007498349955198558,0.016534529179511665
6573.70705660446,0.007315560218221972,0.01646436158633191
6573.708056376676,0.007124349363275935,0.016340227515460333
6573.709056148891,0.006927639855090778,0.016164465062764654
6573.710055921107,0.00672840470179155,0.0159402177627335
6573.711055693322,0.006529617944740159,0.01567137263835392
6573.712055465537,0.006334206013585477,0.015362484535405983
6573.713055237752,0.006145000913786425,0.01501868915897911
6573.714055009968,0.005964695947958739,0.014645607056557782
6573.715054782183,0.005795804461528462,0.014249240656789274
6573.716054554398,0.005640621992166713,0.013835866420462094
6573.717054326613,0.005501192202943026,0.013411924173553044
6573.718054098828,0.005379277035448063,0.01298390568899715
6573.719053871044,0.005276331545384721,0.01255824449029495
6573.720053643259,0.005193483847568075,0.012141208707631695
6573.721053415475,0.005131520539318638,0.01173879874302594
6573.72205318769,0.005090877926565063,0.01135665151357415
6573.723052959905,0.005071639321414874,0.010999953019016545
6573.72405273212,0.005073538567414121,0.010673360829414762
6573.725052504336,0.005095969771882503,0.010380937857987573
6573.726052276551,0.0051380030173215074,0.010126098557327304
6573.727052048766,0.005198405633068287,0.009911568455986942
6573.728051820981,0.005275668475652175,0.00973935767948685
6573.729051593196,0.005368036605903409,0.009610748735855159
6573.730051365412,0.005473543738692135,0.009526298397036588
6573.731051137627,0.005590049840681419,0.00948585302557186
6573.732050909843,0.005715281246180877,0.00948857627144742
6573.733050682057,0.00584687265521686,0.009532987783718343
6573.734050454273,0.0059824103751861596,0.009617011465639631
6573.735050226488,0.006119476157908094,0.009738031794150444
6573.736049998704,0.006255690949748004,0.009892956750895635
6573.737049770919,0.006388757809188604,0.010078285928108345
6573.738049543134,0.006516503174743486,0.010290182351852233
6573.739049315349,0.006636915615351866,0.010524546514549421
6573.740049087564,0.006748181177068325,0.010777091132566934
6573.74104885978,0.006848714457633771,0.01104341537406635
6573.742048631995,0.0069371846073306015,0.011319077682531174
6573.743048404211,0.007012535563420736,0.011599666592304063
6573.744048176425,0.007073999925952623,0.01188086890823762
6573.745047948641,0.007121105942794745,0.012158534391937583
6573.746047720856,0.0071536771544755545,0.012428735911703638
6573.747047493072,0.007171824475560378,0.012687824034801322
6573.748047265287,0.007175930903883691,0.012932475216200964
6573.749047037502,0.007166629540166354,0.013159732888863252
6573.750046809717,0.007144775980854786,0.013367040801296142
6573.751046581932,0.007111416325035327,0.013552267987037507
6573.752046354148,0.00706775207588848,0.013713724954786833
6573.753046126363,0.0070151032181604775,0.013850171071543852
6573.754045898579,0.006954870731258265,0.013960813482185945
6573.755045670793,0.006888499708593483,0.014045298022339019
6573.756045443009,0.006817444076663946,0.014103692354942125
6573.757045215224,0.006743133662231124,0.01413646116643855
6573.75804498744,0.006666944082055172,0.014144433020630794
6573.759044759655,0.006590169688847411,0.014128758649163483
6573.760044531869,0.006513999677937565,0.01409086107860207
6573.761044304085,0.006439497469427944,0.014032378824466668
6573.7620440763,0.006367583553920531,0.013955104102034478
6573.763043848516,0.006299022007050744,0.013860918402750689
6573.764043620731,0.006234410790953005,0.013751727863380752
6573.765043392947,0.006174175826753505,0.013629400761031514
6573.766043165161,0.006118568737569877,0.013495709332271065
6573.767042937377,0.0060676681652726775,0.013352277951078637
6573.768042709592,0.006021384602875452,0.01320053946395064
6573.769042481807,0.005979468673700892,0.013041701164206752
6573.770042254023,0.005941522694333028,0.01287672150322114
6573.771042026237,0.005907015214409605,0.012706298172652293
6573.772041798453,0.005875298102022069,0.012530867657393759
6573.773041570668,0.005845625695741086,0.012350615820179711
6573.774041342884,0.005817175569184314,0.012165498614201355
6573.775041115099,0.0057890704823814615,0.011975271668326156
6573.776040887315,0.005760401057013111,0.011779527237947044
6573.777040659529,0.005730248624806571,0.011577736813436127
6573.778040431745,0.005697707660461963,0.01136929749282432
6573.77904020396,0.005661907299037606,0.011153580094405646
6573.780039976175,0.005622031609349434,0.01092997700624041
6573.781039748391,0.005577338436866779,0.01069794801259474
6573.782039520605,0.005527176685148236,0.010457062757687843
6573.783039292821,0.005471001900572048,0.010207038933689377
6573.784039065036,0.005408389992683342,0.00994777551529331
6573.785038837252,0.0053390488579791,0.009679380336404586
6573.786038609467,0.005262827585782469,0.009402191131334715
6573.787038381683,0.005179722867606344,0.009116789056940973
6573.788038153897,0.00508988227387168,0.00882400385104152
6573.7890379261125,0.004993604218364294,0.008524910230515366
6573.790037698328,0.004891334642047294,0.008220815807258629
6573.791037470543,0.004783660627192117,0.007913241486222444
6573.792037242759,0.004671301257069445,0.007603895776221276
6573.793037014973,0.004555096082937251,0.007294644599732553
6573.794036787189,0.004435991583280787,0.006987478107521
6573.795036559404,0.004315026019502371,0.006684475815739769
6573.79603633162,0.0041933131148907295,0.0063877711684517
6573.797036103835,0.004072025009246427,0.006099516418178511
6573.79803587605,0.00395237495457499,0.005821848529531759
6573.799035648265,0.0038356001916820806,0.005556856667165236
6573.8000354204805,0.003722945371964532,0.0053065517413845385
6573.801035192696,0.0036156467833406937,0.0050728384408653265
6573.802034964911,0.0035149175385214442,0.0048574901497546496
6573.803034737127,0.003421933811504337,0.004662127099475001
6573.804034509341,0.003337822173358924,0.004488198038354421
6573.805034281557,0.003263648074743811,0.004336965616678992
6573.806034053772,0.003200405524228922,0.004209495576655792
6573.807033825988,0.0031490079894668814,0.0041066497004999866
6573.808033598203,0.0031102804969803783,0.004029082311311152
6573.809033370418,0.003084952846251209,0.003977239961681824
6573.810033142633,0.0030736538147637777,0.0039513638046762235
6573.8110329148485,0.003076906230545628,0.003951494029569984
6573.812032687064,0.0030951228171439416,0.003977475675571572
6573.813032459279,0.003128602743799386,0.004028965140780303
6573.814032231495,0.0031775288223974585,0.004105436786484533
6573.815032003709,0.0032419652879489497,0.004206189159578275
6573.816031775925,0.0033218560958605827,0.0043303504935182585
6573.81703154814,0.0034170236745449324,0.004476883323832812
6573.818031320356,0.0035271680873175493,0.004644588270044509
6573.819031092571,0.0036518665849801847,0.004832107235036861
6573.820030864786,0.003790573562983044,0.005037926407226199
6573.821030637001,0.00394262095163291,0.0052603795228022485
6573.8220304092165,0.004107219049151053,0.005497651871717739
6573.823030181432,0.004283457778993839,0.005747785534080233
6573.824029953647,0.004470308366436684,0.006008686362175378
6573.825029725862,0.004666625511075436,0.00627813331946757
6573.826029498077,0.004871150248136471,0.006553790920525899
6573.827029270293,0.0050825137840268065,0.006833225587164309
6573.828029042508,0.00529924263571262,0.007113926667589592
6573.829028814724,0.005519765409197962,0.0073933326573136105
6573.830028586939,0.005742421519107383,0.007668862863940447
6573.831028359154,0.005965472060755212,0.00793795441960116
6573.832028131369,0.006187112905712898,0.0081981041926939
6573.8330279035845,0.006405489957311393,0.008446914801339722
6573.8340276758,0.006618716435241711,0.008682143593803817
6573.835027448015,0.0068248920637762125,0.008901753142130068
6573.83602722023,0.0070221240539664965,0.009103961495935514
6573.837026992445,0.007208549724542118,0.00928729016321382
6573.838026764661,0.007382360484848633,0.00945060756951255
6573.839026536876,0.00754182676002208,0.009593165730516351
6573.840026309092,0.0076853233477232955,0.009714628175650167
6573.841026081307,0.007811354689646074,0.009815087699815027
6573.842025853522,0.007918579592292911,0.009895073047682112
6573.843025625737,0.008005834990455069,0.00995554401481872
6573.8440253979525,0.008072158370625398,0.009997874787266627
6573.845025170168,0.00811680841598517,0.010023825773003127
6573.846024942383,0.008139283267998072,0.01003550465781376
6573.847024714598,0.008139335551372655,0.010035317772140711
6573.848024486813,0.008116983091467649,0.01002591299196784
6573.849024259029,0.00807251422737047,0.010010115390460107
6573.850024031244,0.008006486910196163,0.009990856857427951
6573.85102380346,0.00791972134291172,0.009971101005161282
6573.852023575675,0.007813286558956025,0.009953764886169638
6573.85302334789,0.007688481796501091,0.009941639316940623
6573.854023120105,0.007546813666386999,0.00993730987515054
6573.85502289232,0.007389969981809711,0.009943080862124767
6573.856022664536,0.0072197908803590905,0.009960904660282325
6573.857022436751,0.007038237684611549,0.009992318936536024
6573.858022208966,0.006847359900479161,0.01003839400777008
6573.859021981181,0.006649260844899984,0.010099692370313561
6573.860021753397,0.006446062568068477,0.010176241931872719
6573.861021525612,0.006239870903302629,0.010267523941441734
6573.862021297828,0.006032741565631451,0.01037247605979196
6573.863021070042,0.005826648196028411,0.010489510502570774
6573.864020842258,0.00562345312093666,0.010616546747878335
6573.865020614473,0.005424881408012707,0.010751057926323686
6573.866020386688,0.005232498618125587,0.010890129682685105
6573.867020158904,0.0050476925445167775,0.011030529998970248
6573.868019931119,0.004871659193877217,0.011168788181517102
6573.869019703334,0.004705393233225278,0.011301280913830267
6573.870019475549,0.004549683038239162,0.011424322973320118
6573.871019247765,0.0044051103388630325,0.011534259988405796
6573.87201901998,0.004272054314857673,0.011627560558470444
6573.873018792196,0.004150699873956588,0.011700905143179176
6573.87401856441,0.004041049737069424,0.011751269219858234
6573.8750183366255,0.0039429398423386575,0.011775998248336531
6573.876018108841,0.003856057469119903,0.011772872085978651
6573.877017881056,0.0037799614010992303,0.011740156833548135
6573.878017653272,0.0037141034192931365,0.01167664271913747
6573.879017425487,0.0036578504334933313,0.011581667442030433
6573.880017197702,0.003610506585481106,0.011455125207886541
6573.881016969917,0.0035713346582234118,0.011297462280371207
6573.882016742133,0.0035395761130766353,0.011109660126145286
6573.883016514348,0.0035144690974151086,0.010893207195511925
6573.884016286564,0.003495263872575646,0.010650060284693445
6573.885016058778,0.0034812353317452724,0.010382596507308965
6573.8860158309935,0.0034716925669456195,0.010093557233882734
6573.887015603209,0.0034659857061364687,0.009785985803932458
6573.888015375424,0.0034635103917456957,0.009463161169452623
6573.88901514764,0.0034637102934657726,0.009128529762813536
6573.890014919854,0.003466077981641345,0.008785637775552222
6573.89101469207,0.0034701543877281443,0.008438065740665466
6573.892014464285,0.0034755269867285344,0.008089366927487397
6573.893014236501,0.0034818267870894157,0.007743010675331823
6573.894014008716,0.003488724235585038,0.007402331441726389
6573.895013780932,0.0034959242400593132,0.00707048402322962
6573.896013553146,0.0035031606410774446,0.006750405146528324
6573.8970133253615,0.003510190562808256,0.0064447814552102715
6573.898013097577,0.003516789096345247,0.006156023810373023
6573.899012869792,0.003522744705587576,0.005886247713799198
6573.900012642008,0.003527855626119467,0.00563725950806239
6573.901012414222,0.0035319273955982146,0.005410547833863971
6573.902012186438,0.0035347715393855483,0.005207279696514918
6573.903011958653,0.003536205342993408,0.005028300445583124
6573.904011730869,0.0035360525653876877,0.004874136982794543
6573.905011503084,0.003534144876668715,0.004745003560416079
6573.9060112753,0.0035303237486186906,0.004640809631228622
6573.907011047514,0.003524442515405252,0.004561169373339216
6573.9080108197295,0.0035163683713396437,0.00450541270476237
6573.909010591945,0.0035059841571266582,0.004472597776354839
6573.91001036416,0.003493189856780101,0.004461525067582029
6573.911010136376,0.0034779037610318665,0.0044707533049096315
6573.91200990859,0.0034600632708271083,0.0044986174663627105
6573.913009680806,0.0034396253524076542,0.004543249116894409
6573.914009453021,0.003416566714210407,0.004602599241145005
6573.915009225237,0.003390883812006812,0.0046744636153812965
6573.916008997452,0.0033625927682399484,0.004756510606465341
6573.917008769668,0.0033317292341619844,0.004846311130030936
6573.918008541882,0.003298348182257321,0.004941370378411834
6573.9190083140975,0.0032625236302033767,0.005039160873027929
6573.920008086313,0.003224348368931335,0.005137156406513871
6573.921007858528,0.003183933865328458,0.005232866473981673
6573.922007630744,0.003141410584169248,0.005323870802756117
6573.923007402958,0.00309692898359845,0.005407853568307845
6573.924007175174,0.003050661379413989,0.005482636862568156
6573.925006947389,0.0030028047676875203,0.005546212999186339
6573.926006719605,0.0029535845655183236,0.005596775309655967
6573.92700649182,0.002903259093691039,0.005632747171810578
6573.928006264035,0.002852124505633276,0.0056528090716339635
6573.92900603625,0.0028005197869260044,0.005655923503277411
6573.9300058084655,0.0027488314145315985,0.005641357450882562
6573.931005580681,0.002697497267416153,0.005608702069657259
6573.932005352896,0.0026470094198185828,0.005557889013672753
6573.933005125112,0.002597915533528113,0.005489202704492633
6573.934004897326,0.0025508186874178065,0.005403287782377097
6573.935004669542,0.0025063756012121334,0.005301151072864367
6573.936004441757,0.002465293289895522,0.0051841575969635775
6573.937004213973,0.002428324230302684,0.005054020367261759
6573.938003986188,0.0023962601569890393,0.004912783864120515
6573.939003758403,0.0023699246373396076,0.0047628011426687706
6573.940003530618,0.0023501646008238235,0.004606704538182689
6573.941003302833,0.0023378410129650897,0.004447370030719823
6573.942003075049,0.0023338188846451914,0.004287875559928278
6573.943002847264,0.0023389567774944665,0.004131453887484178
6573.94400261948,0.0023540959015430846,0.003981440877195604
6573.945002391694,0.0023800488156507814,0.003841220238013872
6573.94600216391,0.002417587661150577,0.003714165854651202
6573.947001936125,0.0024674318217420377,0.0036035828486607425
6573.948001708341,0.002530234942759859,0.003512648500794768
6573.949001480556,0.0026065713599531257,0.0034443541309045083
6573.950001252771,0.0026969221339621305,0.0034014489755808835
6573.951001024986,0.0028016610060616997,0.0033863870409011248
6573.952000797201,0.002921040661542316,0.003401277848734964
6573.953000569417,0.003055179712973317,0.003447841931751782
6573.954000341632,0.003204050801352056,0.003527371854821672
6573.955000113847,0.003367470168895337,0.003640699448311865
6573.955999886062,0.0035450890053502072,0.00378816983795195
6573.956999658278,0.0037363868255526653,0.003969622763111956
6573.957999430493,0.0039406670884986434,0.004184381604108761
6573.958999202709,0.00415705519272932,0.004431250472162963
6573.959998974924,0.0043844988776240105,0.004708519613466547
6573.960998747139,0.004621770967595868,0.00501397922262071
6573.961998519354,0.00486747437238707,0.005344941569339704
6573.962998291569,0.005120049307602567,0.005698271150852082
6573.963998063785,0.005377782764734754,0.006070422419812739
6573.964997836,0.0056388202810874685,0.006457484521158313
6573.965997608215,0.005901180046825633,0.006855232405125192
6573.96699738043,0.006162769389088737,0.007259183653350818
6573.967997152646,0.0064214037132498975,0.007664660328231218
6573.968996924861,0.0066748280328199835,0.008066855092967045
6573.969996697077,0.006920741232443483,0.008460900723704215
6573.970996469292,0.007156823132670776,0.008841941948181114
6573.9719962415065,0.007380764239281552,0.00920520834051704
6573.972996013722,0.007590297797255519,0.009546086863074552
6573.973995785937,0.0077832334991224635,0.00986019265069195
6573.974995558153,0.00795749198375385,0.010143436762792852
6573.975995330368,0.008111139157629604,0.010392089756261939
6573.976995102583,0.00824241941926365,0.0106028399237049
6573.977994874798,0.008349787064392166,0.010772844892497855
6573.978994647014,0.008431935406566697,0.010899775149033373
6573.979994419229,0.008487823325829877,0.010981848162504807
6573.980994191445,0.008516698954304151,0.01101785223074591
6573.98199396366,0.008518120021389299,0.011007159812022082
6573.9829937358745,0.008491970112087941,0.010949730653063709
6573.98399350809,0.008438469881654007,0.010846105287129214
6573.984993280305,0.00835818223794867,0.010697389500476369
6573.985993052521,0.008252010701215721,0.010505230313328617
6573.986992824736,0.008121190539924005,0.010271783989512808
6573.987992596951,0.007967272740093467,0.009999676589120108
6573.988992369166,0.007792101248815495,0.009691957632354213
6573.989992141382,0.007597784155441613,0.009352047592632712
6573.990991913597,0.007386659559630964,0.008983680166626479
6573.9919916858125,0.007161256918455887,0.008590840502774791
6573.992991458027,0.006924254746944499,0.008177700759897044
6573.9939912302425,0.00667843568586826,0.007748554500248831
6573.994991002458,0.006426640102455437,0.007307751456138575
6573.995990774673,0.006171719485957913,0.006859634107952346
6573.996990546889,0.005916490902653556,0.0064084773130069
6573.997990319104,0.005663693689947197,0.005958432008981507
6573.998990091319,0.005415949413464285,0.0055134738150111095
6573.999989863534,0.005175725894571329,0.00507735715446292
6574.00098963575,0.004945305862272235,0.004653575325794375
6574.001989407965,0.004726760538837634,0.00424532677223769
6574.0029891801805,0.004521928272904371,0.003855487653807571
6574.003988952395,0.004332398191570371,0.003486590692251909
6574.0049887246105,0.004159498731356284,0.0031408101336363524
6574.005988496826,0.0040042908116811144,0.0028199525653171717
6574.006988269041,0.003867565345219608,0.0025254532454523954
6574.007988041257,0.0037498447621266352,0.0022583775529344836
6574.008987813472,0.003651388270105192,0.00201942714010037
6574.009987585687,0.0035722006549385853,0.0018089503676709088
6574.010987357902,0.003512044492086205,0.0016269566093683964
6574.011987130118,0.0034704556420335404,0.0014731340143661594
6574.012986902333,0.003446761833939157,0.001346870304538419
6574.0139866745485,0.0034401040310182386,0.0012472761711056083
6574.014986446763,0.0034494601443390924,0.0011732108277349978
6574.0159862189785,0.003473670528881645,0.0011233092688515357
6574.016985991194,0.003511464560108729,0.0010960107683828772
6574.017985763409,0.0035614874672204857,0.0010895881395093761
6574.018985535625,0.0036223265230642936,0.0011021772689605574
6574.019985307839,0.003692535695082901,0.0011318064500415738
6574.020985080055,0.0037706579684359796,0.0011764250748059028
6574.02198485227,0.0038552447583953564,0.0012339313073375313
6574.022984624486,0.00394487209453367,0.0013021984389952187
6574.023984396701,0.004038153512165659,0.001379099714968059
6574.0249841689165,0.004133749765234303,0.0014625315140970095
6574.025983941131,0.004230375575975134,0.0015504348506623106
6574.026983713346,0.0043268037084176255,0.0016408152321856105
6574.027983485562,0.004421866740254582,0.0017317609424020522
6574.028983257777,0.004514457014417379,0.0018214598325768212
6574.029983029993,0.004603525347134921,0.0019082147154047793
6574.030982802207,0.004688079117425594,0.0019904574693311323
6574.031982574423,0.004767180344066777,0.0020667619655878764
6574.032982346638,0.004839944276638213,0.002135855913720006
6574.033982118854,0.004905538919894102,0.0021966316836713536
6574.034981891069,0.004963185810577663,0.0022481561103785655
6574.0359816632845,0.005012162277365391,0.0022896792265763733
6574.036981435499,0.005051805315050306,0.0023206418064959378
6574.037981207714,0.005081517082302527,0.0023406815444471946
6574.03898097993,0.00510077190772963,0.002349637643502701
6574.039980752145,0.005109124587872339,0.0023475535500547522
6574.040980524361,0.005106219687787515,0.002334677541422367
6574.041980296575,0.005091801488540364,0.002311460867996265
6574.042980068791,0.005065724141776516,0.0022785531793812017
6574.043979841006,0.005027961491667081,0.002236795021755657
6574.044979613222,0.004978615935904731,0.002187207268278294
6574.045979385437,0.0049179256433661105,0.002130977423944774
6574.0469791576525,0.004846269446899613,0.0020694428260448973
6574.047978929867,0.004764168828613417,0.002004070849230153
6574.048978702082,0.0046722866460841075,0.0019364363321067327
6574.049978474298,0.004571422557147412,0.001868196563174964
6574.050978246513,0.004462505355547385,0.0018010642695869643
6574.051978018729,0.004346582539589286,0.0017367791195521452
6574.052977790943,0.004224807432214135,0.0016770782796831256
6574.053977563159,0.0040984241491176035,0.001623666580331585
6574.054977335374,0.003968750730300502,0.001578186848264623
6574.05597710759,0.0038371608024019093,0.0015421909618945084
6574.056976879805,0.0037050641926254526,0.0015171121565546299
6574.05797665202,0.0035738869481005383,0.0015042390541497347
6574.058976424235,0.003445051214115552,0.0015046918252767908
6574.05997619645,0.0033199553881105293,0.0015194008275981588
6574.060975968666,0.0031999549083371326,0.001549088010468514
6574.061975740881,0.003086343974571823,0.0015942513326705086
6574.062975513097,0.002980338436646915,0.0016551524005246892
6574.063975285311,0.002883060022307637,0.0017318074874857932
6574.064975057527,0.002795522016002128,0.0018239820388979034
6574.065974829742,0.0027186164566080752,0.0019311887054230877
6574.066974601958,0.002653102901471628,0.002052688900955194
6574.067974374173,0.002599598810085836,0.002187497850412863
6574.068974146388,0.0025585716310694805,0.0023343930734186246
6574.069973918603,0.0025303327130673883,0.0024919262391332945
6574.070973690818,0.0025150331811504495,0.00265843832930987
6574.071973463034,0.002512661916572777,0.0028320780593588573
6574.072973235249,0.0025230457518102744,0.0030108235188949007
6574.073973007465,0.00254585194957984,0.0031925069878503275
6574.074972779679,0.00258059298126092,0.0033748428518369255
6574.075972551895,0.002626633560749252,0.0035554584828212435
6574.07697232411,0.0026831998191903426,0.0037319278750204453
6574.0779720963255,0.002749390422236568,0.003901807732400323
6574.078971868541,0.002824189354473727,0.004062675594360708
6574.079971640756,0.0029064800638895954,0.004212169471498674
6574.080971412971,0.0029950606954504155,0.004348028356151768
6574.081971185186,0.003088660223989193,0.004468132873323673
6574.082970957402,0.00318595536894255,0.0045705452476996885
6574.083970729617,0.003285588200417572,0.004653547703257001
6574.084970501832,0.0033861843360054327,0.00471567841777048
6574.085970274047,0.0034863716211215906,0.004755764238268543
6574.086970046263,0.003584799219290755,0.004772949490782539
6574.087969818478,0.0036801571063554794,0.004766720327393971
6574.0889695906935,0.003771196005780504,0.0047369241152109675
6574.089969362909,0.0038567477609459185,0.004683783416605635
6574.090969135124,0.003935746010235994,0.004607904200072191
6574.091968907339,0.004007246856316775,0.0045102780900816665
6574.092968679554,0.004070449044908449,0.004392278680541668
6574.09396845177,0.004124713006562614,0.004255652122723631
6574.094968223985,0.0041695779760748215,0.0041025022984285935
6574.0959679962,0.004204776321023269,0.003935270918534176
6574.096967768415,0.0042302442397848415,0.003756712908259054
6574.097967540631,0.00424612815749889,0.003569867482710288
6574.098967312846,0.004252786408314927,0.003378025348733421
6574.0999670850615,0.004250786061744308,0.0031846924615964883
6574.100966857277,0.004240894989809354,0.002993550736060912
6574.101966629492,0.004224069479655389,0.002808416100410944
6574.102966401707,0.004201437859263765,0.002633194303903223
6574.103966173922,0.004174280690445334,0.0024718349233667533
6574.104965946138,0.004144008081937943,0.0023282840320843893
6574.105965718353,0.004112134612179698,0.002206435984271166
6574.106965490568,0.004080252280441517,0.002110084753890413
6574.107965262783,0.004050001881564085,0.002042875272057468
6574.108965034999,0.00402304324519497,0.002008255232478776
6574.109964807214,0.004001024871699075,0.0020094278654033725
6574.1109645794295,0.003985553585464122,0.0020493062143056924
6574.111964351645,0.003978164872183049,0.002130469489530246
6574.11296412386,0.003980294560686438,0.0022551221114943004
6574.113963896075,0.003993252464414278,0.0024250560765654637
6574.11496366829,0.004018198521756679,0.002641617272586227
6574.115963440506,0.0040561218741013635,0.0029056763385163576
6574.116963212721,0.004107823209361512,0.0032176046128885314
6574.117962984936,0.004173900585277046,0.0035772556757796775
6574.118962757151,0.004254738823277124,0.003983952990541822
6574.119962529367,0.0043505024282222,0.00443648419132648
6574.120962301582,0.004461131863641651,0.00493310259405508
6574.1219620737975,0.0045863429306214525,0.0054715364816567595
6574.122961846013,0.004725628982143766,0.006049006608823372
6574.123961618227,0.004878265737322082,0.006662252199075745
6574.124961390443,0.0050433184999484374,0.007307565494701731
6574.125961162658,0.005219651616360408,0.007980834685814885
6574.126960934874,0.00540594005375774,0.008677594787465846
6574.127960707089,0.005600683054918562,0.009393085756704453
6574.128960479304,0.005802219897444109,0.010122316870741038
6574.129960251519,0.006008747827221065,0.010860136150512767
6574.130960023735,0.006218342260713576,0.01160130342654095
6574.13195979595,0.006428979374665587,0.012340565546162073
6574.1329595681655,0.006638561202900595,0.013072732277271107
6574.13395934038,0.006844943307773579,0.013792751653211142
6574.134959112595,0.007045964985131044,0.014495783672660318
6574.135958884811,0.007239481806946313,0.015177271304932311
6574.136958657026,0.007423400108253844,0.015833007758377877
6574.137958429242,0.007595712794197631,0.01645919914391736
6574.138958201457,0.007754535624870602,0.01705252204168149
6574.139957973672,0.00789814300707582,0.01761017589061728
6574.140957745887,0.008025002332864442,0.018129930361042424
6574.141957518103,0.008133806021021282,0.018610167808341384
6574.142957290318,0.008223500533525009,0.01904992052643137
6574.143957062533,0.008293311650305784,0.01944890196389078
6574.144956834748,0.00834276517637619,0.019807530645692854
6574.145956606963,0.008371702134144406,0.02012694558168237
6574.146956379179,0.008380287530274998,0.02040901248000188
6574.147956151394,0.008369012076723033,0.020656320791950768
6574.14895592361,0.008338686721232511,0.02087217210852261
6574.149955695824,0.008290430318413453,0.02106056061844583
6574.15095546804,0.008225651089604536,0.02122614640312049
6574.151955240255,0.008146022644781504,0.021374222449595238
6574.152955012471,0.008053455335690636,0.021510676391769314
6574.153954784686,0.007950063644507314,0.021641947998887336
6574.154954556901,0.007838130228340894,0.021774983193194136
6574.155954329116,0.0077200671856638365,0.02191718490649657
6574.156954101331,0.007598375144473994,0.022076360529714917
6574.157953873547,0.007475600900146398,0.022260665217859046
6574.158953645762,0.007354294478414084,0.022478539895711237
6574.159953417978,0.00723696657980253,0.022738642419705597
6574.160953190192,0.0071260473648967594,0.02304977010176439
6574.161952962408,0.007023847509580791,0.023420771972655983
6574.162952734623,0.006932522414147772,0.023860449869151194
6574.163952506839,0.0068540403642410805,0.02437744835478598
6574.164952279054,0.00679015529331464,0.02498013413711918
6574.165952051269,0.006742384595204824,0.025676465855340124
6574.166951823484,0.006711992206083855,0.02647385515111953
6574.167951595699,0.006699976930858099,0.027379020150341715
6574.168951367915,0.0067070657298040764,0.02839783294067056
6574.16995114013,0.006733711429733293,0.029535163187975225
6574.170950912346,0.006780094157959836,0.030794720660166922
6574.17195068456,0.006846125806109834,0.03217890019917995
6574.172950456776,0.006931457013748217,0.033688633452501456
6574.173950228991,0.007035486396098722,0.03532325202116191
6574.174950001207,0.007157371886974615,0.03708036635924466
6574.175949773422,0.007296044095006953,0.038955764032989795
6574.176949545637,0.007450221542342568,0.04094333033292342
6574.177949317852,0.007618427631324046,0.04303499404926352
6574.178949090067,0.0077990091786464405,0.04522070138888933
6574.179948862283,0.007990156364071315,0.047488421144224205
6574.180948634498,0.008189923964920937,0.04982418392925039
6574.181948406714,0.008396253779755537,0.052212157544281185
6574.182948178928,0.00860699815916621,0.0546347596960352
6574.183947951144,0.008819944539331973,0.057072808756675586
6574.184947723359,0.009032840812335245,0.05950571297241151
6574.185947495575,0.009243421272621535,0.06191169818741159
6574.18694726779,0.00944943277025087,0.06426807339676441
6574.187947040005,0.009648660616119588,0.06655153211937159
6574.18894681222,0.009838953766082485,0.06873848572778106
6574.189946584435,0.010018248889448479,0.07080542276556066
6574.190946356651,0.010184593095768402,0.07272928633953413
6574.191946128866,0.010336165285509463,0.07448786018450404
6574.192945901082,0.010471296188493694,0.07606015302004282
6574.193945673296,0.010588487063878958,0.07742677038772341
6574.194945445512,0.010686426766014731,0.07857026350265492
6574.195945217727,0.010764006555183408,0.07947544598151064
6574.196944989943,0.01082033181934095,0.08012967124892385
6574.197944762158,0.010854729902651053,0.08052306497144165
6574.1989445343725,0.010866753544876272,0.08064870727644576
6574.199944306588,0.010856179930328225,0.08050275918776828
6574.200944078803,0.010823005827305563,0.08008452795654245
6574.201943851019,0.010767439578789529,0.07939646786202796
6574.202943623234,0.010689890730587334,0.07844411660832454
6574.20394339545,0.01059095795093892,0.07723597165860248
6574.204943167664,0.010471415746547048,0.07578331444671031
6574.20594293988,0.01033220040733026,0.07409999245396455
6574.206942712095,0.01017439564430267,0.07220216928879472
6574.207942484311,0.009999218485339655,0.07010805142405979
6574.208942256526,0.009808006071808503,0.06783759790985307
6574.20994202874,0.009602203976132274,0.06541221711445673
6574.210941800956,0.009383356524150916,0.0628544530191258
6574.211941573171,0.009153099387689738,0.06018766308579008
6574.212941345387,0.008913154452876404,0.05743569018493668
6574.213941117602,0.008665326718475917,0.05462253221471584
6574.214940889817,0.008411502773693296,0.051772014432165434
6574.215940662032,0.00815365024705299,0.04890747070768669
6574.216940434248,0.007893817487471293,0.046051440487537676
6574.217940206463,0.007634132617296221,0.04322538793156915
6574.218939978679,0.007376800988326772,0.04044944855757946
6574.219939750894,0.007124100041470314,0.03774220720770061
6574.220939523108,0.006878370725965113,0.035120509757010795
6574.221939295324,0.006642005006390988,0.03259930995186656
6574.222939067539,0.006417429458806064,0.030191552057693617
6574.223938839755,0.006207085344597428,0.02790808949327134
6574.22493861197,0.00601340574570301,0.025757639252066318
6574.225938384185,0.005838790393740247,0.023746771596644234
6574.2269381564,0.005685578842858355,0.021879934177102305
6574.227937928616,0.00555602267594269,0.020159509301836076
6574.228937700831,0.005452257477922367,0.0185859025648259
6574.229937473046,0.0053762753355729755,0.017157660438000388
6574.230937245262,0.005329898619174952,0.015871613807087473
6574.231937017476,0.0053147557496290914,0.014723043793624751
6574.232936789692,0.005332259543507438,0.013705865612894897
6574.233936561907,0.0053835885743971435,0.012812825764802
6574.234936334123,0.005469671835049324,0.012035707666666966
6574.235936106338,0.005591176874163541,0.011365540970277355
6574.236935878553,0.005748501513306765,0.010792810148174074
6574.237935650768,0.005941769176242218,0.010307658274329638
6574.238935422984,0.0061708277476924455,0.009900082185928801
6574.239935195199,0.006435251727617147,0.009560115532286431
6574.240934967414,0.00673434728208311,0.009277996725075156
6574.24193473963,0.007067159622597694,0.009044319433216244
6574.242934511844,0.0074324819730434985,0.008850163821507237
6574.24393428406,0.007828865210230285,0.008687207090303893
6574.244934056275,0.008254627125292036,0.008547812103225435
6574.245933828491,0.008707860243731118,0.008425093224177197
6574.246933600706,0.00918643736900869,0.008312959140291998
6574.247933372921,0.009688014478296099,0.008206133419838965
6574.248933145136,0.010210031154674701,0.008100154594837641
6574.249932917352,0.010749709229193737,0.007991358349622077
6574.250932689567,0.011304050688503634,0.007876844759006608
6574.251932461782,0.011869836203168225,0.0077544334848911114
6574.252932233998,0.012443625814828548,0.007622609577435972
6574.253932006212,0.013021763324981235,0.007480462227061871
6574.254931778428,0.013600385774604058,0.0073276186060602
6574.255931550643,0.014175439182808884,0.007164174835849437
6574.256931322859,0.014742701464237933,0.006990626024224636
6574.257931095074,0.015297813118350316,0.00680779714422091
6574.258930867289,0.015836315828693423,0.00661677626675761
6574.259930639504,0.016353698549033645,0.006418851361460668
6574.26093041172,0.016845450045407655,0.006215451576617478
6574.261930183935,0.017307116277520032,0.006008093606548309
6574.26292995615,0.017734360583756808,0.005798333464858302
6574.263929728365,0.01812302460674008,0.005587723736368925
6574.26492950058,0.0184691883526317,0.005377776214836907
6574.265929272796,0.018769228454201838,0.005169929767716434
6574.266929045011,0.019019874136061404,0.0049655232857862995
6574.267928817227,0.019218260309240492,0.004765773614851813
6574.268928589442,0.01936197679080254,0.004571758369536146
6574.269928361657,0.01944911215608568,0.004384403489507106
6574.270928133872,0.019478290430155958,0.00420447535605298
6574.271927906088,0.019448698881621214,0.0040325772708931
6574.272927678303,0.01936010567254774,0.0038691500993913294
6574.273927450518,0.019212866918389096,0.0037144768683891423
6574.274927222733,0.0190079235135524,0.0035686910683012194
6574.275926994948,0.01874678857918635,0.003431788345049447
6574.276926767164,0.01843152646920441,0.0033036411949534565
6574.277926539379,0.018064724040164355,0.0031840162012585415
6574.278926311595,0.017649454613062363,0.0030725932671704704
6574.279926083809,0.01718923497057466,0.0029689862059921594
6574.280925856025,0.016687975927943084,0.002872763970521582
6574.28192562824,0.016149927419111913,0.0027834717810189735
6574.282925400456,0.015579619488419783,0.0027006514566772126
6574.283925172671,0.014981800880013293,0.0026238603380746455
6574.284924944886,0.014361376926431009,0.0025526882634639577
6574.285924717101,0.013723348141080836,0.002486772121362941
6574.286924489316,0.013072750466449953,0.0024258075798405075
6574.287924261532,0.012414597735239827,0.0023695577253568575
6574.288924033747,0.011753826682249783,0.0023178585287005468
6574.289923805963,0.011095244782372619,0.0022706212472044266
6574.290923578177,0.010443481229771965,0.002227832014937367
6574.291923350393,0.009802941468881934,0.002189548940859591
6574.292923122608,0.009177765764871849,0.0021558970460979865
6574.293922894824,0.008571792293169846,0.0021270613599914255
6574.294922667039,0.007988525155207723,0.0021032784863178754
6574.295922439254,0.007431107663633223,0.002084826955551644
6574.296922211469,0.0069023012057743745,0.0020720166919314044
6574.297921983684,0.006404469944275576,0.0020651779349916207
6574.2989217559,0.0059395715143431135,0.0020646499540934084
6574.299921528115,0.00550915374659083,0.002070769876308618
6574.300921300331,0.005114357315146495,0.002083861913049793
6574.301921072545,0.004755924082523708,0.002104227221420426
6574.302920844761,0.0044342107684713005,0.002132134575539272
6574.303920616976,0.004149207414931233,0.0021678119605980165
6574.304920389192,0.003900559988555956,0.002211439157192877
6574.305920161407,0.0036875963934406624,0.0022631413719769035
6574.306919933622,0.0035093551701300633,0.0023229839873599783
6574.307919705837,0.0033646162181040773,0.0023909685213428255
6574.308919478052,0.0032519329819046122,0.002467029888660772
6574.309919250268,0.0031696656606765984,0.002551035042852992
6574.310919022483,0.0031160150835013284,0.00264278307629848
6574.311918794699,0.0030890568911966895,0.002742006870095073
6574.312918566913,0.003086775586609611,0.002848376403356132
6574.313918339129,0.0031070979081501754,0.0029615038272758844
6574.314918111344,0.003147924894556608,0.0030809503736756974
6574.315917883559,0.003207161982209903,0.003206235118014881
6574.316917655775,0.0032827465341616247,0.0033368455781204644
6574.31791742799,0.0033726723290979253,0.003472250108241875
6574.318917200205,0.003475010689055226,0.0036119120266367836
6574.31991697242,0.0035879280561167477,0.003755305371982676
6574.320916744636,0.0037096999410677458,0.003901932111080013
6574.321916516851,0.0038387212753430316,0.004051340526506057
6574.322916289067,0.003973513291477554,0.004203144416756658
6574.323916061281,0.004112727116899561,0.004357042661143861
6574.324915833497,0.004255144297557798,0.004512838648157953
6574.325915605712,0.004399674498000456,0.0046704590411187
6574.326915377927,0.004545350669325522,0.004829971353103861
6574.327915150143,0.004691322040387785,0.004991599815390192
6574.328914922357,0.004836845378705384,0.005155739042679182
6574.329914694573,0.004981275080600884,0.005322965022463894
6574.330914466788,0.0051240527398804464,0.0054940430007197685
6574.331914239004,0.005264696847989393,0.00566993193840926
6574.332914011219,0.0054027931727602604,0.00585178539144175
6574.333913783435,0.005537986178816804,0.006040948872954632
6574.334913555649,0.005669971639259243,0.0062389538939761026
6574.335913327865,0.00579849038683169,0.006447508872337573
6574.33691310008,0.005923322998868367,0.006668486955461121
6574.337912872295,0.0060442851186245355,0.006903910609107028
6574.338912644511,0.006161223068164424,0.007155932710038401
6574.339912416725,0.006274009392125178,0.007426813941249089
6574.340912188941,0.006382538015581238,0.007718896506036519
6574.341911961156,0.006486718838721379,0.008034574403401573
6574.342911733372,0.006586471813000157,0.008376260574497932
6574.343911505587,0.00668172077759673,0.008746351094633953
6574.344911277802,0.006772387496386525,0.009147186327939663
6574.345911050017,0.006858386382068229,0.009581008672693396
6574.3469108222325,0.006939620350355055,0.01004991626755187
6574.347910594448,0.00701597816238063,0.0105558119134353
6574.348910366663,0.007087333503214291,0.011100346665033081
6574.349910138879,0.0071535458938629245,0.011684858141947734
6574.350909911093,0.0072144633435835505,0.012310304460666272
6574.351909683309,0.007269926458067383,0.012977195544546759
6574.352909455524,0.007319773595075554,0.013685524293554295
6574.35390922774,0.0073638466542755,0.014434700663668592
6574.354908999955,0.007401997182675201,0.015223492035508737
6574.35590877217,0.007434092592911311,0.016049973214470405
6574.356908544385,0.0074600223750092886,0.016911489007327182
6574.3579083166005,0.007479704233574109,0.01780463173640571
6574.358908088816,0.007493090094870136,0.018725235456841693
6574.359907861031,0.00750017185882288,0.019668388087680434
6574.360907633247,0.007500986601997298,0.020628462119388014
6574.361907405461,0.007495620728147581,0.021599163988273624
6574.362907177677,0.007484212407914826,0.02257360160749312
6574.363906949892,0.007466951600113898,0.023544368893875817
6574.364906722108,0.007444077008139459,0.02450364539827834
6574.365906494323,0.007415869527190552,0.025443308376043715
6574.366906266538,0.007382642128108604,0.026355053986581552
6574.367906038753,0.007344726635729842,0.027230524004161632
6574.3689058109685,0.007302458301854228,0.028061434581951327
6574.369905583184,0.007256159302897827,0.028839704136793296
6574.370905355399,0.007206122320314538,0.0295575779907008
6574.371905127615,0.007152595267179801,0.03020774768565785
6574.372904899829,0.007095768068648246,0.03078346278303276
6574.373904672045,0.0070357622305081795,0.03127863267599362
6574.37490444426,0.00697262376593593,0.03168791588303681
6574.375904216476,0.006906319896296884,0.03200679478233006
6574.376903988691,0.0068367397805546475,0.03223163478328954
6574.377903760906,0.0067636993371012945,0.03235972814989995
6574.378903533121,0.006686949986824889,0.032389323615327315
6574.3799033053365,0.006606190893480036,0.03231964324896736
6574.380903077552,0.006521084081551875,0.03215088771750433
6574.381902849767,0.006431271728319522,0.03188423032507991
6574.382902621983,0.006336394923675768,0.031521799408123156
6574.383902394197,0.006236113188583995,0.031066648215512967
6574.384902166413,0.006130124022318611,0.030522711516067648
6574.385901938628,0.006018181771889837,0.02989474871217285
6574.386901710844,0.005900115222528644,0.029188273973413333
6574.387901483059,0.005775843441107832,0.028409474698032837
6574.388901255274,0.005645389479748586,0.027565120295989003
6574.389901027489,0.005508891541687599,0.02666246360170523
6574.3909007997045,0.005366611181589928,0.025709137062673262
6574.39190057192,0.005218938141739693,0.024713045477559863
6574.392900344135,0.005066391551615554,0.02368225687830151
6574.39390011635,0.004909617396979306,0.02262489330237691
6574.394899888565,0.00474938232589937,0.021549023500489838
6574.395899660781,0.004586563983802295,0.020462559841268296
6574.396899432996,0.004422138172805222,0.01937316171067867
6574.397899205212,0.004257163207578517,0.018288147546549664
6574.398898977427,0.004092761881025649,0.017214417302986507
6574.399898749642,0.0039301014785302945,0.01615838663745162
6574.400898521857,0.0037703723213502716,0.015125933521174242
6574.401898294072,0.0036147653853450946,0.014122357379947027
6574.402898066288,0.003464449604496233,0.013152350383482782
6574.403897838503,0.003320549491621167,0.012219980210255397
6574.404897610718,0.003184123680096111,0.011328683531222556
6574.405897382933,0.003056144937379881,0.010481269485096291
6574.406897155149,0.002937482152615421,0.00967993243288894
6574.407896927364,0.0028288847525308964,0.00892627321192821
6574.40889669958,0.00273096992943799,0.008221327981752007
6574.409896471794,0.0026442129684372847,0.0075656036369085656
6574.41089624401,0.0025689408572817586,0.00695911868411471
6574.411896016225,0.0025053292647723,0.0064014484004480225
6574.41289578844,0.0024534028763899545,0.00589177297998704
6574.413895560656,0.002413038973933389,0.005428927310730045
6574.414895332871,0.0023839740486143496,0.0050114511019221965
6574.415895105086,0.002365813157581588,0.004637638311064289
6574.416894877301,0.0023580416785118387,0.004305585110523262
6574.417894649517,0.0023600390897570694,0.004013235887512217
6574.418894421732,0.0023710944056926126,0.0037584269312467824
6574.419894193948,0.0023904229156181964,0.003538927511636663
6574.420893966162,0.0024171838841911437,0.00335247801272323
6574.421893738378,0.002450498848638397,0.003196824690334987
6574.422893510593,0.002489470087320588,0.0030697505330477704
6574.423893282808,0.002533198757028727,0.0029691016896658783
6574.424893055024,0.0025808021461439907,0.002892809031776928
6574.425892827239,0.0026314295092143823,0.0028389046201269053
6574.426892599454,0.0026842760469718424,0.0028055330619660332
6574.427892371669,0.002738594747414773,0.0027909579287390684
6574.428892143885,0.0027937059667222544,0.002793563541924222
6574.4298919161,0.0028490047727585065,0.002811852535434219
6574.430891688316,0.0029039661773957916,0.0028444396667199954
6574.43189146053,0.002958148429884554,0.00289004238179242
6574.4328912327455,0.0030111945349832834,0.002947468652946646
6574.433891004961,0.003062832127730603,0.003015602610702659
6574.434890777176,0.003112871820122191,0.0030933884944847885
6574.435890549392,0.0031612041503916058,0.0031798134624707744
6574.436890321607,0.0032077952959201073,0.0032738898311295193
6574.437890093822,0.0032526817169997325,0.0033746373457723645
6574.438889866037,0.0032959638556471368,0.0034810660969720976
6574.439889638253,0.003337798942194071,0.003592160686760774
6574.440889410468,0.0033783929148041773,0.0037068662251764284
6574.441889182684,0.0034179914652361166,0.0038240767203942894
6574.442888954898,0.0034568702693949355,0.003942626416365618
6574.4438887271135,0.0034953244965948327,0.004061284610121175
6574.444888499329,0.0035336576912656835,0.004178754418494912
6574.445888271544,0.0035721701107422916,0.004293675847742469
6574.44688804376,0.0036111466379955695,0.004404633361747485
6574.447887815975,0.003650844498426393,0.004510167969431305
6574.44888758819,0.0036914811689289367,0.004608793674394384
6574.449887360405,0.0037332230092607037,0.004699017952445771
6574.450887132621,0.003776175205852697,0.0047793657504954295
6574.451886904836,0.0038203735760464863,0.0048484063457244295
6574.452886677052,0.003865778671240724,0.0049047822729071005
6574.453886449266,0.0039122724946255615,0.004947239417213948
6574.4548862214815,0.003959658038528518,0.0049746572958482916
6574.455885993697,0.004007661733025656,0.004986078558770213
6574.456885765912,0.004055938755379932,0.004980736845022283
6574.457885538128,0.004104080979866631,0.004958082276111169
6574.458885310342,0.004151627189156813,0.0049178039541250135
6574.459885082558,0.004198075073360441,0.004859848828260304
6574.460884854773,0.004242894529182619,0.004784436266935682
6574.461884626989,0.004285541804076411,0.0046920677147080266
6574.462884399204,0.004325474051148575,0.004583530948889901
6574.46388417142,0.004362163835554335,0.004459898636048333
6574.464883943634,0.004395113071478278,0.004322521073761768
6574.4658837158495,0.0044238658245149085,0.0041730131792128665
6574.466883488065,0.004448019461446898,0.0040132359783452256
6574.46788326028,0.004467233800113606,0.0038452730674420972
6574.468883032496,0.004481238153115416,0.003671402717141294
6574.46988280471,0.004489836366771662,0.0034940663995126336
6574.470882576926,0.004492910054647871,0.0033158345294413793
6574.471882349141,0.004490420213324538,0.0031393701685911734
6574.472882121357,0.004482407351889868,0.0029673913812825713
6574.473881893572,0.00446899024229335,0.0028026328636771066
6574.474881665787,0.004450363441742431,0.0026478074055877113
6574.475881438002,0.004426793822148198,0.002505567712614652
6574.4768812102175,0.004398616390493529,0.00237846911111104
6574.477880982433,0.004366229645140326,0.0022689336526857365
6574.478880754648,0.0043300906030153035,0.0021792161149490814
6574.479880526864,0.004290709506838503,0.002111372359335852
6574.480880299078,0.004248644127639405,0.0020672304482789424
6574.481880071294,0.004204493545038155,0.0020483648420058648
6574.482879843509,0.0041588913161462095,0.002056073907120968
6574.483879615725,0.004112497990928209,0.002091360897982484
6574.48487938794,0.004065992949216395,0.002154918529843257
6574.485879160155,0.004020065525819003,0.0022471172482773183
6574.48687893237,0.003975405406401184,0.0023679973068813395
6574.4878787045855,0.003932692359246821,0.00251726478882476
6574.488878476801,0.003892585507837845,0.002694291731202088
6574.489878249016,0.003855712491231414,0.002898120509785564
6574.490878021232,0.0038226589427184775,0.0031274726075197694
6574.491877793446,0.0037939587251915683,0.003380761836828946
6574.492877565662,0.0037700853216928194,0.003656112025563695
6574.493877337877,0.0037514447177904742,0.00395137911255748
6574.494877110093,0.0037383700311719842,0.00426417754599043
6574.495876882308,0.00373111804083009,0.0045919108561821775
6574.496876654523,0.0037298676472368973,0.004931806270315183
6574.497876426738,0.00373472016009259,0.005280953202385967
6574.498876198953,0.0037457011728189377,0.005636345363412593
6574.499875971169,0.0037627636744142386,0.005994926118806845
6574.500875743384,0.003785792007361652,0.0063536365970372904
6574.5018755156,0.00381460631195069,0.006709465917944719
6574.502875287814,0.003848967168046879,0.007059502745067416
6574.50387506003,0.0038885802116470267,0.007400987174072617
6574.504874832245,0.003933100548255161,0.007731361748877719
6574.505874604461,0.003982136824257648,0.008048320154526981
6574.506874376676,0.004035254881703556,0.008349851922921427
6574.507874148891,0.004091981022500176,0.008634281399499842
6574.508873921106,0.004151805018065163,0.008900299325814497
6574.509873693321,0.004214183075987318,0.009146985662301963
6574.510873465537,0.004278540991538718,0.009373822575715125
6574.511873237752,0.004344277674439307,0.009580696741856985
6574.512873009968,0.004410769172986267,0.009767890325768828
6574.513872782182,0.004477373248027352,0.009936060364704501
6574.514872554398,0.004543434507619818,0.010086206849099532
6574.515872326613,0.004608290113121087,0.010219630425704384
6574.516872098829,0.004671276093376154,0.010337881128924004
6574.517871871044,0.00473173432090021,0.010442699790379834
6574.5188716432585,0.004789020184012193,0.01053595383769063
6574.519871415474,0.0048425109263056255,0.010619569203333899
6574.520871187689,0.004891614532534125,0.010695460145441153
6574.521870959905,0.00493577892964688,0.010765458960765324
6574.52287073212,0.004974501148458953,0.01083124775317808
6574.523870504335,0.0050073359757601115,0.010894294487491034
6574.52487027655,0.005033903564545834,0.010955795460391956
6574.525870048766,0.0050538955009709775,0.011016626089443655
6574.526869820981,0.005067078951073109,0.011077301609966962
6574.527869593197,0.0050732986998116136,0.011137948911852852
6574.528869365412,0.005072477112145989,0.011198290368019845
6574.5298691376265,0.005064612241692359,0.011257640134864582
6574.530868909842,0.005049774432681937,0.011314913055875881
6574.531868682057,0.005028101777983324,0.011368645942590815
6574.532868454273,0.004999794730447206,0.01141703060418975
6574.533868226488,0.004965110078472638,0.011457957550522332
6574.534867998703,0.0049243544602891685,0.011489068856668996
6574.535867770918,0.004877877628228376,0.011507818350002953
6574.536867543134,0.0048260657257873756,0.011511537173510536
6574.537867315349,0.004769334820550616,0.011497502918360636
6574.5388670875645,0.004708124830738896,0.0114630107862693
6574.539866859779,0.0046428938698730125,0.011405445455431764
6574.5408666319945,0.00457411299161246,0.011322352389960188
6574.54186640421,0.004502261337613798,0.011211507310033871
6574.542866176425,0.00442782170847182,0.011070982540778507
6574.543865948641,0.0043512765593972545,0.010899209019681567
6574.544865720856,0.004273104395223573,0.01069503283167191
6574.545865493071,0.004193776535444759,0.010457765238779277
6574.546865265286,0.004113754242611352,0.010187225267723931
6574.547865037502,0.004033486243898636,0.009883773977798405
6574.548864809717,0.003953406711434753,0.009548339562567206
6574.5498645819325,0.0038739337908064164,0.009182432538481495
6574.550864354147,0.0037954687748506955,0.008788150501151507
6574.5518641263625,0.0037183960069694546,0.00836817221266706
6574.552863898578,0.003643083551418756,0.007925741008695218
6574.553863670793,0.0035698845787077763,0.0074646376640917205
6574.554863443009,0.0034991392959767,0.00698914301120587
6574.555863215224,0.003431177132549574,0.006503990853142399
6574.556862987439,0.0033663187991942044,0.006014312059227717
6574.557862759654,0.0033048778065902853,0.005525571073960712
6574.55886253187,0.0032471610711662193,0.0050434962856543055
6574.559862304085,0.0031934683445045383,0.004574005726407444
6574.5608620763005,0.0031440903556853817,0.004123129452642568
6574.561861848515,0.0030993057327021573,0.0036969297847442477
6574.5628616207305,0.0030593769266060835,0.0033014204489926068
6574.563861392946,0.003024545448511779,0.0029424855890473212
6574.564861165161,0.002995026734869663,0.0026257995740163534
6574.565860937377,0.0029710049231934936,0.0023567484917290374
6574.566860709592,0.0029526277982075215,0.00214035416238699
6574.567860481807,0.0029400021735521134,0.0019812014453721534
6574.568860254022,0.0029331899936569403,0.0018833695538497627
6574.569860026238,0.0029322054528863415,0.0018503680437969498
6574.570859798453,0.0029370134154744387,0.0018850781137704352
6574.5718595706685,0.002947529371198364,0.0019896998554488417
6574.572859342883,0.0029636210887045555,0.0021657061369187566
6574.5738591150985,0.0029851120480179016,0.002413803854815533
6574.574858887314,0.0030117866465992245,0.002733903321668662
6574.575858659529,0.003043397069670294,0.00312509654606078
6574.576858431745,0.0030796715963562005,0.003585645122559867
6574.57785820396,0.003120323987408521,0.004112978386205005
6574.578857976175,0.00316506347742138,0.004703702405603883
6574.57985774839,0.0032136047986961263,0.005353620286030083
6574.580857520606,0.003265677635510758,0.006057764123739522
6574.581857292821,0.0033210349662726674,0.006810438788288827
6574.5828570650365,0.003379459865884799,0.007605277504213261
6574.583856837251,0.003440770453305906,0.008435308961397272
6574.584856609466,0.0035048227494916865,0.00929303542911603
6574.585856381682,0.003571511282654031,0.010170521107906639
6574.586856153897,0.003640767388893672,0.011059489722482442
6574.587855926113,0.003712555326395384,0.011951430112558246
6574.588855698327,0.0037868665192689176,0.01283770831833966
6574.589855470543,0.003863712411574982,0.013709684420073046
6574.590855242758,0.0039431164947686306,0.014558832185490955
6574.591855014974,0.004025106065612412,0.015376859365968658
6574.592854787189,0.004109704202844722,0.01615582626370172
6574.5938545594045,0.004196922350999577,0.01688826007306431
6574.594854331619,0.004286753787896056,0.017567262591490343
6574.595854103834,0.004379168135954038,0.018186609173969987
6574.59685387605,0.004474106956090926,0.018740837096351978
6574.597853648265,0.004571480331206166,0.019225321600103373
6574.598853420481,0.0046711642129123685,0.019636337761301813
6574.599853192695,0.004772998216497513,0.019971106160784565
6574.600852964911,0.004876783566415269,0.020227820520043613
6574.601852737126,0.004982281021546418,0.020405656255816154
6574.602852509342,0.005089208762910369,0.02050476009431614
6574.603852281557,0.005197240310315645,0.020526221962532756
6574.604852053772,0.005306002530060829,0.020472030959871095
6574.605851825987,0.005415073765090672,0.020345017296129576
6574.606851598202,0.00552398213268819,0.020148781910504225
6574.607851370418,0.00563220410878057,0.019887615347421738
6574.608851142633,0.0057391636125484185,0.01956640751795261
6574.609850914849,0.005844231870490341,0.01919055022991047
6574.610850687063,0.005946728354210862,0.018765834744229316
6574.611850459279,0.006045923065108744,0.018298346965220483
6574.612850231494,0.0061410404069324916,0.017794363038077368
6574.61385000371,0.00623126484629593,0.01726024803261703
6574.614849775925,0.0063157484993899135,0.016702360062281683
6574.61584954814,0.006393620711329842,0.016126961683086395
6574.616849320355,0.006463999633007452,0.015540139822452184
6574.61784909257,0.00652600572881494,0.014947734913513254
6574.618848864786,0.0065787770273861325,0.014355279443901792
6574.619848637001,0.006621485766663554,0.013767945798246611
6574.620848409217,0.006653355946685621,0.0131905030774205
6574.621848181431,0.006673681236882477,0.012627282504025164
6574.622847953647,0.006681842681600035,0.012082151048162635
6574.623847725862,0.006677325663064253,0.011558492990474413
6574.6248474980775,0.0066597355822584515,0.011059199237541733
6574.625847270293,0.006628811724866086,0.010586664270242784
6574.626847042508,0.006584438843802266,0.010142790575702191
6574.627846814723,0.006526656118432747,0.00972900023338039
6574.628846586938,0.00645566328230375,0.00934625301132584
6574.629846359154,0.006371823798964252,0.008995069986142759
6574.630846131369,0.006275665025636926,0.008675561455895542
6574.631845903585,0.006167875366102098,0.008387457841013007
6574.632845675799,0.006049298478948808,0.008130142385673285
6574.633845448015,0.005920924668415108,0.007902684767967502
6574.63484522023,0.0057838796328879595,0.0077038751293923916
6574.6358449924455,0.005639410764773934,0.007532258414639299
6574.636844764661,0.0054888711878992025,0.007386169155697125
6574.637844536876,0.00533370170862646,0.007263766899821215
6574.638844309091,0.005175410851240833,0.0071630723989791365
6574.639844081306,0.005015553147286642,0.007082004509955327
6574.640843853522,0.0048557058935526755,0.0070184175645340964
6574.641843625737,0.00469744472862053,0.006970138813629427
6574.642843397953,0.004542318561641916,0.006935005463890913
6574.643843170167,0.004391824513405872,0.006910900819686945
6574.644842942383,0.004247383549364991,0.006895789106050056
6574.645842714598,0.004110317442406438,0.006887748660721599
6574.6468424868135,0.003981827652980139,0.006885003306042947
6574.647842259029,0.0038629766511203913,0.006885951765984752
6574.648842031244,0.0037546721025960347,0.006889194921086472
6574.649841803459,0.0036576542111653996,0.006893560534956287
6574.650841575674,0.0035724863988297476,0.006898124956662771
6574.65184134789,0.0034995494507917848,0.006902231285946715
6574.652841120105,0.0034390392357675926,0.006905503559931592
6574.65384089232,0.0033909680875143563,0.006907856586819405
6574.654840664535,0.0033551698673694786,0.0069095010463034985
6574.655840436751,0.0033313086209801413,0.006910943427622591
6574.656840208966,0.0033188906116643603,0.006912980385853034
6574.6578399811815,0.003317279374855606,0.006916687236336258
6574.658839753397,0.003325713307818289,0.006923400543194992
6574.659839525612,0.0033433251966141658,0.006934694988839971
6574.660839297827,0.0033691629989191932,0.00695235485852742
6574.661839070042,0.003402211172711296,0.0069783405311572115
6574.662838842258,0.003441411894714603,0.007014750380395386
6574.663838614473,0.0034856856330941393,0.007063778508226584
6574.664838386688,0.0035339506629153404,0.0071276687908291255
6574.665838158903,0.0035851411921668883,0.007208665845019758
6574.666837931119,0.003638223816198265,0.007308963731165685
6574.667837703334,0.0036922120909863997,0.007430653453938618
6574.6688374755495,0.003746179136923163,0.007575670545959911
6574.669837247764,0.0037992683311669074,0.00774574419231664
6574.670837019979,0.0038507022735103638,0.00794234946537803
