Time,Filtered_ECG
6513.059254207339,0.00016868164668732013
6513.060253979262,0.00017644394687316628
6513.061253751184,0.00018414154986430326
6513.062253523107,0.0001917714096488624
6513.063253295029,0.00019933046282043397
6513.064253066952,0.00020681562927887744
6513.065252838876,0.00021422381294111846
6513.066252610798,0.00022155190246146475
6513.067252382721,0.00022879677196088207
6513.068252154643,0.0002359552817645991
6513.069251926566,0.00024302427914736126
6513.070251698489,0.00025000059908562844
6513.071251470412,0.00025688106501600206
6513.072251242335,0.0002636624895991696
6513.073251014257,0.0002703416754886654
6513.07425078618,0.000276915416103756
6513.075250558102,0.00028338049640577067
6513.076250330026,0.0002897336936772093
6513.077250101948,0.0002959717783029821
6513.078249873871,0.0003020915145531638
6513.079249645793,0.00030808966136669134
6513.080249417716,0.00031396297313549275
6513.08124918964,0.0003197082004886072
6513.082248961562,0.000325322091075932
6513.083248733485,0.0003308013903513036
6513.084248505407,0.0003361428423546834
6513.08524827733,0.00034134319049327765
6513.086248049253,0.00034639917832147895
6513.087247821176,0.00035130755031957347
6513.0882475930985,0.0003560650526712204
6513.089247365021,0.00036066843403977414
6513.090247136944,0.0003651144463435933
6513.091246908867,0.00036939984553055434
6513.09224668079,0.000373521392352063
6513.093246452712,0.0003774758531369117
6513.094246224635,0.00038126000056537215
6513.095245996557,0.00038487061444393106
6513.09624576848,0.00038830448248107805
6513.097245540404,0.0003915584010645343
6513.098245312326,0.0003946291760402771
6513.099245084249,0.00039751362349367076
6513.100244856171,0.0004002085705329757
6513.101244628094,0.0004027108560754839
6513.102244400017,0.0004050173316365191
6513.10324417194,0.0004071248621215439
6513.104243943863,0.00040903032662161496
6513.105243715785,0.00041073061921242064
6513.106243487708,0.0004122226497571232
6513.107243259631,0.000413503344713231
6513.108243031554,0.00041456964794374835
6513.109242803476,0.00041541852153289806
6513.110242575399,0.00041604694660676725
6513.111242347321,0.0004164519241592785
6513.112242119244,0.0004166304758839253
6513.113241891168,0.0004165796450117333
6513.11424166309,0.00041629649715590827
6513.115241435013,0.00041577812116361376
6513.116241206935,0.00041502162997529134
6513.117240978858,0.0004140241614918985
6513.118240750781,0.0004127828794504118
6513.119240522704,0.00041129497430792577
6513.1202402946265,0.000409557664134671
6513.121240066549,0.0004075681955162765
6513.122239838472,0.0004053238444656037
6513.123239610395,0.0004028219173444771
6513.124239382318,0.0004000597517956324
6513.12523915424,0.00039703471768519415
6513.126238926163,0.00039374421805598984
6513.127238698085,0.00039018569009200804
6513.128238470008,0.0003863566060943188
6513.129238241932,0.0003822544744687934
6513.130238013854,0.00037787684072597617
6513.131237785777,0.00037322128849347945
6513.132237557699,0.0003682854405412786
6513.133237329622,0.0003630669598202747
6513.134237101545,0.00035756355051446125
6513.135236873468,0.00035177295910698305
6513.13623664539,0.00034569297546030724
6513.137236417313,0.0003393214339106555
6513.138236189236,0.0003326562143767758
6513.139235961159,0.00032569524348307683
6513.140235733082,0.0003184364956971042
6513.141235505004,0.00031087799448129987
6513.142235276927,0.0003030178134589575
6513.143235048849,0.00029485407759425664
6513.144234820773,0.00028638496438624094
6513.145234592696,0.0002776087050766012
6513.146234364618,0.00026852358587112945
6513.147234136541,0.00025912794917472585
6513.148233908463,0.00024942019483985257
6513.149233680386,0.00023939878142833758
6513.150233452309,0.00022906222748642974
6513.151233224232,0.00021840911283299853
6513.152232996154,0.00020743807986075768
6513.153232768077,0.00019614783485037178
6513.15423254,0.00018453714929727712
6513.155232311923,0.00017260486125101417
6513.156232083846,0.0001603498766668315
6513.157231855768,0.0001477711707692878
6513.158231627691,0.00013486778942755763
6513.159231399613,0.00012163885054214419
6513.160231171537,0.0001080835454427213
6513.16123094346,9.420114029686016e-05
6513.162230715382,7.999097752943619e-05
6513.163230487305,6.545247725254743e-05
6513.164230259227,5.0585138705799475e-05
6513.16523003115,3.538854170681629e-05
6513.166229803073,1.986234811181676e-05
6513.167229574996,4.006303286058824e-06
6513.168229346918,-1.2179762416096407e-05
6513.169229118841,-2.8695932161797833e-05
6513.170228890764,-4.554220114133584e-05
6513.171228662687,-6.271847506116947e-05
6513.17222843461,-8.022456862875974e-05
6513.173228206532,-9.806020402965409e-05
6513.174227978455,-0.00011622500939730781
6513.175227750377,-0.00013471851727617608
6513.176227522301,-0.00015354016307866298
6513.177227294224,-0.00017268928353657005
6513.178227066146,-0.00019216511514774144
6513.179226838069,-0.00021196679261865217
6513.180226609991,-0.00023209334730372877
6513.181226381914,-0.0002525437056422317
6513.182226153837,-0.00027331668759357204
6513.18322592576,-0.00029441100507198164
6513.184225697682,-0.000315825260381501
6513.185225469605,-0.00033755794465229345
6513.186225241528,-0.0003596074362793367
6513.187225013451,-0.0003819719993645944
6513.188224785374,-0.0004046497821638237
6513.189224557296,-0.0004276388155392451
6513.190224329219,-0.0004509370114193711
6513.191224101141,-0.0004745421612673699
6513.192223873065,-0.0004984519345594184
6513.193223644988,-0.0005226638772745741
6513.19422341691,-0.0005471754103977627
6513.195223188833,-0.000571983828437531
6513.196222960755,-0.0005970862979602686
6513.197222732679,-0.0006224798561426443
6513.198222504601,-0.0006481614093440704
6513.199222276524,-0.0006741277317010784
6513.200222048446,-0.0007003754637455749
6513.201221820369,-0.0007269011110490335
6513.202221592292,-0.0007537010428947617
6513.203221364215,-0.0007807714909804555
6513.204221136138,-0.000808108548153338
6513.20522090806,-0.0008357081671802551
6513.206220679983,-0.0008635661595551926
6513.207220451905,-0.0008916781943467744
6513.208220223829,-0.0009200397970883946
6513.209219995752,-0.0009486463487137256
6513.210219767674,-0.0009774930845404155
6513.211219539597,-0.0010065750933048532
6513.212219311519,-0.0010358873162509396
6513.213219083442,-0.0010654245462758572
6513.214218855365,-0.0010951814271358774
6513.215218627288,-0.0011251524527152875
6513.21621839921,-0.001155331966361538
6513.217218171133,-0.0011857141602897403
6513.218217943056,-0.001216293075059671
6513.219217714979,-0.0012470625991284827
6513.220217486902,-0.001278016468482372
6513.221217258824,-0.0013091482663505282
6513.222217030747,-0.001340451423004753
6513.223216802669,-0.0013719192156482025
6513.224216574593,-0.00140354476839677
6513.225216346516,-0.0014353210523566605
6513.226216118438,-0.0014672408858017044
6513.227215890361,-0.0014992969344539268
6513.228215662283,-0.0015314817118707864
6513.229215434207,-0.0015637875799423724
6513.230215206129,-0.0015962067495016896
6513.231214978052,-0.001628731281051007
6513.232214749974,-0.0016613530856070646
6513.233214521897,-0.0016940639256677423
6513.23421429382,-0.0017268554163025482
6513.235214065743,-0.0017597190263690153
6513.236213837666,-0.001792646079856771
6513.237213609588,-0.0018256277573607215
6513.238213381511,-0.001858655097684464
6513.239213153433,-0.0018917189995747553
6513.240212925357,-0.0019248102235876014
6513.24121269728,-0.001957919394086337
6513.242212469202,-0.001991037001371869
6513.243212241125,-0.0020241534039451142
6513.244212013047,-0.00205725883090155
6513.245211784971,-0.002090343384457686
6513.246211556893,-0.002123397042609172
6513.247211328816,-0.002156409661920159
6513.248211100738,-0.00218937098044342
6513.249210872661,-0.0022222706207706295
6513.250210644584,-0.002255098093212111
6513.251210416507,-0.002287842799105282
6513.25221018843,-0.002320494034251
6513.253209960352,-0.0023530409924769724
6513.254209732275,-0.002385472769327388
6513.255209504197,-0.002417778365877906
6513.256209276121,-0.0024499466926751036
6513.257209048044,-0.0024819665737994137
6513.258208819966,-0.002513826751050535
6513.259208591889,-0.002545515888254235
6513.260208363811,-0.0025770225756894098
6513.261208135735,-0.002608335334634228
6513.262207907657,-0.002639442622030122
6513.26320767958,-0.0026703328352623507
6513.264207451502,-0.0027009943170557874
6513.265207223425,-0.002731415360484492
6513.266206995348,-0.002761584214093531
6513.267206767271,-0.002791489087131404
6513.268206539194,-0.0028211181548913325
6513.269206311116,-0.002850459564159567
6513.270206083039,-0.0028795014387687813
6513.271205854961,-0.0029082318852545253
6513.272205626885,-0.0029366389986125647
6513.273205398808,-0.0029647108681548615
6513.27420517073,-0.0029924355834617736
6513.275204942653,-0.0030198012404279036
6513.276204714575,-0.0030467959473988696
6513.277204486499,-0.003073407831396073
6513.278204258421,-0.003099625044426379
6513.279204030344,-0.0031254357698734287
6513.280203802266,-0.0031508282289671495
6513.281203574189,-0.0031757906873278677
6513.2822033461125,-0.0032003114615812935
6513.283203118035,-0.0032243789260405268
6513.284202889958,-0.003247981519451112
6513.28520266188,-0.003271107751795081
6513.286202433803,-0.0032937462111498356
6513.287202205725,-0.0033158855705976366
6513.288201977649,-0.0033375145951813866
6513.289201749572,-0.0033586221489022927
6513.290201521494,-0.0033791972017548754
6513.291201293417,-0.0033992288367946447
6513.292201065339,-0.0034187062572335783
6513.293200837263,-0.0034376187935583626
6513.294200609185,-0.0034559559106661693
6513.295200381108,-0.0034737072150125533
6513.29620015303,-0.003490862461765902
6513.297199924953,-0.0035074115619627387
6513.2981996968765,-0.003523344589658068
6513.299199468799,-0.0035386517890648264
6513.300199240722,-0.0035533235816764016
6513.301199012644,-0.0035673505733660456
6513.302198784567,-0.003580723561456873
6513.303198556489,-0.003593433541756027
6513.304198328413,-0.0036054717155464895
6513.305198100336,-0.0036168294965299246
6513.306197872258,-0.003627498517713862
6513.307197644181,-0.0036374706382363954
6513.308197416103,-0.003646737950121438
6513.309197188027,-0.0036552927849574177
6513.310196959949,-0.0036631277204921247
6513.311196731872,-0.0036702355871362463
6513.312196503794,-0.0036766094743679893
6513.313196275717,-0.0036822427370309797
6513.3141960476405,-0.003687129001517476
6513.315195819563,-0.003691262171828692
6513.316195591486,-0.0036946364355038724
6513.317195363408,-0.0036972462694095415
6513.318195135331,-0.0036990864453801332
6513.319194907253,-0.0037001520357009834
6513.320194679177,-0.0037004384184244287
6513.3211944511,-0.0036999412825095526
6513.322194223022,-0.003698656632775891
6513.323193994945,-0.003696580794661273
6513.324193766867,-0.0036937104187738275
6513.325193538791,-0.003690042485228097
6513.326193310713,-0.0036855743077551712
6513.327193082636,-0.0036803035375767745
6513.328192854558,-0.003674228167033362
6513.329192626481,-0.003667346532956426
6513.3301923984045,-0.003659657319775454
6513.331192170327,-0.003651159562350263
6513.33219194225,-0.0036418526485197584
6513.333191714172,-0.003631736321358537
6513.334191486095,-0.003620810681133127
6513.335191258018,-0.0036090761869500896
6513.336191029941,-0.0035965336580886316
6513.337190801864,-0.0035831842750108154
6513.338190573786,-0.003569029580042918
6513.339190345709,-0.0035540714777219516
6513.340190117631,-0.0035383122348018638
6513.341189889555,-0.003521754479914442
6513.342189661477,-0.003504401202880517
6513.3431894334,-0.0034862557536676332
6513.344189205322,-0.0034673218409909967
6513.345188977245,-0.003447603530555135
6513.3461887491685,-0.0034271052429343603
6513.347188521091,-0.003405831751090737
6513.348188293014,-0.003383788177528882
6513.349188064936,-0.0033609799910875207
6513.350187836859,-0.003337413003368317
6513.351187608781,-0.0033130933648031244
6513.352187380705,-0.0032880275603614163
6513.353187152628,-0.0032622224049003484
6513.35418692455,-0.003235685038160618
6513.355186696473,-0.0032084229194120654
6513.356186468395,-0.0031804438217538046
6513.357186240319,-0.003151755826074551
6513.358186012241,-0.003122367314679784
6513.359185784164,-0.0030922869645934386
6513.360185556086,-0.003061523740542956
6513.361185328009,-0.0030300868876377623
6513.3621850999325,-0.00299798592375252
6513.363184871855,-0.0029652306316278413
6513.364184643778,-0.002931831050702459
6513.3651844157,-0.0028977974686921816
6513.366184187623,-0.002863140412932167
6513.367183959546,-0.0028278706415001604
6513.368183731469,-0.0027919991341392976
6513.369183503392,-0.0027555370829998624
6513.370183275314,-0.0027184958832200583
6513.371183047237,-0.0026808871233664298
6513.372182819159,-0.002642722575755013
6513.373182591083,-0.002604014186674644
6513.374182363005,-0.002564774066534063
6513.375182134928,-0.0025250144799544884
6513.37618190685,-0.002484747835829261
6513.377181678773,-0.002443986677371923
6513.3781814506965,-0.002402743672173742
6513.379181222619,-0.0023610316022912503
6513.380180994542,-0.0023188633543837632
6513.381180766464,-0.002276251909920135
6513.382180538387,-0.0022332103354731404
6513.38318031031,-0.0021897517731189462
6513.384180082233,-0.0021458894309581023
6513.385179854156,-0.002101636573773436
6513.386179626078,-0.0020570065138391163
6513.387179398001,-0.002012012601894044
6513.388179169923,-0.0019666682182915302
6513.389178941847,-0.0019209867643360376
6513.390178713769,-0.001874981653816502
6513.391178485692,-0.001828666304744519
6513.392178257614,-0.001782054131304428
6513.393178029537,-0.001735158536021129
6513.3941778014605,-0.001687992902150311
6513.395177573383,-0.0016405705862946934
6513.396177345306,-0.0015929049112489101
6513.397177117228,-0.00154500915907477
6513.398176889151,-0.001496896564407829
6513.399176661074,-0.0014485803079954999
6513.400176432997,-0.0014000735104662846
6513.40117620492,-0.0013513892263291485
6513.402175976842,-0.0013025404382015348
6513.403175748765,-0.0012535400512640761
6513.404175520687,-0.0012044008879396437
6513.405175292611,-0.0011551356827940347
6513.406175064533,-0.0011057570776553025
6513.407174836456,-0.001056277616948522
6513.408174608378,-0.001006709743242618
6513.409174380301,-0.0009570657930057925
6513.4101741522245,-0.0009073579925660179
6513.411173924147,-0.0008575984542730214
6513.41217369607,-0.0008077991728581505
6513.413173467992,-0.0007579720219884697
6513.414173239915,-0.000708128751011398
6513.415173011838,-0.0006582809818861516
6513.416172783761,-0.0006084402062982202
6513.417172555684,-0.0005586177829530618
6513.418172327606,-0.0005088249350451798
6513.419172099529,-0.00045907274789871446
6513.420171871452,-0.0004093721667756624
6513.421171643375,-0.00035973399484781464
6513.422171415297,-0.00031016889132848567
6513.42317118722,-0.00026068736976009706
6513.424170959142,-0.00021129979645368162
6513.425170731065,-0.00016201638907639932
6513.4261705029885,-0.00011284721538319657
6513.427170274911,-6.380219208880285e-05
6513.428170046834,-1.4891083876333778e-05
6513.429169818756,3.387649746115807e-05
6513.430169590679,8.24910937497884e-05
6513.431169362602,0.00013094340103817544
6513.432169134525,0.00017922427007856194
6513.433168906448,0.0002273247066892784
6513.43416867837,0.00027523587200209713
6513.435168450293,0.00032294908259802163
6513.436168222215,0.0003704558105350502
6513.437167994139,0.00041774768327144626
6513.438167766061,0.00046481648348804474
6513.439167537984,0.0005116541488131288
6513.440167309906,0.0005582527714534197
6513.441167081829,0.0006046045977347357
6513.4421668537525,0.0006507020275558847
6513.443166625675,0.0006965376137593505
6513.444166397598,0.0007421040614223308
6513.44516616952,0.0007873942270716702
6513.446165941443,0.0008324011178262265
6513.447165713366,0.0008771178904701894
6513.448165485289,0.0009215378504608366
6513.449165257212,0.0009656544508741401
6513.450165029134,0.0010094612912915264
6513.451164801057,0.0010529521166309644
6513.45216457298,0.0010961208159254207
6513.453164344903,0.001138961421051578
6513.454164116825,0.0011814681054115868
6513.455163888748,0.0012236351825704946
6513.45616366067,0.0012654571048518913
6513.457163432593,0.0013069284618942253
6513.4581632045165,0.0013480439791701685
6513.459162976439,0.0013887985164713458
6513.460162748362,0.0014291870663606934
6513.461162520284,0.0014692047525946604
6513.462162292207,0.0015088468285174188
6513.46316206413,0.0015481086754291743
6513.464161836053,0.001586985800930627
6513.465161607976,0.0016254738372455432
6513.466161379898,0.0016635685395233594
6513.467161151821,0.0017012657841236688
6513.468160923744,0.0017385615668843862
6513.469160695667,0.0017754520013753185
6513.470160467589,0.001811933317138774
6513.471160239512,0.0018480018579187369
6513.472160011434,0.0018836540798799915
6513.473159783357,0.0019188865498184346
6513.4741595552805,0.0019536959433636854
6513.475159327203,0.0019880790431750094
6513.476159099126,0.0020220327371315095
6513.477158871048,0.00205555401651752
6513.478158642971,0.002088639974204135
6513.479158414894,0.0021212878028278245
6513.480158186817,0.0021534947929671014
6513.48115795874,0.002185258331318267
6513.482157730662,0.0022165758988713057
6513.483157502585,0.002247445069087066
6513.484157274508,0.0022778635060769106
6513.485157046431,0.0023078289627860658
6513.486156818353,0.0023373392791819357
6513.487156590276,0.0023663923804486484
6513.488156362198,0.0023949862751891197
6513.489156134121,0.0024231190536359182
6513.4901559060445,0.0024507888858721727
6513.491155677967,0.002477994020063737
6513.49215544989,0.002504732780703756
6513.493155221812,0.002531003566870719
6513.494154993735,0.0025568048505010257
6513.495154765658,0.0025821351746770052
6513.496154537581,0.002606993151931276
6513.497154309504,0.00263137746256825
6513.498154081426,0.0026552868530035382
6513.499153853349,0.002678720134121964
6513.500153625272,0.0027016761796548575
6513.501153397195,0.0027241539245772867
6513.502153169117,0.002746152363525844
6513.50315294104,0.0027676705492376175
6513.504152712962,0.0027887075910109577
6513.505152484886,0.0028092626531886593
6513.5061522568085,0.00282933495366419
6513.507152028731,0.0028489237624116327
6513.508151800654,0.002868028400040044
6513.509151572576,0.0028866482363729563
6513.510151344499,0.0029047826890538
6513.511151116422,0.002922431222178068
6513.512150888345,0.00293959334495308
6513.513150660268,0.0029562686103862387
6513.51415043219,0.002972456614002707
6513.515150204113,0.0029881569925934745
6513.516149976036,0.0030033694229948276
6513.517149747959,0.0030180936209002946
6513.518149519881,0.0030323293397062478
6513.519149291804,0.003046076369392421
6513.520149063726,0.0030593345354387015
6513.52114883565,0.003072103697779618
6513.5221486075725,0.003084383749798009
6513.523148379495,0.003096174617359334
6513.524148151418,0.0031074762578880877
6513.52514792334,0.0031182886594876926
6513.526147695263,0.0031286118401051594
6513.527147467186,0.0031384458467417047
6513.528147239109,0.003147790754710416
6513.529147011032,0.0031566466669419534
6513.530146782954,0.0031650137133391854
6513.531146554877,0.0031728920501815534
6513.5321463268,0.003180281859579896
6513.533146098723,0.0031871833489823627
6513.534145870645,0.0031935967507319774
6513.535145642568,0.0031995223216763407
6513.53614541449,0.0032049603428298944
6513.537145186414,0.0032099111190891055
6513.5381449583365,0.0032143749790009097
6513.539144730259,0.003218352274584719
6513.540144502182,0.003221843381208287
6513.541144274104,0.0032248486975177274
6513.542144046027,0.00322736864542199
6513.54314381795,0.003229403670132092
6513.544143589873,0.003230954240255389
6513.545143361795,0.003232020847945195
6513.546143133718,0.0032326040091060467
6513.547142905641,0.00323270426365489
6513.548142677564,0.003232322175838458
6513.549142449487,0.003231458334607035
6513.550142221409,0.0032301133540447438
6513.551141993332,0.003228287873856407
6513.552141765254,0.0032259825599109436
6513.553141537178,0.0032231981048411423
6513.5541413091005,0.00321993522869956
6513.555141081023,0.0032161946796701326
6513.556140852946,0.0032119772348349436
6513.557140624868,0.003207283700995432
6513.558140396792,0.0032021149155471683
6513.559140168714,0.003196471747407175
6513.560139940637,0.0031903550979926623
6513.561139712559,0.0031837659022499465
6513.562139484482,0.003176705129732234
6513.563139256405,0.0031691737857248953
6513.564139028328,0.003161172912416797
6513.565138800251,0.0031527035901162347
6513.566138572173,0.0031437669385100033
6513.567138344096,0.0031343641179641503
6513.568138116018,0.0031244963308649835
6513.569137887942,0.0031141648229989264
6513.5701376598645,0.003103370884969824
6513.571137431787,0.0030921158536523193
6513.57213720371,0.0030804011136798953
6513.573136975632,0.003068228098966168
6513.574136747555,0.0030555982942579683
6513.575136519478,0.0030425132367186813
6513.576136291401,0.0030289745175402184
6513.577136063323,0.003014983783581915
6513.578135835246,0.0030005427390345178
6513.579135607169,0.0029856531471073554
6513.580135379092,0.002970316831736673
6513.581135151015,0.0029545356793130788
6513.582134922937,0.002938311640425976
6513.58313469486,0.002921646731622811
6513.584134466782,0.002904543037180929
6513.585134238706,0.002887002710889794
6513.5861340106285,0.0028690279778412647
6513.587133782551,0.0028506211362255554
6513.588133554474,0.0028317845591304854
6513.589133326396,0.0028125206963415593
6513.59013309832,0.002792832076140403
6513.591132870242,0.0027727213070990494
6513.592132642165,0.002752191079867546
6513.593132414087,0.0027312441689523095
6513.59413218601,0.00270988343448262
6513.595131957933,0.002688111823962584
6513.596131729856,0.0026659323740058434
6513.597131501779,0.0026433482120502574
6513.598131273701,0.0026203625580496852
6513.599131045624,0.0025969787261399453
6513.600130817546,0.002573200126275942
6513.60113058947,0.0025490302658368784
6513.6021303613925,0.002524472751196404
6513.603130133315,0.002499531289254467
6513.604129905238,0.002474209688927599
6513.60512967716,0.002448511862594301
6513.606129449084,0.0024224418274921664
6513.607129221006,0.002396003707063362
6513.608128992929,0.0023692017322450793
6513.609128764851,0.002342040242701594
6513.610128536774,0.002314523687994613
6513.611128308697,0.002286656628688654
6513.61212808062,0.002258443737388305
6513.613127852543,0.0022298897997042834
6513.614127624465,0.0022009997151453257
6513.615127396388,0.0021717784979330703
6513.61612716831,0.0021422312777372153
6513.617126940234,0.002112363300328419
6513.6181267121565,0.0020821799281465934
6513.619126484079,0.002051686640782438
6513.620126256002,0.002020889035370268
6513.621126027924,0.0019897928268903394
6513.622125799848,0.001958403848379009
6513.62312557177,0.0019267280510451657
6513.624125343693,0.0018947715042914146
6513.625125115615,0.0018625403956385555
6513.626124887538,0.001830041030551928
6513.627124659461,0.0017972798321682548
6513.628124431384,0.0017642633409216885
6513.629124203307,0.0017309982140678625
6513.630123975229,0.0016974912251048612
6513.631123747152,0.001663749263090159
6513.632123519074,0.0016297793318527062
6513.633123290998,0.0015955885490994586
6513.6341230629205,0.001561184145415755
6513.635122834843,0.0015265734631590465
6513.636122606766,0.0014917639552456008
6513.637122378688,0.0014567631838299168
6513.638122150612,0.0014215788188767283
6513.639121922534,0.0013862186366256247
6513.640121694457,0.001350690517948498
6513.641121466379,0.0013150024466002399
6513.642121238302,0.0012791625073633416
6513.6431210102255,0.0012431788840872955
6513.644120782148,0.0012070598576239564
6513.645120554071,0.0011708138036602709
6513.646120325993,0.0011344491904500145
6513.647120097916,0.001097974576446385
6513.648119869838,0.001061398607837481
6513.649119641762,0.0010247300159868544
6513.6501194136845,0.0009879776147814503
6513.651119185607,0.0009511502978893768
6513.65211895753,0.0009142570359300491
6513.653118729452,0.000877306873559363
6513.654118501376,0.0008403089264726519
6513.655118273298,0.0008032723783282747
6513.656118045221,0.0007662064775947571
6513.657117817143,0.0007291205343244805
6513.658117589066,0.0006920239168569806
6513.6591173609895,0.0006549260484549848
6513.660117132912,0.000617836403876387
6513.661116904835,0.0005807645058854266
6513.662116676757,0.0005437199217064036
6513.66311644868,0.0005067122594233181
6513.664116220602,0.00046975116432889123
6513.665115992526,0.00043284631522647125
6513.6661157644485,0.00039600742068837967
6513.667115536371,0.0003592442152742831
6513.668115308294,0.00032256645571319747
6513.669115080216,0.00028598391705273693
6513.67011485214,0.0002495063887792109
6513.671114624062,0.00021314367091215263
6513.672114395985,0.0001769055700768256
6513.673114167907,0.0001408018955582107
6513.67411393983,0.00010484245533993134
6513.6751137117535,6.903705213152872e-05
6513.676113483676,3.339547938746498e-05
6513.677113255599,-2.072482678793124e-06
6513.678113027521,-3.7357071082275484e-05
6513.679112799444,-7.244854405227854e-05
6513.680112571366,-0.00010733718501310899
6513.68111234329,-0.00014201330655652932
6513.6821121152125,-0.00017646725440265568
6513.683111887135,-0.0002106894113460836
6513.684111659058,-0.0002446702011840489
6513.68511143098,-0.0002784000926234766
6513.686111202904,-0.0003118696031638251
6513.687110974826,-0.00034506930295269184
6513.688110746749,-0.0003779898186111938
6513.689110518671,-0.0004106218370261755
6513.690110290594,-0.00044295610910633133
6513.6911100625175,-0.00047498345349937266
6513.69210983444,-0.0005066947602674447
6513.693109606363,-0.0005380809945181247
6513.694109378285,-0.0005691331999885118
6513.695109150208,-0.0005998425025801415
6513.696108922131,-0.0006302001138426979
6513.697108694054,-0.0006601973344047394
6513.6981084659765,-0.0006898255573498735
6513.699108237899,-0.0007190762715370087
6513.700108009822,-0.000747941064863471
6513.701107781744,-0.0007764116274698972
6513.702107553668,-0.0008044797548859125
6513.70310732559,-0.0008321373511156728
6513.704107097513,-0.0008593764316624006
6513.705106869435,-0.0008861891264910832
6513.706106641358,-0.000912567682928529
6513.7071064132815,-0.0009385044685000113
6513.708106185204,-0.0009639919737017592
6513.709105957127,-0.000989022814708583
6513.710105729049,-0.001013589736015961
6513.711105500972,-0.0010376856130159427
6513.712105272894,-0.0010613034545062716
6513.713105044818,-0.0010844364051321692
6513.7141048167405,-0.00110707774776028
6513.715104588663,-0.0011292209057843223
6513.716104360586,-0.0011508594453620306
6513.717104132508,-0.0011719870775830068
6513.718103904432,-0.0011925976605671165
6513.719103676354,-0.001212685201493089
6513.720103448277,-0.0012322438585570083
6513.721103220199,-0.001251267942860432
6513.722102992122,-0.0012697519202279103
6513.7231027640455,-0.001287690412953726
6513.724102535968,-0.00130507820147771
6513.725102307891,-0.0013219102259900235
6513.726102079813,-0.0013381815879648321
6513.727101851736,-0.001353887551622832
6513.728101623659,-0.0013690235453226096
6513.729101395582,-0.001383585162880851
6513.7301011675045,-0.001397568164821432
6513.731100939427,-0.001410968479553468
6513.73210071135,-0.0014237822044784762
6513.733100483272,-0.0014360056070268812
6513.734100255196,-0.0014476351256242066
6513.735100027118,-0.0014586673705874176
6513.736099799041,-0.0014690991249519758
6513.737099570963,-0.001478927345230268
6513.738099342886,-0.0014881491621021278
6513.7390991148095,-0.0014967618810382136
6513.740098886732,-0.0015047629828570232
6513.741098658655,-0.0015121501242163265
6513.742098430577,-0.0015189211380398013
6513.7430982025,-0.0015250740338796373
6513.744097974423,-0.0015306069982158647
6513.745097746346,-0.0015355183946930894
6513.7460975182685,-0.0015398067642952477
6513.747097290191,-0.0015434708254588683
6513.748097062114,-0.0015465094741252084
6513.749096834036,-0.001548921783731491
6513.75009660596,-0.001550707005141343
6513.751096377882,-0.0015518645665144174
6513.752096149805,-0.0015523940731150825
6513.753095921727,-0.0015522953070600132
6513.75409569365,-0.0015515682270045151
6513.7550954655735,-0.001550212967767445
6513.756095237496,-0.0015482298398946698
6513.757095009419,-0.0015456193291611096
6513.758094781341,-0.0015423820960115424
6513.759094553264,-0.0015385189749404816
6513.760094325187,-0.0015340309738115661
6513.76109409711,-0.001528919273116984
6513.7620938690325,-0.001523185225177485
6513.763093640955,-0.0015168303532835299
6513.764093412878,-0.001509856350778095
6513.7650931848,-0.0015022650800816295
6513.766092956724,-0.001494058571659672
6513.767092728646,-0.0014852390229336528
6513.768092500569,-0.0014758087971354435
6513.769092272491,-0.0014657704221062518
6513.770092044414,-0.0014551265890404852
6513.7710918163375,-0.0014438801511752336
6513.77209158826,-0.0014320341224260454
6513.773091360183,-0.0014195916759696954
6513.774091132105,-0.0014065561427746651
6513.775090904028,-0.0013929310100800642
6513.776090675951,-0.001378719919823738
6513.777090447874,-0.0013639266670203074
6513.7780902197965,-0.0013485551980899036
6513.779089991719,-0.0013326096091383953
6513.780089763642,-0.0013160941441899502
6513.781089535565,-0.0012990131933728571
6513.782089307488,-0.0012813712910596377
6513.78308907941,-0.0012631731139625766
6513.784088851333,-0.0012444234791859153
6513.785088623255,-0.0012251273422360434
6513.786088395178,-0.001205289794991118
6513.7870881671015,-0.0011849160636316074
6513.788087939024,-0.0011640115065333096
6513.789087710947,-0.0011425816121244305
6513.790087482869,-0.0011206319967083272
6513.791087254792,-0.0010981684022535443
6513.792087026715,-0.001075196694152778
6513.793086798638,-0.0010517228589524256
6513.7940865705605,-0.0010277530020543874
6513.795086342483,-0.0010032933453917874
6513.796086114406,-0.0009783502250802637
6513.797085886328,-0.0009529300890464515
6513.798085658252,-0.0009270394946352314
6513.799085430174,-0.0009006851061972721
6513.800085202097,-0.0008738736926583325
6513.801084974019,-0.000846612125071721
6513.802084745942,-0.0008189073741552359
6513.8030845178655,-0.0007907665078138304
6513.804084289788,-0.0007621966886491638
6513.805084061711,-0.0007332051714571043
6513.806083833633,-0.0007037993007141439
6513.807083605556,-0.0006739865080535412
6513.808083377479,-0.00064377430973185
6513.809083149402,-0.0006131703040863123
6513.8100829213245,-0.0005821821689834219
6513.811082693247,-0.000550817659258835
6513.81208246517,-0.0005190846041487251
6513.813082237093,-0.0004869909047126497
6513.814082009016,-0.0004545445312480254
6513.815081780938,-0.00042175352069635856
6513.816081552861,-0.0003886259740414535
6513.817081324783,-0.0003551700536999213
6513.818081096706,-0.00032139398090442903
6513.8190808686295,-0.0002873060330802601
6513.820080640552,-0.00025291454121588734
6513.821080412475,-0.00021822788722837433
6513.822080184397,-0.00018325450132451355
6513.82307995632,-0.0001480028593586904
6513.824079728243,-0.00011248148018853509
6513.825079500166,-7.669892302950158e-05
6513.8260792720885,-4.06637848095873e-05
6513.827079044011,-4.38469752547537e-06
6513.828078815934,3.212967439856301e-05
6513.829078587857,6.887063674762888e-05
6513.83007835978,0.00010582946814762069
6513.831078131702,0.00014299742268972747
6513.832077903625,0.00018036573254661415
6513.833077675547,0.00021792561057896084
6513.83407744747,0.0002556682529310637
6513.8350772193935,0.00029358484161425637
6513.836076991316,0.0003316665470769657
6513.837076763239,0.00036990453076027145
6513.838076535161,0.0004082899476379002
6513.839076307084,0.0004468139487396355
6513.840076079007,0.0004854676836571581
6513.84107585093,0.0005242423030313289
6513.8420756228525,0.0005631289610198941
6513.843075394775,0.0006021188177445426
6513.844075166698,0.0006412030417162062
6513.845074938621,0.0006803728122374787
6513.846074710544,0.0007196193217810378
6513.847074482466,0.0007589337783429868
6513.848074254389,0.0007983074077700584
6513.849074026311,0.0008377314560596544
6513.850073798234,0.0008771971916317191
6513.8510735701575,0.000916695907571464
6513.85207334208,0.0009562189238419793
6513.853073114003,0.000995757589465793
6513.854072885925,0.0010353032846744767
6513.855072657848,0.001074847423025451
6513.856072429771,0.0011143814534852144
6513.857072201694,0.0011538968624783157
6513.8580719736165,0.0011933851759014747
6513.859071745539,0.0012328379611023638
6513.860071517462,0.0012722468288226443
6513.861071289385,0.0013116034351049427
6513.862071061308,0.0013508994831635352
6513.86307083323,0.001390126725218595
6513.864070605153,0.001429276964293914
6513.865070377075,0.0014683420559780537
6513.866070148999,0.0015073139101488807
6513.8670699209215,0.0015461844926614322
6513.868069692844,0.0015849458269990356
6513.869069464767,0.0016235899958876017
6513.870069236689,0.0016621091428730144
6513.871069008612,0.0017004954738615399
6513.872068780535,0.001738741258623189
6513.873068552458,0.0017768388322579654
6513.8740683243805,0.0018147805966249287
6513.875068096303,0.0018525590217340288
6513.876067868226,0.001890166647100681
6513.877067640149,0.0019275960830631045
6513.878067412072,0.001964840012062484
6513.879067183994,0.0020018911898860626
6513.880066955917,0.0020387424468733205
6513.881066727839,0.002075386689085422
6513.882066499763,0.00211181689943813
6513.8830662716855,0.0021480261387983963
6513.884066043608,0.002184007547044825
6513.885065815531,0.002219754344092145
6513.886065587453,0.0022552598308797143
6513.887065359376,0.0022905173903239374
6513.888065131299,0.002325520488234248
6513.889064903222,0.002360262674192149
6513.8900646751445,0.0023947375823925965
6513.891064447067,0.002428938932446885
6513.89206421899,0.0024628605301461014
6513.893063990913,0.00249649626818417
6513.894063762836,0.0025298401268395256
6513.895063534758,0.002562886174614486
6513.896063306681,0.002595628568831481
6513.897063078603,0.0026280615561853743
6513.898062850527,0.0026601794732512385
6513.8990626224495,0.0026919767469470806
6513.900062394372,0.0027234478949511557
6513.901062166295,0.00275458752607366
6513.902061938217,0.002785390340582736
6513.90306171014,0.0028158511304848333
6513.904061482063,0.002845964779759579
6513.905061253986,0.0028757262645493506
6513.9060610259085,0.0029051306533038283
6513.907060797831,0.002934173106879825
6513.908060569754,0.0029628488785967614
6513.909060341677,0.002991153314248196
6513.9100601136,0.003019081852069864
6513.911059885522,0.003046630022664751
6513.912059657445,0.0030737934488857597
6513.913059429367,0.0031005678456765854
6513.914059201291,0.0031269490198714465
6513.9150589732135,0.003152932869954376
6513.916058745136,0.0031785153857787946
6513.917058517059,0.0032036926482481125
6513.918058288981,0.003228460828958138
6513.919058060905,0.003252816189802073
6513.920057832827,0.0032767550825388665
6513.92105760475,0.0033002739483257294
6513.9220573766725,0.0033233693172156145
6513.923057148595,0.003346037807620524
6513.924056920518,0.0033682761257415434
6513.925056692441,0.0033900810649665483
6513.926056464364,0.0034114495052365718
6513.927056236286,0.0034323784123818585
6513.928056008209,0.003452864837428656
6513.929055780131,0.003472905915877832
6513.930055552055,0.0034924988669564295
6513.9310553239775,0.0035116409928432953
6513.9320550959,0.0035303296778699173
6513.933054867823,0.003548562387697615
6513.934054639745,0.003566336668472189
6513.935054411668,0.003583650145957145
6513.936054183591,0.0036005005246465783
6513.937053955514,0.0036168855868588187
6513.938053727436,0.003632803191811926
6513.939053499359,0.0036482512746821467
6513.940053271282,0.00366322784564644
6513.941053043205,0.0036777309889101913
6513.942052815128,0.003691758861721234
6513.94305258705,0.003705309693371272
6513.944052358973,0.0037183817841857834
6513.945052130895,0.0037309735045034766
6513.946051902819,0.003743083293646351
6513.9470516747415,0.003754709658881437
6513.948051446664,0.0037658511743752766
6513.949051218587,0.003776506480142228
6513.950050990509,0.0037866742809876423
6513.951050762433,0.0037963533454469568
6513.952050534355,0.003805542504721679
6513.953050306278,0.00381424065161316
6513.9540500782,0.003822446739454991
6513.955049850123,0.003830159781044761
6513.956049622046,0.0038373788475758535
6513.957049393969,0.00384410306756985
6513.958049165892,0.003850331625810116
6513.959048937814,0.0038560637622770937
6513.960048709737,0.0038612987710858445
6513.961048481659,0.003866035999426419
6513.962048253583,0.0038702748465076304
6513.9630480255055,0.0038740147625048508
6513.964047797428,0.003877255247512473
6513.965047569351,0.003879995850501707
6513.966047341273,0.0038822361682843707
6513.967047113197,0.0038839758444833956
6513.968046885119,0.003885214568510742
6513.969046657042,0.003885952074553467
6513.970046428964,0.0038861881405686982
6513.971046200887,0.0038859225872883377
6513.97204597281,0.003885155277234362
6513.973045744733,0.0038838861137456535
6513.974045516656,0.0038821150400173547
6513.975045288578,0.0038798420381537563
6513.976045060501,0.0038770671282357004
6513.977044832423,0.0038737903674034425
6513.978044604347,0.003870011848955828
6513.9790443762695,0.0038657317014665514
6513.980044148192,0.0038609500879182093
6513.981043920115,0.0038556672048547795
6513.982043692037,0.0038498832815531308
6513.983043463961,0.003843598579214152
6513.984043235883,0.003836813390174079
6513.985043007806,0.0038295280371366067
6513.986042779728,0.003821742872426355
6513.987042551651,0.003813458277264253
6513.988042323574,0.0038046746610653714
6513.989042095497,0.0037953924607597163
6513.99004186742,0.003785612140136452
6513.991041639342,0.003775334189212032
6513.992041411265,0.0037645591236226813
6513.993041183187,0.003753287484041706
6513.994040955111,0.003741519835622079
6513.9950407270335,0.0037292567674647933
6513.996040498956,0.0037164988921134746
6513.997040270879,0.003703246845075787
6513.998040042801,0.0036895012843722054
6513.999039814725,0.003675262890112758
6514.000039586647,0.0036605323641023843
6514.00103935857,0.003645310429475588
6514.002039130492,0.0036295978303611076
6514.003038902415,0.0036133953315773473
6514.0040386743385,0.003596703718359351
6514.005038446261,0.0035795237961181387
6514.006038218184,0.003561856390233257
6514.007037990106,0.003543702345879388
6514.008037762029,0.003525062527887851
6514.009037533951,0.00350593782064377
6514.010037305875,0.0034863291280196065
6514.0110370777975,0.003466237373345642
6514.01203684972,0.0034456634994179227
6514.013036621643,0.0034246084685440464
6514.014036393565,0.003403073262627087
6514.015036165489,0.0033810588832878493
6514.016035937411,0.003358566352025551
6514.017035709334,0.0033355967104169095
6514.018035481256,0.0033121510203534673
6514.019035253179,0.0032882303643169057
6514.020035025103,0.003263835845691958
6514.021034797025,0.0032389685891164766
6514.022034568948,0.0032136297408681194
6514.02303434087,0.003187820469287098
6514.024034112793,0.00316154196523438
6514.025033884715,0.003134795442584674
6514.026033656639,0.0031075821387534968
6514.0270334285615,0.0030799033152575797
6514.028033200484,0.0030517602583078154
6514.029032972407,0.0030231542794339227
6514.030032744329,0.00299408671613997
6514.031032516253,0.002964558932589871
6514.032032288175,0.0029345723203219576
6514.033032060098,0.0029041282989917608
6514.03403183202,0.00287322831714215
6514.035031603943,0.002841873853000041
6514.0360313758665,0.0028100664152989263
6514.037031147789,0.0027778075441265452
6514.038030919712,0.0027450988117970693
6514.039030691634,0.002711941823747258
6514.040030463557,0.0026783382194561145
6514.041030235479,0.0026442896733876536
6514.042030007403,0.0026097978959565005
6514.0430297793255,0.0025748646345161016
6514.044029551248,0.0025394916743694067
6514.045029323171,0.0025036808398019306
6514.046029095093,0.00246743399513715
6514.047028867017,0.002430753045814249
6514.048028638939,0.0023936399394882636
6514.049028410862,0.002356096667152719
6514.050028182784,0.002318125264284906
6514.051027954707,0.002279727812013957
6514.052027726631,0.0022409064383119254
6514.053027498553,0.002201663319208071
6514.054027270476,0.002162000680026558
6514.055027042398,0.0021219207966477393
6514.056026814321,0.002081425996793154
6514.057026586244,0.0020405186613342416
6514.058026358167,0.001999201225624647
6514.0590261300895,0.001957476180855816
6514.060025902012,0.0019153460754353796
6514.061025673935,0.0018728135163876376
6514.062025445857,0.001829881170775257
6514.063025217781,0.0017865517671411136
6514.064024989703,0.0017428280969690399
6514.065024761626,0.0016987130161620872
6514.066024533548,0.0016542094465367891
6514.067024305471,0.0016093203773318028
6514.0680240773945,0.0015640488667292328
6514.069023849317,0.0015183980433868874
6514.07002362124,0.001472371107979723
6514.071023393162,0.0014259713347487576
6514.072023165085,0.0013792020730558068
6514.073022937007,0.0013320667489424567
6514.074022708931,0.0012845688666917746
6514.0750224808535,0.0012367120103913029
6514.076022252776,0.0011884998454959256
6514.077022024699,0.0011399361203891921
6514.078021796621,0.0010910246679416674
6514.079021568545,0.001041769407064833
6514.080021340467,0.0009921743442590197
6514.08102111239,0.0009422435751538146
6514.082020884312,0.0008919812860393522
6514.083020656235,0.000841391755386887
6514.084020428159,0.0007904793553570276
6514.085020200081,0.0007392485532940071
6514.086019972004,0.0006877039132043565
6514.087019743926,0.0006358500972183386
6514.088019515849,0.0005836918670324887
6514.089019287772,0.0005312340853316096
6514.090019059695,0.00047848171718856895
6514.0910188316175,0.0004254398314402563
6514.09201860354,0.00037211360203806283
6514.093018375463,0.00031850830937124656
6514.094018147385,0.00026462934156153524
6514.095017919309,0.00021048219572730446
6514.096017691231,0.00015607247921564323
6514.097017463154,0.00010140591080059306
6514.098017235076,4.648832184581369e-05
6514.099017006999,-8.674342570109656e-06
6514.1000167789225,-6.407602256754483e-05
6514.101016550845,-0.0001197105424207523
6514.102016322768,-0.00017557160955581396
6514.10301609469,-0.00023165281359354204
6514.104015866613,-0.00028794762543943216
6514.105015638536,-0.0003444493964228106
6514.106015410459,-0.0004011513574874134
6514.1070151823815,-0.00045804661843572617
6514.108014954304,-0.0005151281672294935
6514.109014726227,-0.0005723888693488947
6514.110014498149,-0.0006298214672129574
6514.111014270073,-0.0006874185796638525
6514.112014041995,-0.0007451727015177797
6514.113013813918,-0.0008030762031851951
6514.11401358584,-0.0008611213303631738
6514.115013357763,-0.0009193002038027213
6514.116013129687,-0.0009776048191538597
6514.117012901609,-0.0010360270468913052
6514.118012673532,-0.0010945586323235167
6514.119012445454,-0.0011531911956878147
6514.120012217377,-0.0012119162323341506
6514.1210119893,-0.001270725112999966
6514.122011761223,-0.0013296090841784375
6514.1230115331455,-0.0013885592685822547
6514.124011305068,-0.0014475666657049568
6514.125011076991,-0.0015066221524817297
6514.126010848913,-0.0015657164840514482
6514.127010620837,-0.0016248402946216424
6514.128010392759,-0.0016839840984379597
6514.129010164682,-0.0017431382908595892
6514.130009936604,-0.0018022931495420163
6514.131009708527,-0.0018614388357283778
6514.1320094804505,-0.0019205653956506034
6514.133009252373,-0.0019796627620414257
6514.134009024296,-0.0020387207557582623
6514.135008796218,-0.0020977290875198924
6514.136008568141,-0.002156677359756774
6514.137008340064,-0.002215555068575798
6514.138008111987,-0.0022743516058401905
6514.1390078839095,-0.002333056261365191
6514.140007655832,-0.002391658225230029
6514.141007427755,-0.002450146590206624
6514.142007199678,-0.0025085103543052833
6514.143006971601,-0.002566738423437585
6514.144006743523,-0.0026248196141964697
6514.145006515446,-0.0026827426567534595
6514.146006287368,-0.0027404961978727883
6514.147006059291,-0.0027980688040421015
6514.148005831215,-0.002855448964719271
6514.149005603137,-0.002912625095694792
6514.15000537506,-0.002969585542569108
6514.151005146982,-0.00302631858434416
6514.152004918905,-0.0030828124371283633
6514.153004690828,-0.0031390552579541545
6514.154004462751,-0.003195035148707179
6514.1550042346735,-0.0032507401601661328
6514.156004006596,-0.003306158296152184
6514.157003778519,-0.0033612775177868526
6514.158003550441,-0.003416085747857154
6514.159003322365,-0.003470570875286732
6514.160003094287,-0.0035247207597116394
6514.16100286621,-0.003578523236159341
6514.162002638132,-0.0036319661198294163
6514.163002410055,-0.003685037210974324
6514.1640021819785,-0.003737724299878452
6514.165001953901,-0.0037900151719335294
6514.166001725824,-0.0038418976128083227
6514.167001497746,-0.003893359413710363
6514.168001269669,-0.003944388376737281
6514.169001041592,-0.003994972320315161
6514.170000813515,-0.004045099084721158
6514.1710005854375,-0.004094756537687468
6514.17200035736,-0.004143932580083597
6514.173000129283,-0.004192615151673745
6514.173999901206,-0.004240792236946028
6514.174999673129,-0.004288451871010117
6514.175999445051,-0.004335582145559793
6514.176999216974,-0.004382171214896807
6514.177998988896,-0.0044282073020123205
6514.178998760819,-0.004473678704722091
6514.179998532743,-0.004518573801851441
6514.180998304665,-0.0045628810594659265
6514.181998076588,-0.004606589037143427
6514.18299784851,-0.004649686394283271
6514.183997620433,-0.004692161896447805
6514.184997392356,-0.004734004421731646
6514.185997164279,-0.004775202967153741
6514.1869969362015,-0.004815746655067211
6514.187996708124,-0.004855624739581829
6514.188996480047,-0.004894826612993926
6514.18999625197,-0.0049333418122184105
6514.190996023893,-0.004971160025217577
6514.191995795815,-0.005008271097421313
6514.192995567738,-0.005044665038133351
6514.19399533966,-0.005080332026918217
6514.194995111583,-0.0051152624199635776
6514.1959948835065,-0.005149446756412734
6514.196994655429,-0.00518287576466203
6514.197994427352,-0.005215540368618015
6514.198994199274,-0.005247431693909239
6514.199993971197,-0.005278541074047639
6514.20099374312,-0.005308860056534575
6514.201993515043,-0.00533838040890668
6514.2029932869655,-0.005367094124716709
6514.203993058888,-0.005394993429444653
6514.204992830811,-0.005422070786334363
6514.205992602734,-0.005448318902150872
6514.206992374657,-0.0054737307328535205
6514.207992146579,-0.0054982994891799
6514.208991918502,-0.0055220186421354525
6514.209991690424,-0.005544881928383476
6514.210991462347,-0.005566883355530127
6514.211991234271,-0.005588017207298883
6514.212991006193,-0.005608278048588794
6514.213990778116,-0.005627660730410759
6514.214990550038,-0.0056461603946959095
6514.215990321961,-0.005663772478970112
6514.216990093884,-0.00568049272088842
6514.217989865807,-0.0056963171626232085
6514.2189896377295,-0.005711242155099548
6514.219989409652,-0.005725264362071215
6514.220989181575,-0.005738380764030586
6514.221988953498,-0.005750588661945479
6514.222988725421,-0.005761885680815866
6514.223988497343,-0.005772269773043226
6514.224988269266,-0.005781739221605231
6514.225988041188,-0.005790292643028306
6514.226987813112,-0.005797928990150575
6514.2279875850345,-0.005804647554667614
6514.228987356957,-0.005810447969453376
6514.22998712888,-0.005815330210648656
6514.230986900802,-0.005819294599509413
6514.231986672725,-0.005822341804007302
6514.232986444648,-0.005824472840174834
6514.233986216571,-0.005825689073187673
6514.2349859884935,-0.005825992218176782
6514.235985760416,-0.005825384340763381
6514.236985532339,-0.005823867857309984
6514.237985304262,-0.005821445534881114
6514.238985076185,-0.005818120490907691
6514.239984848107,-0.005813896192549435
6514.24098462003,-0.0058087764557500365
6514.241984391952,-0.005802765443980243
6514.242984163876,-0.005795867666664488
6514.243983935799,-0.005788087977287082
6514.244983707721,-0.005779431571174539
6514.245983479644,-0.0057699039829510745
6514.246983251566,-0.005759511083664874
6514.247983023489,-0.0057482590775832735
6514.248982795412,-0.005736154498655588
6514.249982567335,-0.005723204206642953
6514.2509823392575,-0.005709415382915189
6514.25198211118,-0.0056947955259153546
6514.252981883103,-0.0056793524462933065
6514.253981655026,-0.00566309426171026
6514.254981426949,-0.005646029391317019
6514.255981198871,-0.005628166549909282
6514.256980970794,-0.005609514741764118
6514.257980742716,-0.005590083254162478
6514.25898051464,-0.005569881650603322
6514.2599802865625,-0.005548919763715785
6514.260980058485,-0.005527207687876611
6514.261979830408,-0.00550475577154091
6514.26297960233,-0.005481574609295281
6514.263979374253,-0.005457675033643219
6514.264979146176,-0.005433068106533844
6514.265978918099,-0.005407765110646122
6514.2669786900215,-0.005381777540441953
6514.267978461944,-0.005355117093002789
6514.268978233867,-0.005327795658665716
6514.26997800579,-0.00529982531147623
6514.270977777713,-0.005271218299476016
6514.271977549635,-0.0052419870348451095
6514.272977321558,-0.005212144083918625
6514.27397709348,-0.005181702157098881
6514.274976865404,-0.00515067409868425
6514.275976637327,-0.005119072876636413
6514.276976409249,-0.005086911572307859
6514.277976181172,-0.005054203370151483
6514.278975953094,-0.005020961547434023
6514.279975725018,-0.004987199463974729
6514.28097549694,-0.004952930551930304
6514.281975268863,-0.004918168305646532
6514.2829750407855,-0.004882926271596392
6514.283974812708,-0.004847218038423623
6514.284974584631,-0.004811057227109777
6514.285974356554,-0.004774457481281773
6514.286974128477,-0.004737432457675859
6514.287973900399,-0.004699995816772719
6514.288973672322,-0.004662161213617351
6514.289973444244,-0.004623942288836173
6514.290973216168,-0.004585352659862697
6514.2919729880905,-0.0045464059123819745
6514.292972760013,-0.004507115592002908
6514.293972531936,-0.0044674951961663645
6514.294972303858,-0.004427558166295905
6514.295972075781,-0.004387317880196763
6514.296971847704,-0.004346787644707598
6514.297971619627,-0.004305980688608446
6514.2989713915495,-0.004264910155787283
6514.299971163472,-0.004223589098666669
6514.300970935395,-0.004182030471891118
6514.301970707318,-0.004140247126274989
6514.302970479241,-0.004098251803010004
6514.303970251163,-0.004056057128130753
6514.304970023086,-0.004013675607235933
6514.305969795008,-0.0039711196204624405
6514.306969566932,-0.0039284014177088855
6514.307969338855,-0.0038855331141045887
6514.308969110777,-0.0038425266857196627
6514.3099688827,-0.0037993939655114046
6514.310968654622,-0.003756146639501906
6514.311968426546,-0.0037127962431815365
6514.312968198468,-0.003669354158132804
6514.313967970391,-0.0036258316088690146
6514.3149677423135,-0.0035822396598821247
6514.315967514236,-0.003538589212894196
6514.316967286159,-0.0034948910043069163
6514.317967058082,-0.003451155602843736
6514.318966830005,-0.0034073934073792973
6514.319966601927,-0.0033636146449509603
6514.32096637385,-0.003319829368947388
6514.321966145772,-0.0032760474574693448
6514.322965917696,-0.0032322786118579912
6514.3239656896185,-0.003188532355386172
6514.324965461541,-0.0031448180321083214
6514.325965233464,-0.00310114480586481
6514.326965005386,-0.003057521659436661
6514.32796477731,-0.0030139573938467146
6514.328964549232,-0.0029704606278033734
6514.329964321155,-0.002927039797283166
6514.3309640930775,-0.002883703155248399
6514.331963865,-0.0028404587714962524
6514.332963636923,-0.002797314532635723
6514.333963408846,-0.0027542781421888863
6514.334963180769,-0.0027113571208130013
6514.335962952691,-0.0026685588066400305
6514.336962724614,-0.0026258903557302036
6514.337962496536,-0.0025833587426362715
6514.33896226846,-0.0025409707610751647
6514.339962040383,-0.0024987330247038054
6514.340961812305,-0.0024566519679958473
6514.341961584228,-0.0024147338472161528
6514.34296135615,-0.0023729847414898186
6514.343961128074,-0.0023314105539625585
6514.344960899996,-0.0022900170130492315
6514.345960671919,-0.0022488096737673
6514.346960443841,-0.0022077939191519915
6514.347960215764,-0.0021669749617499517
6514.348959987687,-0.0021263578451881874
6514.34995975961,-0.002085947445815136
6514.350959531533,-0.0020457484744107316
6514.351959303455,-0.0020057654779623894
6514.352959075378,-0.001966002841503878
6514.3539588473,-0.0019264647900141061
6514.354958619224,-0.0018871553903729037
6514.3559583911465,-0.0018480785533709523
6514.356958163069,-0.0018092380357711115
6514.357957934992,-0.0017706374424184786
6514.358957706914,-0.0017322802283966155
6514.359957478838,-0.0016941697012274556
6514.36095725076,-0.0016563090231124812
6514.361957022683,-0.0016187012132128204
6514.362956794605,-0.0015813491499659677
6514.363956566528,-0.0015442555734368833
6514.364956338452,-0.0015074230877012778
6514.365956110374,-0.0014708541632589567
6514.366955882297,-0.0014345511394751684
6514.367955654219,-0.0013985162270479972
6514.368955426142,-0.001362751510499941
6514.369955198064,-0.0013272589506919167
6514.370954969988,-0.0012920403873580202
6514.371954741911,-0.0012570975416594525
6514.372954513833,-0.0012224320187560554
6514.373954285756,-0.0011880453103939406
6514.374954057678,-0.0011539387975076944
6514.375953829602,-0.0011201137528356326
6514.376953601524,-0.001086571343546553
6514.377953373447,-0.0010533126338764052
6514.378953145369,-0.0010203385877732684
6514.379952917292,-0.0009876500715489886
6514.380952689216,-0.0009552478565358115
6514.381952461138,-0.0009231326217463215
6514.382952233061,-0.0008913049565349913
6514.383952004983,-0.000859765363259624
6514.384951776906,-0.0008285142599409609
6514.385951548828,-0.0007975519829187025
6514.386951320752,-0.0007668787895021793
6514.3879510926745,-0.000736494860613895
6514.388950864597,-0.0007064003034241557
6514.38995063652,-0.0006765951539749888
6514.390950408442,-0.0006470793797915459
6514.391950180366,-0.0006178528824791666
6514.392949952288,-0.000588915500304257
6514.393949724211,-0.0005602670107571287
6514.394949496133,-0.0005319071330949367
6514.395949268056,-0.0005038355308628619
6514.39694903998,-0.0004760518143916963
6514.397948811902,-0.0004485555432700206
6514.398948583825,-0.0004213462287892125
6514.399948355747,-0.00039442333635959906
6514.40094812767,-0.0003677862878961653
6514.401947899592,-0.00034143446417235864
6514.402947671516,-0.0003153672071406763
6514.403947443439,-0.0002895838222188906
6514.404947215361,-0.00026408358054093615
6514.405946987284,-0.00023886572117164277
6514.406946759206,-0.0002139294532846428
6514.40794653113,-0.0001892739583029033
6514.408946303052,-0.0001648983920014382
6514.409946074975,-0.00014080188657183737
6514.410945846897,-0.00011698355264830566
6514.41194561882,-9.344248129492779e-05
6514.412945390744,-7.017774595385906e-05
6514.413945162666,-4.718840435409709e-05
6514.414944934589,-2.4473500380425206e-05
6514.415944706511,-2.0320659020501246e-06
6514.416944478434,2.0136877439608938e-05
6514.417944250357,4.203431648458374e-05
6514.41894402228,6.366124485013553e-05
6514.4199437942025,8.501866126936482e-05
6514.420943566125,0.00010610756797341199
6514.421943338048,0.00012692896911803577
6514.42294310997,0.00014748386925537155
6514.423942881894,0.0001677732718516837
6514.424942653816,0.00018779817785194601
6514.425942425739,0.000207559584292117
6514.426942197661,0.00022705848296001782
6514.427941969584,0.0002462958591057565
6514.428941741508,0.00026527269020266
6514.42994151343,0.0002839899447596654
6514.430941285353,0.00030244858118607515
6514.431941057275,0.00032064954670949994
6514.432940829198,0.0003385937763476964
6514.43394060112,0.0003562821919348644
6514.434940373044,0.000373715701202824
6514.435940144967,0.0003908951969173612
6514.436939916889,0.0004078215560699407
6514.437939688812,0.0004244956391249247
6514.438939460734,0.00044091828932242
6514.439939232658,0.0004570903320368619
6514.44093900458,0.0004730125741914355
6514.441938776503,0.000488685803728416
6514.442938548425,0.0005041107891354844
6514.443938320348,0.0005192882790280666
6514.444938092272,0.0005342190017877396
6514.445937864194,0.000548903665256762
6514.446937636117,0.0005633429564887916
6514.447937408039,0.0005775375415558611
6514.448937179962,0.0005914880654116773
6514.449936951885,0.000605195151811293
6514.450936723808,0.0006186594032871732
6514.4519364957305,0.0006318814011816412
6514.452936267653,0.0006448617057356326
6514.453936039576,0.0006576008562336193
6514.454935811498,0.0006700993712044853
6514.455935583422,0.000682357748678053
6514.456935355344,0.0006943764664968763
6514.457935127267,0.0007061559826828415
6514.458934899189,0.0007176967358580519
6514.459934671112,0.0007289991457194086
6514.460934443036,0.0007400636135662746
6514.461934214958,0.0007508905228805826
6514.462933986881,0.0007614802399587439
6514.463933758803,0.000771833114594717
6514.464933530726,0.0007819494808135905
6514.465933302649,0.0007918296576550203
6514.466933074572,0.0008014739500058463
6514.467932846495,0.0008108826494811787
6514.468932618417,0.0008200560353532084
6514.46993239034,0.0008289943755269692
6514.470932162262,0.0008376979275622429
6514.471931934186,0.0008461669397407652
6514.472931706108,0.0008544016521778465
6514.473931478031,0.0008624022979774787
6514.474931249953,0.0008701691044299589
6514.475931021876,0.0008777022942510165
6514.4769307938,0.0008850020868613953
6514.477930565722,0.0008920686997058061
6514.478930337645,0.0008989023496101247
6514.479930109567,0.0009055032541756756
6514.48092988149,0.0009118716332093885
6514.481929653413,0.0009180077101885668
6514.482929425336,0.000923911713758935
6514.4839291972585,0.0009295838792645658
6514.484928969181,0.0009350244503082152
6514.485928741104,0.0009402336803405262
6514.486928513026,0.0009452118342764891
6514.48792828495,0.0009499591901374854
6514.488928056872,0.000954476040717166
6514.489927828795,0.00095876269526937
6514.490927600717,0.0009628194812162422
6514.49192737264,0.0009666467458746698
6514.492927144564,0.0009702448581991264
6514.493926916486,0.0009736142105389617
6514.494926688409,0.0009767552204081285
6514.495926460331,0.000979668332265281
6514.496926232254,0.0009823540193021312
6514.497926004177,0.0009848127852379188
6514.4989257761,0.0009870451661178373
6514.499925548023,0.0009890517321132675
6514.500925319945,0.0009908330893216785
6514.501925091868,0.0009923898815640748
6514.502924863791,0.000993722792177879
6514.503924635714,0.0009948325458031633
6514.504924407636,0.000995719910160156
6514.505924179559,0.0009963856978159695
6514.506923951481,0.0009968307679385042
6514.507923723404,0.000997056028035471
6514.508923495328,0.0009970624356764528
6514.50992326725,0.0009968510001958817
6514.510923039173,0.0009964227843747408
6514.511922811095,0.0009957789060987211
6514.512922583018,0.0009949205399904697
6514.513922354941,0.000993848919013478
6514.514922126864,0.0009925653360450754
6514.5159218987865,0.0009910711454159287
6514.516921670709,0.0009893677644134099
6514.517921442632,0.0009874566747461728
6514.518921214554,0.000985339423967289
6514.519920986478,0.0009830176268533011
6514.5209207584,0.0009804929667365746
6514.521920530323,0.0009777671967883344
6514.522920302245,0.0009748421412497951
6514.523920074168,0.0009717196966088264
6514.524919846092,0.0009684018327196562
6514.525919618014,0.000964890593863191
6514.526919389937,0.0009611880997456164
6514.527919161859,0.0009572965464330201
6514.528918933782,0.0009532182072198519
6514.529918705705,0.0009489554334291084
6514.530918477628,0.0009445106551422153
6514.531918249551,0.0009398863818566725
6514.532918021473,0.000935085203069648
6514.533917793396,0.0009301097887858457
6514.534917565319,0.0009249628899481386
6514.535917337242,0.000919647338789633
6514.536917109164,0.0009141660491060169
6514.537916881087,0.0009085220164472274
6514.538916653009,0.0009027183182276414
6514.539916424932,0.0008967581137541648
6514.540916196856,0.0008906446441717572
6514.541915968778,0.0008843812323260983
6514.542915740701,0.0008779712825432625
6514.543915512623,0.0008714182803264327
6514.544915284546,0.0008647257919698229
6514.545915056469,0.0008578974640901021
6514.546914828392,0.0008509370230757045
6514.5479146003145,0.0008438482744545058
6514.548914372237,0.0008366351021804518
6514.54991414416,0.0008293014678398718
6514.550913916083,0.0008218514097783968
6514.551913688006,0.0008142890421496128
6514.552913459928,0.0008066185538868102
6514.553913231851,0.0007988442075993993
6514.554913003773,0.0007909703383957758
6514.555912775696,0.0007830013526346003
6514.55691254762,0.000774941726606634
6514.557912319542,0.0007667960051494187
6514.558912091465,0.0007585688001972144
6514.559911863387,0.000750264789268717
6514.56091163531,0.0007418887138951597
6514.561911407233,0.0007334453779914782
6514.562911179156,0.0007249396461732712
6514.563910951079,0.000716376442022334
6514.564910723001,0.0007077607463035538
6514.565910494924,0.0006990975951359377
6514.566910266847,0.0006903920781204726
6514.56791003877,0.0006816493364274063
6514.568909810692,0.0006728745608453768
6514.569909582615,0.0006640729897946283
6514.570909354537,0.00065524990730635
6514.57190912646,0.0006464106409699721
6514.572908898384,0.0006375605598500864
6514.573908670306,0.0006287050723745236
6514.574908442229,0.0006198496241950427
6514.575908214151,0.0006109996960220514
6514.576907986074,0.0006021608014347791
6514.577907757997,0.0005933384846683538
6514.57890752992,0.0005845383183792737
6514.5799073018425,0.0005757659013908041
6514.580907073765,0.0005670268564198657
6514.581906845688,0.000558326827787009
6514.582906617611,0.0005496714791111013
6514.583906389534,0.0005410664909903765
6514.584906161456,0.0005325175586715263
6514.585905933379,0.0005240303897085335
6514.586905705301,0.000515610701612962
6514.587905477225,0.0005072642194974211
6514.588905249148,0.0004989966737139132
6514.58990502107,0.0004908137974887477
6514.590904792993,0.00048272132455568027
6514.591904564915,0.00047472498678889316
6514.592904336838,0.0004668305118373656
6514.593904108761,0.0004590436207620968
6514.594903880684,0.0004513700256775208
6514.595903652607,0.00044381542739830427
6514.596903424529,0.0004363855130925455
6514.597903196452,0.00042908595394220615
6514.598902968375,0.00042192240281141994
6514.599902740298,0.00041490049192315537
6514.60090251222,0.000408025830544577
6514.601902284143,0.00040130400268136176
6514.602902056065,0.000394740564781166
6514.603901827989,0.00038834104344640495
6514.604901599912,0.0003821109331564894
6514.605901371834,0.0003760556939996662
6514.606901143757,0.00037018074941463046
6514.607900915679,0.00036449148394211337
6514.608900687602,0.0003589932409866937
6514.609900459525,0.00035369132058911824
6514.610900231448,0.00034859097720944517
6514.6119000033705,0.0003436974175213422
6514.612899775293,0.0003390157982178828
6514.613899547216,0.0003345512238291941
6514.614899319139,0.00033030874455233024
6514.615899091062,0.0003262933540937697
6514.616898862984,0.00032250998752496736
6514.617898634907,0.000318963519151427
6514.618898406829,0.0003156587603957889
6514.619898178753,0.000312600457695453
6514.620897950676,0.0003097932904152744
6514.621897722598,0.00030724186877587907
6514.622897494521,0.0003049507317981509
6514.623897266443,0.00030292434526444056
6514.624897038366,0.00030116709969705337
6514.625896810289,0.00029968330835459985
6514.626896582212,0.00029847720524685056
6514.627896354135,0.0002975529431688339
6514.628896126057,0.00029691459175504884
6514.62989589798,0.0002965661355548272
6514.630895669903,0.0002965114721300609
6514.631895441826,0.00029675441017669034
6514.632895213748,0.0002972986676715141
6514.633894985671,0.0002981478700460143
6514.634894757593,0.00029930554838898134
6514.635894529517,0.0003007751376797677
6514.63689430144,0.00030255997505400476
6514.637894073362,0.00030466329810358754
6514.638893845285,0.000307088243212682
6514.639893617207,0.0003098378439314411
6514.640893389131,0.00031291502938903773
6514.641893161053,0.0003163226227475396
6514.642892932976,0.00032006333969806665
6514.6438927048985,0.00032413978700058946
6514.644892476821,0.0003285544610686396
6514.645892248744,0.0003333097466001162
6514.646892020667,0.0003384079152552906
6514.64789179259,0.0003438511243830318
6514.648891564512,0.0003496414157962054
6514.649891336435,0.0003557807145971318
6514.650891108357,0.0003622708280539304
6514.651890880281,0.00036911344452851265
6514.652890652204,0.0003763101324569231
6514.653890424126,0.00038386233938266976
6514.654890196049,0.0003917713910436197
6514.655889967971,0.0004000384905129855
6514.656889739894,0.0004086647173948724
6514.657889511817,0.0004176510270748034
6514.65888928374,0.00042699825002558524
6514.659889055663,0.00043670709116881896
6514.660888827585,0.0004467781292922986
6514.661888599508,0.00045721181652348246
6514.662888371431,0.000468008477859158
6514.663888143354,0.00047916831075136483
6514.664887915276,0.0004906913847495845
6514.665887687199,0.0005025776411991524
6514.666887459121,0.0005148268929957976
6514.667887231045,0.0005274388243961717
6514.668887002968,0.0005404129908841722
6514.66988677489,0.0005537488190928133
6514.670886546813,0.0005674456067813397
6514.671886318735,0.0005815025228672244
6514.672886090659,0.0005959186075126428
6514.673885862581,0.0006106927722649723
6514.674885634504,0.0006258238002508333
6514.6758854064265,0.0006413103464231811
6514.676885178349,0.0006571509378609698
6514.677884950272,0.0006733439741209586
6514.678884722195,0.0006898877276412896
6514.679884494118,0.0007067803441965315
6514.68088426604,0.0007240198434039472
6514.681884037963,0.0007416041192808065
6514.682883809885,0.0007595309408526165
6514.683883581809,0.0007777979528121914
6514.684883353732,0.0007964026762295112
6514.685883125654,0.0008153425093123379
6514.686882897577,0.0008346147282175547
6514.687882669499,0.0008542164879131685
6514.688882441423,0.0008741448230908677
6514.689882213345,0.0008943966491289531
6514.690881985268,0.0009149687631053705
6514.691881757191,0.0009358578448604673
6514.692881529113,0.0009570604581089794
6514.693881301036,0.000978573051600645
6514.694881072959,0.001000391960328726
6514.695880844882,0.0010225134067856324
6514.696880616804,0.0010449335022647737
6514.697880388727,0.0010676482482077467
6514.698880160649,0.0010906535375959587
6514.699879932573,0.0011139451563858145
6514.700879704496,0.001137518784986633
6514.701879476418,0.0011613699997804843
6514.702879248341,0.0011854942746831844
6514.703879020263,0.0012098869827456907
6514.704878792187,0.0012345433977951608
6514.705878564109,0.001259458696114939
6514.706878336032,0.0012846279581627089
6514.7078781079545,0.0013100461703260317
6514.708877879877,0.0013357082267144512
6514.7098776518,0.0013616089309873155
6514.710877423723,0.0013877429982164444
6514.711877195646,0.0014141050567827414
6514.712876967568,0.0014406896503058484
6514.713876739491,0.0014674912396059243
6514.714876511413,0.001494504204696634
6514.715876283337,0.0015217228468084453
6514.71687605526,0.0015491413904413305
6514.717875827182,0.0015767539854460093
6514.718875599105,0.0016045547091329006
6514.719875371027,0.001632537568408014
6514.720875142951,0.0016606965019350557
6514.721874914873,0.0016890253823230834
6514.722874686796,0.0017175180183390593
6514.723874458719,0.0017461681571446714
6514.724874230641,0.0017749694865567406
6514.7258740025645,0.0018039156373304858
6514.726873774487,0.0018330001854648301
6514.72787354641,0.001862216654528825
6514.728873318332,0.00189155851800818
6514.729873090255,0.001921019201670785
6514.730872862177,0.0019505920859500352
6514.731872634101,0.00198027050834468
6514.732872406024,0.0020100477658338473
6514.733872177946,0.0020399171173058174
6514.734871949869,0.002069871785999037
6514.735871721791,0.002099904961953803
6514.736871493715,0.002130009804472962
6514.737871265637,0.0021601794445899247
6514.73887103756,0.0021904069875422166
6514.739870809482,0.002220685515248726
6514.740870581405,0.0022510080887887377
6514.7418703533285,0.0022813677508807537
6514.742870125251,0.0023117575283590325
6514.743869897174,0.0023421704346457206
6514.744869669096,0.0023725994722164135
6514.745869441019,0.0024030376350569686
6514.746869212941,0.002433477911109424
6514.747868984865,0.0024639132847049136
6514.748868756788,0.00249433673898153
6514.74986852871,0.00252474125828515
6514.750868300633,0.0025551198305513267
6514.751868072555,0.0025854654496664225
6514.752867844479,0.0026157711178062667
6514.753867616401,0.0026460298477507223
6514.754867388324,0.0026762346651726513
6514.755867160246,0.0027063786108998907
6514.756866932169,0.002736454743148955
6514.7578667040925,0.0027664561397292894
6514.758866476015,0.0027963759002170145
6514.759866247938,0.0028262071480971962
6514.76086601986,0.002855943032873764
6514.761865791783,0.0028855767321462663
6514.762865563705,0.002915101453652717
6514.763865335629,0.0029445104372778303
6514.764865107552,0.0029737969570259562
6514.765864879474,0.0030029543229580812
6514.766864651397,0.0030319758830922414
6514.767864423319,0.003060855025266757
6514.768864195243,0.003089585178965703
6514.769863967165,0.003118159817106067
6514.770863739088,0.00314657245778608
6514.77186351101,0.003174816665994261
6514.772863282933,0.003202886055278751
6514.7738630548565,0.0032307742893765484
6514.774862826779,0.003258475083802281
6514.775862598702,0.003285982207396162
6514.776862370624,0.003313289483830773
6514.777862142547,0.0033403907930762955
6514.77886191447,0.0033672800728238137
6514.779861686393,0.003393951319866261
6514.780861458316,0.003420398591436599
6514.781861230238,0.003446616006502767
6514.782861002161,0.0034725977470189554
6514.783860774083,0.0034983380591327483
6514.784860546007,0.0035238312543477077
6514.785860317929,0.0035490717106410052
6514.786860089852,0.003574053873535757
6514.787859861774,0.003598772257127771
6514.788859633697,0.0036232214450664982
6514.7898594056205,0.003647396091490037
6514.790859177543,0.003671290921914115
6514.791858949466,0.0036949007340750404
6514.792858721388,0.0037182203987266606
6514.793858493311,0.0037412448603913883
6514.794858265233,0.0037639691380654083
6514.795858037157,0.003786388325878219
6514.79685780908,0.003808497593706692
6514.797857581002,0.003830292187743906
6514.798857352925,0.0038517674310230288
6514.799857124847,0.0038729187238965724
6514.800856896771,0.003893741544471322
6514.801856668693,0.003914231448999284
6514.802856440616,0.003934384072224977
6514.803856212538,0.003954195127689404
6514.804855984461,0.003973660407991083
6514.8058557563845,0.003992775785004541
6514.806855528307,0.004011537210056703
6514.80785530023,0.004029940714061676
6514.808855072152,0.0040479824076144425
6514.809854844075,0.004065658481044062
6514.810854615998,0.00408296520442706
6514.811854387921,0.004099898927561753
6514.812854159844,0.004116456079904371
6514.813853931766,0.0041326331704678995
6514.814853703689,0.004148426787684589
6514.815853475611,0.0041638335992331575
6514.816853247535,0.0041788503518316806
6514.817853019457,0.004193473870997202
6514.81885279138,0.004207701060773098
6514.819852563302,0.004221528903425236
6514.820852335225,0.004234954459107994
6514.8218521071485,0.00424797486550118
6514.822851879071,0.0042605873374189345
6514.823851650994,0.004272789166391654
6514.824851422916,0.004284577720222011
6514.825851194839,0.004295950442516124
6514.826850966762,0.004306904852190987
6514.827850738685,0.004317438542959258
6514.828850510608,0.0043275491827925346
6514.82985028253,0.004337234513364256
6514.830850054453,0.004346492349473345
6514.831849826375,0.004355320578449681
6514.832849598299,0.004363717159542454
6514.833849370221,0.0043716801232923635
6514.834849142144,0.004379207570888569
6514.835848914066,0.00438629767351122
6514.836848685989,0.004392948671660312
6514.8378484579125,0.00439915887447153
6514.838848229835,0.004404926659019667
6514.839848001758,0.004410250469610134
6514.84084777368,0.004415128817059035
6514.841847545603,0.004419560277962283
6514.842847317526,0.004423543493954204
6514.843847089449,0.004427077170956116
6514.844846861372,0.004430160078415345
6514.845846633294,0.0044327910485351665
6514.846846405217,0.004434968975496153
6514.847846177139,0.004436692814669413
6514.848845949063,0.004437961581822228
6514.849845720985,0.0044387743523166025
6514.850845492908,0.004439130260301281
6514.85184526483,0.004439028497897803
6514.852845036753,0.004438468314381212
6514.8538448086765,0.004437449015356032
6514.854844580599,0.004435969961928166
6514.855844352522,0.004434030569873364
6514.856844124444,0.004431630308802909
6514.857843896367,0.004428768701327196
6514.85884366829,0.004425445322217814
6514.859843440213,0.0044216597975687754
6514.860843212136,0.004417411803957492
6514.861842984058,0.004412701067606086
6514.862842755981,0.004407527363543613
6514.863842527904,0.004401890514769788
6514.864842299827,0.004395790391420797
6514.865842071749,0.004389226909937818
6514.866841843672,0.004382200032238867
6514.867841615594,0.004374709764894636
6514.868841387517,0.0043667561583089895
6514.8698411594405,0.004358339305904784
6514.870840931363,0.004349459343315692
6514.871840703286,0.004340116447584699
6514.872840475208,0.004330310836369969
6514.873840247131,0.004320042767158757
6514.874840019054,0.004309312536490137
6514.875839790977,0.0042981204791873095
6514.8768395629,0.0042864669676003445
6514.877839334822,0.004274352410860278
6514.878839106745,0.004261777254145565
6514.879838878667,0.004248741977961994
6514.880838650591,0.004235247097437219
6514.881838422513,0.004221293161631199
6514.882838194436,0.004206880752863808
6514.883837966358,0.004192010486060939
6514.884837738281,0.0041766830081203495
6514.8858375102045,0.00416089899729848
6514.886837282127,0.004144659162619369
6514.88783705405,0.0041279642433067285
6514.888836825972,0.004110815008240179
6514.889836597895,0.0040932122554365865
6514.890836369818,0.004075156811557421
6514.891836141741,0.004056649531443026
6514.892835913664,0.004037691297674708
6514.893835685586,0.004018283020165543
6514.894835457509,0.003998425635780795
6514.895835229432,0.003978120107988859
6514.896835001355,0.003957367426543602
6514.897834773277,0.003936168607198984
6514.8988345452,0.00391452469145677
6514.899834317122,0.0038924367463481356
6514.900834089045,0.0038699058642498625
6514.9018338609685,0.003846933162735799
6514.902833632891,0.0038235197844641217
6514.903833404814,0.0037996668971008903
6514.904833176736,0.0037753756932802723
6514.905832948659,0.0037506473906017295
6514.906832720582,0.0037254832316643695
6514.907832492505,0.0036998844841385783
6514.908832264428,0.003673852440874978
6514.90983203635,0.0036473884200506246
6514.910831808273,0.00362049376535228
6514.911831580196,0.003593169846196477
6514.912831352119,0.003565418057986001
6514.913831124041,0.0035372398224023456
6514.914830895964,0.0035086365877336195
6514.915830667886,0.0034796098292373414
6514.916830439809,0.003450161049537531
6514.9178302117325,0.0034202917790554935
6514.918829983655,0.0033900035764736847
6514.919829755578,0.0033592980292320405
6514.9208295275,0.003328176754056177
6514.921829299423,0.003296641397516844
6514.922829071346,0.003264693636620018
6514.923828843269,0.0032323351794269614
6514.924828615192,0.003199567765703551
6514.925828387114,0.0031663931675981064
6514.926828159037,0.003132813190346936
6514.92782793096,0.0030988296730067367
6514.928827702883,0.0030644444892129656
6514.929827474805,0.0030296595479632057
6514.930827246728,0.0029944767944244475
6514.93182701865,0.002958898210763089
6514.932826790573,0.002922925816996289
6514.9338265624965,0.002886561671863207
6514.934826334419,0.0028498078737145016
6514.935826106342,0.0028126665614183906
6514.936825878264,0.002775139915281508
6514.937825650187,0.00273723015798273
6514.93882542211,0.002698939555518147
6514.939825194033,0.00266027041815537
6514.940824965956,0.0026212251013953795
6514.941824737878,0.0025818060069401896
6514.942824509801,0.002542015583664631
6514.943824281724,0.0025018563285906484
6514.944824053647,0.0024613307878625385
6514.945823825569,0.0024204415577216325
6514.946823597492,0.002379191285478996
6514.947823369414,0.0023375826704847944
6514.948823141338,0.002295618465093054
6514.9498229132605,0.0022533014756206285
6514.950822685183,0.0022106345632992674
6514.951822457106,0.002167620645219748
6514.952822229028,0.002124262695267103
6514.953822000951,0.0020805637450460428
6514.954821772874,0.0020365268847957244
6514.955821544797,0.0019921552642930686
6514.95682131672,0.001947452093743883
6514.957821088642,0.0019024206446610994
6514.958820860565,0.001857064250729498
6514.959820632488,0.0018113863086563525
6514.960820404411,0.001765390279007527
6514.961820176333,0.0017190796870286493
6514.962819948256,0.001672458123451098
6514.963819720178,0.0016255292452826595
6514.964819492102,0.0015782967765828263
6514.9658192640245,0.0015307645092228323
6514.966819035947,0.0014829363036306447
6514.96781880787,0.0014348160895212598
6514.968818579792,0.001386407866612742
6514.969818351715,0.001337715705328536
6514.970818123638,0.001288743747486623
6514.971817895561,0.0012394962069761156
6514.972817667484,0.0011899773704218857
6514.973817439406,0.001140191597837788
6514.974817211329,0.001090143323269027
6514.975816983252,0.0010398370554241688
6514.976816755175,0.0009892773782972488
6514.977816527097,0.00093846895178038
6514.97881629902,0.0008874165122672146
6514.979816070942,0.0008361248732475712
6514.980815842866,0.0007845989258935062
6514.9818156147885,0.0007328436396370622
6514.982815386711,0.0006808640627398853
6514.983815158634,0.0006286653228548462
6514.984814930556,0.0005762526275797416
6514.985814702479,0.0005236312650030962
6514.986814474402,0.0004708066042420256
6514.987814246325,0.00041778409597206437
6514.988814018248,0.00036456927294878475
6514.98981379017,0.00031116775052094666
6514.990813562093,0.00025758522713481595
6514.991813334016,0.0002038274848291824
6514.992813105939,0.00014990038972050154
6514.993812877861,9.58098924774834e-05
6514.994812649784,4.156202878434008e-05
6514.995812421706,-1.283708020821086e-05
6514.99681219363,-6.73812274452213e-05
6514.9978119655525,-0.00012206411954424053
6514.998811737475,-0.00017687937638781817
6514.999811509398,-0.00023182053073325263
6515.00081128132,-0.0002868810278411989
6515.001811053244,-0.0003420542251248855
6515.002810825166,-0.0003973333918218229
6515.003810597089,-0.0004527117086900175
6515.004810369012,-0.0005081822677308332
6515.005810140934,-0.0005637380719407748
6515.006809912857,-0.0006193720350945867
6515.00780968478,-0.0006750769815621694
6515.008809456703,-0.0007308456461619056
6515.009809228625,-0.0007866706740530669
6515.010809000548,-0.0008425446206700326
6515.01180877247,-0.000898459951701097
6515.012808544394,-0.0009544090431146757
6515.0138083163165,-0.001010384181235722
6515.014808088239,-0.0010663775628751543
6515.015807860162,-0.0011223812955150668
6515.016807632084,-0.0011783873975524635
6515.017807404007,-0.001234387798604217
6515.01880717593,-0.0012903743398758967
6515.019806947853,-0.0013463387745970392
6515.020806719776,-0.001402272768525347
6515.021806491698,-0.0014581679005221885
6515.022806263621,-0.0015140156632016445
6515.023806035544,-0.0015698074636552339
6515.024805807467,-0.0016255346242543007
6515.025805579389,-0.0016811883835319296
6515.026805351312,-0.0017367598971461365
6515.027805123234,-0.0017922402389259698
6515.028804895158,-0.0018476204020020756
6515.0298046670805,-0.001902891300023205
6515.030804439003,-0.001958043768460087
6515.031804210926,-0.0020130685659980473
6515.032803982848,-0.0020679563760197203
6515.033803754772,-0.0021226978081791514
6515.034803526694,-0.0021772834000685364
6515.035803298617,-0.0022317036189787643
6515.03680307054,-0.002285948863754844
6515.037802842462,-0.0023400094667471887
6515.038802614385,-0.00239387569585961
6515.039802386308,-0.0024475377566947464
6515.040802158231,-0.0025009857947974963
6515.041801930153,-0.0025542098979968748
6515.042801702076,-0.0026072000988465543
6515.043801473998,-0.002659946377164206
6515.044801245922,-0.0027124386626696233
6515.0458010178445,-0.0027646668377214914
6515.046800789767,-0.0028166207401525666
6515.04780056169,-0.0028682901662029497
6515.048800333612,-0.0029196648735510273
6515.049800105536,-0.0029707345844415763
6515.050799877458,-0.003021488988910442
6515.051799649381,-0.0030719177481050982
6515.052799421304,-0.003122010497700303
6515.053799193226,-0.0031717568514079584
6515.054798965149,-0.003221146404580194
6515.055798737072,-0.0032701687379046167
6515.056798508995,-0.0033188134211905923
6515.057798280917,-0.003367070017245345
6515.05879805284,-0.0034149280858386173
6515.059797824762,-0.003462377187754567
6515.060797596686,-0.003509406888929534
6515.0617973686085,-0.0035560067646742233
6515.062797140531,-0.003602166403978819
6515.063796912454,-0.0036478754138994213
6515.064796684376,-0.0036931234240241266
6515.0657964563,-0.0037379000910169715
6515.066796228222,-0.003782195103237846
6515.067796000145,-0.0038259981854363826
6515.068795772068,-0.003869299103517699
6515.06979554399,-0.003912087669377815
6515.070795315913,-0.0039543537458064295
6515.071795087836,-0.003996087251454659
6515.072794859759,-0.004037278165865282
6515.073794631681,-0.004077916534562908
6515.074794403604,-0.004117992474201433
6515.075794175526,-0.0041574961777660294
6515.07679394745,-0.004196417919826807
6515.0777937193725,-0.004234748061841224
6515.078793491295,-0.004272477057502164
6515.079793263218,-0.0043095954581285085
6515.08079303514,-0.004346093918094895
6515.081792807064,-0.004381963200297228
6515.082792578986,-0.004417194181650385
6515.083792350909,-0.004451777858614411
6515.084792122832,-0.004485705352745373
6515.085791894754,-0.004518967916266899
6515.0867916666775,-0.0045515569376582835
6515.0877914386,-0.0045834639472549015
6515.088791210523,-0.004614680622856484
6515.089790982445,-0.004645198795338677
6515.090790754368,-0.004675010454263135
6515.09179052629,-0.0047041077534812825
6515.092790298214,-0.004732483016726813
6515.0937900701365,-0.004760128743191925
6515.094789842059,-0.004787037613082362
6515.095789613982,-0.004813202493146347
6515.096789385904,-0.004838616442172623
6515.097789157828,-0.0048632727164528555
6515.09878892975,-0.004887164775203759
6515.099788701673,-0.004910286285944344
6515.100788473596,-0.004932631129823727
6515.101788245518,-0.004954193406894905
6515.1027880174415,-0.004974967441329872
6515.103787789364,-0.004994947786571338
6515.104787561287,-0.00501412923041623
6515.105787333209,-0.005032506800026005
6515.106787105132,-0.00505007576685867
6515.107786877054,-0.005066831651517311
6515.108786648978,-0.005082770228509771
6515.1097864209005,-0.005097887530914042
6515.110786192823,-0.005112179854943843
6515.111785964746,-0.005125643764408754
6515.112785736668,-0.005138276095063186
6515.113785508592,-0.005150073958838421
6515.114785280514,-0.005161034747951878
6515.115785052437,-0.005171156138887717
6515.11678482436,-0.005180436096242824
6515.117784596282,-0.005188872876432139
6515.1187843682055,-0.005196465031247221
6515.119784140128,-0.005203211411261797
6515.120783912051,-0.005209111169077997
6515.121783683973,-0.005214163762406791
6515.122783455896,-0.005218368956976105
6515.123783227818,-0.005221726829259928
6515.124782999742,-0.005224237769021671
6515.1257827716645,-0.005225902481664876
6515.126782543587,-0.005226721990384305
6515.12778231551,-0.005226697638110286
6515.128782087432,-0.005225831089239105
6515.129781859356,-0.005224124331142199
6515.130781631278,-0.005221579675446813
6515.131781403201,-0.005218199759080872
6515.132781175124,-0.005213987545074873
6515.133780947046,-0.005208946323113769
6515.1347807189695,-0.005203079709832015
6515.135780490892,-0.005196391648845205
6515.136780262815,-0.005188886410512024
6515.137780034737,-0.005180568591420576
6515.13877980666,-0.005171443113593479
6515.139779578583,-0.005161515223406499
6515.140779350506,-0.005150790490215868
6515.1417791224285,-0.005139274804689796
6515.142778894351,-0.005126974376840117
6515.143778666274,-0.005113895733750392
6515.144778438196,-0.005100045716997284
6515.14577821012,-0.005085431479762443
6515.146777982042,-0.0050700604836326916
6515.147777753965,-0.00505394049508679
6515.148777525887,-0.0050370795816676505
6515.14977729781,-0.005019486107839408
6515.1507770697335,-0.005001168730529301
6515.151776841656,-0.004982136394354878
6515.152776613579,-0.004962398326537544
6515.153776385501,-0.004941964031504066
6515.154776157424,-0.004920843285178149
6515.155775929346,-0.004899046128964852
6515.15677570127,-0.004876582863431209
6515.1577754731925,-0.004853464041687143
6515.158775245115,-0.0048297004624715
6515.159775017038,-0.004805303162948842
6515.16077478896,-0.004780283411223477
6515.161774560884,-0.0047546526985780884
6515.162774332806,-0.004728422731445334
6515.163774104729,-0.0047016054231217574
6515.164773876651,-0.0046742128852344704
6515.165773648574,-0.004646257418972273
6515.1667734204975,-0.00461775150609409
6515.16777319242,-0.004588707799728946
6515.168772964343,-0.004559139114982971
6515.169772736265,-0.004529058419370233
6515.170772508188,-0.004498478823085327
6515.171772280111,-0.004467413569136699
6515.172772052034,-0.004435876023360514
6515.1737718239565,-0.004403879664335551
6515.174771595879,-0.004371438073220054
6515.175771367802,-0.004338564923531837
6515.176771139724,-0.004305273970893095
6515.177770911648,-0.004271579042761378
6515.17877068357,-0.004237494028168031
6515.179770455493,-0.004203032867485085
6515.180770227415,-0.004168209542241092
6515.181769999338,-0.004133038065005793
6515.1827697712615,-0.00409753246936276
6515.183769543184,-0.004061706799988274
6515.184769315107,-0.004025575102853722
6515.185769087029,-0.003989151415567717
6515.186768858952,-0.003952449757873076
6515.187768630875,-0.0039154841223126196
6515.188768402798,-0.003878268465076665
6515.1897681747205,-0.0038408166970439568
6515.190767946643,-0.0038031426750266316
6515.191767718566,-0.0037652601932287085
6515.192767490488,-0.0037271829749264316
6515.193767262412,-0.0036889246643776936
6515.194767034334,-0.0036504988189666105
6515.195766806257,-0.0036119189015882368
6515.196766578179,-0.0035731982732773236
6515.197766350102,-0.0035343501860840036
6515.1987661220255,-0.0034953877761983087
6515.199765893948,-0.003456324057324536
6515.200765665871,-0.0034171719143056664
6515.201765437793,-0.0033779440969972994
6515.202765209716,-0.0033386532143899464
6515.203764981639,-0.0032993117289779497
6515.204764753562,-0.0032599319513728084
6515.2057645254845,-0.0032205260351582696
6515.206764297407,-0.003181105971984186
6515.20776406933,-0.0031416835868958138
6515.208763841252,-0.0031022705338950097
6515.209763613176,-0.003062878291729578
6515.210763385098,-0.003023518159906896
6515.211763157021,-0.0029842012549278645
6515.212762928943,-0.002944938506737199
6515.213762700866,-0.0029057406553860804
6515.2147624727895,-0.002866618247903186
6515.215762244712,-0.0028275816353701168
6515.216762016635,-0.0027886409701972704
6515.217761788557,-0.002749806203596164
6515.21876156048,-0.0027110870832441976
6515.219761332403,-0.0026724931511378286
6515.220761104326,-0.0026340337416300777
6515.2217608762485,-0.002595717979648306
6515.222760648171,-0.002557554779088159
6515.223760420094,-0.0025195528413795884
6515.224760192017,-0.0024817206542208595
6515.22575996394,-0.0024440664904764767
6515.226759735862,-0.0024065984072349843
6515.227759507785,-0.0023693242450226436
6515.228759279707,-0.0023322516271690507
6515.22975905163,-0.0022953879593208583
6515.2307588235535,-0.0022587404290998476
6515.231758595476,-0.0022223160059017064
6515.232758367399,-0.002186121440831976
6515.233758139321,-0.0021501632667757357
6515.234757911244,-0.002114447798597711
6515.235757683167,-0.0020789811334695893
6515.23675745509,-0.0020437691513214376
6515.2377572270125,-0.002008817515414216
6515.238756998935,-0.0019741316730304877
6515.239756770858,-0.0019397168562805221
6515.24075654278,-0.001905578083021076
6515.241756314704,-0.001871720157884212
6515.242756086626,-0.001838147673413568
6515.243755858549,-0.0018048650113055291
6515.244755630471,-0.0017718763437527766
6515.245755402394,-0.0017391856348877121
6515.2467551743175,-0.0017067966423232664
6515.24775494624,-0.0016747129187886197
6515.248754718163,-0.0016429378138573673
6515.249754490085,-0.0016114744757656683
6515.250754262008,-0.001580325853317902
6515.251754033931,-0.001549494697877353
6515.252753805854,-0.0015189835654394316
6515.2537535777765,-0.0014887948187849297
6515.254753349699,-0.0014589306297107972
6515.255753121622,-0.0014293929813359225
6515.256752893545,-0.0014001836704793686
6515.257752665468,-0.0013713043101085092
6515.25875243739,-0.0013427563318544917
6515.259752209313,-0.0013145409885924693
6515.260751981235,-0.0012866593570840632
6515.261751753158,-0.0012591123406795505
6515.2627515250815,-0.0012319006720773306
6515.263751297004,-0.0012050249161382697
6515.264751068927,-0.0011784854727525766
6515.265750840849,-0.0011522825797568945
6515.266750612772,-0.0011264163158993018
6515.267750384695,-0.0011008866038499155
6515.268750156618,-0.001075693213254772
6515.2697499285405,-0.001050835763830635
6515.270749700463,-0.0010263137284983617
6515.271749472386,-0.0010021264365524553
6515.272749244309,-0.0009782730768644243
6515.273749016232,-0.0009547527011176055
6515.274748788154,-0.0009315642270711288
6515.275748560077,-0.0009087064418507533
6515.276748331999,-0.000886178005264353
6515.277748103923,-0.0008639774531398915
6515.2787478758455,-0.0008421032006838013
6515.279747647768,-0.0008205535458577643
6515.280747419691,-0.0007993266727719942
6515.281747191613,-0.0007784206550931992
6515.282746963536,-0.0007578334594654866
6515.283746735459,-0.0007375629489425312
6515.284746507382,-0.0007176068864293845
6515.2857462793045,-0.0006979629381323535
6515.286746051227,-0.0006786286770154269
6515.28774582315,-0.0006596015862617683
6515.288745595073,-0.0006408790627388112
6515.289745366996,-0.0006224584204654877
6515.290745138918,-0.000604336894080103
6515.291744910841,-0.0005865116423073257
6515.292744682763,-0.0005689797514227208
6515.293744454686,-0.0005517382387132143
6515.2947442266095,-0.0005347840559318397
6515.295743998532,-0.00051811409274509
6515.296743770455,-0.0005017251801711593
6515.297743542377,-0.00048561409400732297
6515.2987433143,-0.00046977755824466306
6515.299743086223,-0.0004542122484683277
6515.300742858146,-0.0004389147952415067
6515.3017426300685,-0.0004238817874713201
6515.302742401991,-0.00040910977575483537
6515.303742173914,-0.00039459527570345835
6515.304741945837,-0.0003803347712439695
6515.30574171776,-0.00036632471789450243
6515.306741489682,-0.0003525615460137858
6515.307741261605,-0.00033904166402198887
6515.308741033527,-0.00032576146159153
6515.309740805451,-0.0003127173128062287
6515.3107405773735,-0.0002999055792871907
6515.311740349296,-0.00028732261328382646
6515.312740121219,-0.0002749647607283926
6515.313739893141,-0.000262828364252432
6515.314739665064,-0.00025090976616346585
6515.315739436987,-0.00023920531138027206
6515.31673920891,-0.00022771135032506392
6515.3177389808325,-0.0002164242417708683
6515.318738752755,-0.0002053403556423884
6515.319738524678,-0.00019445607576863206
6515.320738296601,-0.00018376780258559273
6515.321738068524,-0.0001732719557872901
6515.322737840446,-0.00016296497692350328
6515.323737612369,-0.00015284333194256117
6515.324737384291,-0.00014290351367758798
6515.325737156215,-0.00013314204427463533
6515.3267369281375,-0.00012355547756116893
6515.32773670006,-0.00011414040135341978
6515.328736471983,-0.00010489343970115575
6515.329736243905,-9.581125506848022e-05
6515.330736015828,-8.689055044931713e-05
6515.331735787751,-7.812807141629967e-05
6515.332735559674,-6.952060810183965e-05
6515.3337353315965,-6.106499711021632e-05
6515.334735103519,-5.275812335958524e-05
6515.335734875442,-4.459692185286819e-05
6515.336734647365,-3.657837937654789e-05
6515.337734419288,-2.8699536126460366e-05
6515.33873419121,-2.095748725975985e-05
6515.339733963133,-1.3349384372326916e-05
6515.340733735055,-5.8724369009915735e-06
6515.341733506979,1.4760865499619166e-06
6515.3427332789015,8.698856958457738e-06
6515.343733050824,1.579848371083273e-05
6515.344732822747,2.2777513504886252e-05
6515.345732594669,2.963842933001595e-05
6515.346732366592,3.638364952462389e-05
6515.347732138515,4.3015526910930375e-05
6515.348731910438,4.9536348007293286e-05
6515.3497316823605,5.594833231810047e-05
6515.350731454283,6.225363170128242e-05
6515.351731226206,6.845432981348442e-05
6515.352730998129,7.455244163294086e-05
6515.353730770052,8.054991306010607e-05
6515.354730541974,8.644862059610965e-05
6515.355730313897,9.225037109911501e-05
6515.356730085819,9.795690161866694e-05
6515.357729857743,0.00010356987930811534
6515.3587296296655,0.00010909090141519169
6515.359729401588,0.00011452149535078179
6515.360729173511,0.0001198631188358744
6515.361728945433,0.00012511716012656883
6515.362728717357,0.00013028493831690048
6515.363728489279,0.00013536770371910028
6515.364728261202,0.0001403666383207544
6515.3657280331245,0.00014528285631818674
6515.366727805047,0.0001501174047252606
6515.36772757697,0.00015487126405669502
6515.368727348893,0.0001595453490849107
6515.369727120816,0.00016414050966935456
6515.370726892738,0.00016865753165719405
6515.371726664661,0.00017309713785421626
6515.372726436583,0.0001774599890647224
6515.373726208507,0.00018174668519917625
6515.3747259804295,0.00018595776644835131
6515.375725752352,0.00019009371452272464
6515.376725524275,0.00019415495395587551
6515.377725296197,0.00019814185347065514
6515.37872506812,0.00020205472740688393
6515.379724840043,0.00020589383720929702
6515.380724611966,0.00020965939297439747
6515.3817243838885,0.00021335155505479019
6515.382724155811,0.00021697043571946548
6515.383723927734,0.00022051610086838762
6515.384723699657,0.00022398857179962902
6515.38572347158,0.0002273878270271819
6515.386723243502,0.00023071380414747792
6515.387723015425,0.00023396640175254353
6515.388722787347,0.00023714548138761393
6515.389722559271,0.00024025086955092585
6515.3907223311935,0.0002432823597333218
6515.391722103116,0.00024623971449523786
6515.392721875039,0.00024912266757862173
6515.393721646961,0.0002519309260513312
6515.394721418885,0.0002546641724815818
6515.395721190807,0.0002573220671400289
6515.39672096273,0.0002599042502270728
6515.3977207346525,0.000262410344122969
6515.398720506575,0.0002648399556583057
6515.399720278498,0.00026719267840238914
6515.400720050421,0.00026946809496703833
6515.401719822344,0.00027166577932324264
6515.402719594266,0.0002737852991280597
6515.403719366189,0.00027582621805903774
6515.404719138111,0.0002777880981533377
6515.405718910035,0.00027967050214861933
6515.4067186819575,0.0002814729958226498
6515.40771845388,0.00028319515032850006
6515.408718225803,0.0002848365445221167
6515.409717997725,0.00028639676727899356
6515.410717769649,0.0002878754197966173
6515.411717541571,0.0002892721178793341
6515.412717313494,0.0002905864942022814
6515.4137170854165,0.0002918182005510603
6515.414716857339,0.0002929669100338879
6515.415716629262,0.00029403231926306017
6515.416716401185,0.00029501415050266417
6515.417716173108,0.0002959121537795856
6515.41871594503,0.0002967261089549539
6515.419715716953,0.0002974558277532568
6515.420715488875,0.00029810115574643707
6515.421715260799,0.0002986619742903718
6515.4227150327215,0.00029913820241123025
6515.423714804644,0.000299529798639319
6515.424714576567,0.00029983676278814807
6515.425714348489,0.00030005913767659255
6515.426714120413,0.00030019701079217215
6515.427713892335,0.0003002505158936221
6515.428713664258,0.00030021983455107403
6515.4297134361805,0.0003001051976223055
6515.430713208103,0.0002999068866636506
6515.431712980026,0.0002996252352743022
6515.432712751949,0.0002992606303728795
6515.433712523872,0.0002988135134052859
6515.434712295794,0.00029828438148303234
6515.435712067717,0.00029767378845135665
6515.436711839639,0.00029698234588660625
6515.437711611563,0.0002962107240224741
6515.4387113834855,0.00029535965260477727
6515.439711155408,0.000294429921674559
6515.440710927331,0.00029342238227938474
6515.441710699253,0.0002923379471127969
6515.442710471177,0.00029117759108199893
6515.443710243099,0.0002899423518039455
6515.444710015022,0.0002886333300301355
6515.4457097869445,0.00028725169000051504
6515.446709558867,0.0002857986597270067
6515.447709330791,0.0002842755312072716
6515.448709102713,0.0002826836605693908
6515.449708874636,0.00028102446814821605
6515.450708646558,0.00027929943849419007
6515.451708418481,0.00027751012031547613
6515.452708190403,0.00027565812635427234
6515.453707962327,0.00027374513319822495
6515.4547077342495,0.0002717728810279132
6515.455707506172,0.0002697431733014577
6515.456707278095,0.00026765787637740817
6515.457707050017,0.00026551891907717994
6515.458706821941,0.00026332829218841345
6515.459706593863,0.0002610880479107241
6515.460706365786,0.0002588002992453801
6515.4617061377085,0.00025646721933050924
6515.462705909631,0.00025409104072348477
6515.4637056815545,0.0002516740546321807
6515.464705453477,0.00024921861009680825
6515.4657052254,0.0002467271131240493
6515.466704997322,0.00024420202577518977
6515.467704769245,0.00024164586520993128
6515.468704541167,0.00023906120268752862
6515.469704313091,0.00023645066252687052
6515.4707040850135,0.00023381692102709793
6515.471703856936,0.0002311627053503271
6515.472703628859,0.00022849079236801845
6515.473703400781,0.00022580400747249828
6515.474703172705,0.00022310522335510606
6515.475702944627,0.0002203973587524075
6515.47670271655,0.00021768337716188447
6515.4777024884725,0.0002149662855284923
6515.478702260395,0.00021224913290346023
6515.479702032319,0.00020953500907669508
6515.480701804241,0.00020682704318412143
6515.481701576164,0.0002041284022912471
6515.482701348086,0.00020144228995417525
6515.483701120009,0.00019877194475919968
6515.484700891931,0.00019612063884201982
6515.485700663855,0.00019349167638751762
6515.4867004357775,0.0001908883921109533
6515.4877002077,0.00018831414972137964
6515.488699979623,0.00018577234036803853
6515.489699751545,0.00018326638107048923
6515.490699523469,0.00018079971313320737
6515.491699295391,0.00017837580054537954
6515.492699067314,0.0001759981283665944
6515.4936988392365,0.0001736702010991018
6515.494698611159,0.00017139554104728005
6515.4956983830825,0.0001691776866649247
6515.496698155005,0.00016702019089094255
6515.497697926928,0.00016492661947400055
6515.49869769885,0.00016290054928663785
6515.499697470773,0.00016094556662930761
6515.500697242696,0.00015906526552477996
6515.501697014619,0.0001572632460033142
6515.5026967865415,0.00015554311237898593
6515.503696558464,0.00015390847151752876
6515.504696330387,0.00015236293109601823
6515.505696102309,0.00015091009785469551
6515.506695874233,0.00014955357584121398
6515.507695646155,0.0001482969646476007
6515.508695418078,0.00014714385764025585
6515.5096951900005,0.00014609784018335944
6515.510694961923,0.0001451624878561086
6515.511694733847,0.00014434136466426486
6515.512694505769,0.00014363802124654318
6515.513694277692,0.00014305599307642047
6515.514694049614,0.00014259879865998913
6515.515693821537,0.0001422699377305345
6515.516693593459,0.00014207288944058044
6515.517693365383,0.0001420111105522275
6515.5186931373055,0.00014208803362669847
6515.519692909228,0.00014230706521410624
6515.520692681151,0.00014267158404456158
6515.521692453073,0.000143184939221841
6515.522692224997,0.0001438504484209337
6515.523691996919,0.00014467139609087925
6515.524691768842,0.0001456510316643959
6515.5256915407645,0.00014679256777588281
6515.526691312687,0.00014809917848945776
6515.5276910846105,0.00014957399753875766
6515.528690856533,0.00015122011658026755
6515.529690628456,0.00015304058346194874
6515.530690400378,0.00015503840050891255
6515.531690172301,0.00015721652282784724
6515.532689944224,0.00015957785663186662
6515.533689716147,0.00016212525758741637
6515.5346894880695,0.00016486152918484526
6515.535689259992,0.00016778942113422306
6515.536689031915,0.00017091162778796242
6515.537688803837,0.00017423078659177814
6515.538688575761,0.00017774947656549835
6515.539688347683,0.00018147021681522434
6515.540688119606,0.00018539546507831485
6515.541687891528,0.0001895276163026382
6515.542687663451,0.0001938690012614884
6515.543687435375,0.00019842188520550317
6515.544687207297,0.0002031884665528615
6515.54568697922,0.00020817087561898195
6515.546686751142,0.00021337117338689874
6515.547686523065,0.00021879135031945473
6515.548686294988,0.00022443332521441696
6515.549686066911,0.0002302989441035906
6515.5506858388335,0.00023638997919697935
6515.551685610756,0.00024270812787301863
6515.552685382679,0.0002492550117158955
6515.553685154601,0.00025603217560096487
6515.554684926525,0.0002630410868292686
6515.555684698447,0.0002702831343121448
6515.55668447037,0.0002777596278068693
6515.557684242292,0.0002854717972041826
6515.558684014215,0.0002934207918684346
6515.5596837861385,0.0003016076800309196
6515.560683558061,0.00031003344823679
6515.561683329984,0.0003186990008457381
6515.562683101906,0.00032760515958642303
6515.563682873829,0.00033675266316441575
6515.564682645752,0.00034614216692324294
6515.565682417675,0.0003557742425579333
6515.5666821895975,0.000365649377880311
6515.56768196152,0.0003757679766351401
6515.568681733443,0.0003861303583660965
6515.569681505365,0.0003967367583304252
6515.570681277289,0.0004075873274610396
6515.571681049211,0.00041868213237473175
6515.572680821134,0.00043002115542510215
6515.573680593056,0.0004416042947987839
6515.574680364979,0.00045343136465353004
6515.575680136903,0.00046550209529674593
6515.576679908825,0.00047781613340308886
6515.577679680748,0.0004903730422698201
6515.57867945267,0.0005031723021086929
6515.579679224593,0.0005162133103732845
6515.580678996516,0.0005294953821208223
6515.581678768439,0.0005430177504076987
6515.5826785403615,0.000556779566718011
6515.583678312284,0.0005707799014245901
6515.584678084207,0.0005850177442820966
6515.58567785613,0.0005994920049518706
6515.586677628053,0.0006142015135582997
6515.587677399975,0.0006291450212765277
6515.588677171898,0.0006443212009513445
6515.58967694382,0.0006597286477470926
6515.590676715743,0.0006753658798283796
6515.5916764876665,0.0006912313390713183
6515.592676259589,0.0007073233918049327
6515.593676031512,0.0007236403295822946
6515.594675803434,0.0007401803699808945
6515.595675575357,0.0007569416574317179
6515.59667534728,0.000773922264076477
6515.597675119203,0.0007911201906524206
6515.5986748911255,0.0008085333674041133
6515.599674663048,0.000826159655021521
6515.600674434971,0.000843996845603688
6515.601674206893,0.000862042663647236
6515.602673978817,0.0008802947670588843
6515.603673750739,0.0008987507481911786
6515.604673522662,0.0009174081349006386
6515.605673294584,0.0009362643916275762
6515.606673066507,0.0009553169204969016
6515.607672838431,0.0009745630624392978
6515.608672610353,0.0009940000983322157
6515.609672382276,0.0010136252501602046
6515.610672154198,0.0010334356821941678
6515.611671926121,0.0010534285021892094
6515.612671698044,0.0010736007626007903
6515.613671469967,0.0010939494618189614
6515.6146712418895,0.0011144715454204533
6515.615671013812,0.0011351639074383836
6515.616670785735,0.0011560233916493017
6515.617670557658,0.001177046792877223
6515.618670329581,0.0011982308583142307
6515.619670101503,0.0012195722888571339
6515.620669873426,0.0012410677404595847
6515.621669645348,0.0012627138254989543
6515.622669417271,0.00128450711415717
6515.6236691891945,0.0013064441358146112
6515.624668961117,0.0013285213804560608
6515.62566873304,0.0013507353000876139
6515.626668504962,0.0013730823101633385
6515.627668276885,0.0013955587910203884
6515.628668048808,0.0014181610893211568
6515.629667820731,0.0014408855195009848
6515.6306675926535,0.001463728365219866
6515.631667364576,0.0014866858808165544
6515.632667136499,0.0015097542927634785
6515.633666908422,0.0015329298011208714
6515.634666680345,0.0015562085809885785
6515.635666452267,0.0015795867839540339
6515.63666622419,0.0016030605395349633
6515.637665996112,0.0016266259566154334
6515.638665768036,0.0016502791248739252
6515.639665539959,0.0016740161162021796
6515.640665311881,0.0016978329861136265
6515.641665083804,0.001721725775140266
6515.642664855726,0.001745690510216926
6515.643664627649,0.001769723206051886
6515.644664399572,0.0017938198664828866
6515.645664171495,0.001817976485817607
6515.6466639434175,0.0018421890501577154
6515.64766371534,0.0018664535387056449
6515.648663487263,0.0018907659250532796
6515.649663259186,0.0019151221784517772
6515.650663031109,0.0019395182650617728
6515.651662803031,0.001963950149183223
6515.652662574954,0.00198841379446415
6515.653662346876,0.002012905165087539
6515.654662118799,0.0020374202269356424
6515.6556618907225,0.002061954948730928
6515.656661662645,0.0020865053031529136
6515.657661434568,0.0021110672679301398
6515.65866120649,0.002135636826906529
6515.659660978413,0.0021602099710813973
6515.660660750336,0.0021847826996224183
6515.661660522259,0.0022093510208508844
6515.6626602941815,0.0022339109531986636
6515.663660066104,0.002258458526136319
6515.664659838027,0.002282989781071918
6515.66565960995,0.0023075007722201018
6515.666659381873,0.002331987567441033
6515.667659153795,0.002356446249048877
6515.668658925718,0.0023808729145894983
6515.66965869764,0.002405263677587085
6515.670658469564,0.002429614668259399
6515.671658241487,0.002453922034201387
6515.672658013409,0.0024781819410368633
6515.673657785332,0.002502390573038023
6515.674657557254,0.0025265441337125757
6515.675657329177,0.0025506388463583706
6515.6766571011,0.002574670954585458
6515.677656873023,0.002598636722805609
6515.6786566449455,0.002622532436689382
6515.679656416868,0.002646354403590886
6515.680656188791,0.0026700989529404376
6515.681655960714,0.0026937624366053705
6515.682655732637,0.0027173412292192858
6515.683655504559,0.0027408317284800623
6515.684655276482,0.002764230355416956
6515.685655048404,0.0027875335546271468
6515.686654820328,0.0028107377944820945
6515.6876545922505,0.0028338395673041224
6515.688654364173,0.002856835389513665
6515.689654136096,0.002879721801747687
6515.690653908018,0.0029024953689498353
6515.691653679941,0.002925152680432939
6515.692653451864,0.0029476903499145325
6515.693653223787,0.002970105015526097
6515.6946529957095,0.002992393339796759
6515.695652767632,0.0030145520096121784
6515.696652539555,0.003036577736149393
6515.697652311478,0.003058467254788392
6515.698652083401,0.00308021732500117
6515.699651855323,0.00310182473021904
6515.700651627246,0.0031232862776789327
6515.701651399168,0.003144598798249434
6515.702651171092,0.003165759146237289
6515.703650943015,0.0031867641991751073
6515.704650714937,0.0032076108575910217
6515.70565048686,0.0032282960447610185
6515.706650258782,0.003248816706444709
6515.707650030705,0.0032691698106053365
6515.708649802628,0.0032893523471148544
6515.709649574551,0.003309361327444973
6515.7106493464735,0.003329193784345119
6515.711649118396,0.003348846771508293
6515.712648890319,0.0033683173632258214
6515.713648662242,0.0033876026540320117
6515.714648434165,0.003406699758339679
6515.715648206087,0.003425605810067472
6515.71664797801,0.003444317962259866
6515.717647749932,0.003462833386700639
6515.718647521856,0.003481149273520568
6515.7196472937785,0.0034992628308000316
6515.720647065701,0.0035171712841671264
6515.721646837624,0.003534871876391865
6515.722646609546,0.0035523618669769733
6515.72364638147,0.0035696385317457694
6515.724646153392,0.0035866991624275875
6515.725645925315,0.0036035410662411797
6515.7266456972375,0.0036201615654765174
6515.72764546916,0.0036365579970753814
6515.728645241083,0.0036527277122111105
6515.729645013006,0.003668668075867851
6515.730644784929,0.0036843764664196547
6515.731644556851,0.003699850275209768
6515.732644328774,0.003715086906130449
6515.733644100696,0.0037300837752036737
6515.73464387262,0.003744838310163046
6515.735643644543,0.003759347950037212
6515.736643416465,0.0037736101447350444
6515.737643188388,0.0037876223546328765
6515.73864296031,0.0038013820501640464
6515.739642732233,0.003814886711411049
6515.740642504156,0.0038281338277006143
6515.741642276079,0.003841120897202054
6515.7426420480015,0.0038538454265292623
6515.743641819924,0.003866304930346755
6515.744641591847,0.003878496930980153
6515.74564136377,0.003890418958031532
6515.746641135693,0.0039020685480000367
6515.747640907615,0.003913443243908155
6515.748640679538,0.003924540594934033
6515.74964045146,0.0039353581560502265
6515.750640223384,0.003945893487669282
6515.7516399953065,0.003956144155296592
6515.752639767229,0.0039661077291909775
6515.753639539152,0.003975781784033545
6515.754639311074,0.00398516389860539
6515.755639082998,0.003994251655474774
6515.75663885492,0.004003042640694448
6515.757638626843,0.004011534443509816
6515.7586383987655,0.004019724656078673
6515.759638170688,0.004027610873203203
6515.760637942611,0.004035190692074992
6515.761637714534,0.004042461712033739
6515.762637486457,0.004049421534340405
6515.763637258379,0.004056067761965486
6515.764637030302,0.004062397999393119
6515.765636802224,0.004068409852441724
6515.766636574148,0.004074100928101851
6515.767636346071,0.0040794688343919385
6515.768636117993,0.00408451118023268
6515.769635889916,0.004089225575340706
6515.770635661838,0.004093609630142302
6515.771635433762,0.004097660955707912
6515.772635205684,0.004101377163708167
6515.773634977607,0.004104755866392225
6515.7746347495295,0.004107794676589191
6515.775634521452,0.00411049120773338
6515.776634293375,0.004112843073914175
6515.777634065298,0.004114847889951156
6515.778633837221,0.004116503271495156
6515.779633609143,0.004117806835155838
6515.780633381066,0.004118756198656333
6515.781633152988,0.004119348981015421
6515.782632924912,0.004119582802757694
6515.7836326968345,0.004119455286152109
6515.784632468757,0.004118964055479255
6515.78563224068,0.004118106737327606
6515.786632012602,0.004116880960918936
6515.787631784526,0.00411528435846301
6515.788631556448,0.004113314565541557
6515.789631328371,0.004110969221521479
6515.7906311002935,0.004108245969997172
6515.791630872216,0.004105142459261811
6515.792630644139,0.004101656342807389
6515.793630416062,0.004097785279853313
6515.794630187985,0.004093526935903282
6515.795629959907,0.004088878983330182
6515.79662973183,0.004083839101988672
6515.797629503752,0.004078404979855196
6515.798629275676,0.004072574313695132
6515.799629047599,0.0040663448097568505
6515.800628819521,0.004059714184492461
6515.801628591444,0.0040526801653050434
6515.802628363366,0.00404524049132214
6515.80362813529,0.004037392914195336
6515.804627907212,0.00402913519892572
6515.805627679135,0.0040204651247151045
6515.8066274510575,0.004011380485842863
6515.80762722298,0.004001879092568309
6515.808626994904,0.00399195877205851
6515.809626766826,0.003981617369341407
6515.810626538749,0.003970852748284071
6515.811626310671,0.003959662792595901
6515.812626082594,0.003948045406856478
6515.813625854516,0.003935998517567781
6515.81462562644,0.003923520074230408
6515.8156253983625,0.0039106080504434345
6515.816625170285,0.0038972604450274815
6515.817624942208,0.003883475283170574
6515.81862471413,0.0038692506175962973
6515.819624486054,0.003854584529753734
6515.820624257976,0.0038394751310286287
6515.821624029899,0.003823920563975181
6515.8226238018215,0.0038079190035678312
6515.823623573744,0.003791468658472394
6515.824623345668,0.0037745677723358467
6515.82562311759,0.003757214625094105
6515.826622889513,0.0037394075342970876
6515.827622661435,0.0037211448564503785
6515.828622433358,0.0037024249883727857
6515.82962220528,0.003683246368569076
6515.830621977204,0.003663607478617142
6515.831621749127,0.003643506844568877
6515.832621521049,0.0036229430383640285
6515.833621292972,0.003601914679256347
6515.834621064894,0.003580420435251373
6515.835620836818,0.0035584590245552592
6515.83662060874,0.0035360292170340344
6515.837620380663,0.003513129835682773
6515.8386201525855,0.003489759758104139
6515.839619924508,0.003465917917995808
6515.840619696432,0.003441603306646279
6515.841619468354,0.003416814974438601
6515.842619240277,0.0033915520323615474
6515.843619012199,0.0033658136535277485
6515.844618784122,0.0033395990746982866
6515.845618556044,0.0033129075978131986
6515.846618327968,0.0032857385915272953
6515.8476180998905,0.0032580914927506383
6515.848617871813,0.0032299658081929544
6515.849617643736,0.003201361115911197
6515.850617415658,0.003172277066859411
6515.851617187582,0.003142713386439975
6515.852616959504,0.003112669876055261
6515.853616731427,0.003082146414658685
6515.8546165033495,0.003051142960304098
6515.855616275272,0.0030196595516924366
6515.856616047196,0.0029876963097145385
6515.857615819118,0.0029552534389890197
6515.858615591041,0.002922331229394114
6515.859615362963,0.0028889300575923923
6515.860615134886,0.0028550503885473085
6515.861614906809,0.002820692777030569
6515.862614678732,0.002785857869119358
6515.863614450655,0.0027505464036825062
6515.864614222577,0.0027147592138547197
6515.8656139945,0.002678497228498025
6515.866613766422,0.0026417614736495786
6515.867613538346,0.002604553073955047
6515.868613310268,0.0025668732540867593
6515.869613082191,0.0025287233401458976
6515.8706128541135,0.0024901047610480136
6515.871612626036,0.0024510190498912153
6515.87261239796,0.0024114678453063753
6515.873612169882,0.002371452892788738
6515.874611941805,0.0023309760460102917
6515.875611713727,0.0022900392681122644
6515.87661148565,0.002248644632977079
6515.877611257572,0.002206794326479103
6515.878611029496,0.0021644906477134977
6515.8796108014185,0.002121736010202452
6515.880610573341,0.002078532943078071
6515.881610345264,0.0020348840922411295
6515.882610117186,0.0019907922214948744
6515.88360988911,0.0019462602136529983
6515.884609661032,0.0019012910716208744
6515.885609432955,0.001855887919449105
6515.8866092048775,0.0018100540033584342
6515.8876089768,0.001763792692735081
6515.888608748724,0.001717107481095567
6515.889608520646,0.0016700019870201294
6515.890608292569,0.0016224799550538368
6515.891608064491,0.0015745452565745397
6515.892607836414,0.0015262018906268232
6515.893607608337,0.0014774539847211552
6515.89460738026,0.0014283057955974798
6515.895607152183,0.0013787617099525508
6515.896606924105,0.001328826245130373
6515.897606696028,0.001278504049775174
6515.89860646795,0.0012277999044463862
6515.899606239874,0.0011767187221951604
6515.900606011796,0.0011252655491019844
6515.901605783719,0.0010734455647750324
6515.9026055556415,0.0010212640828089173
6515.903605327564,0.0009687265512035499
6515.904605099488,0.000915838552742823
6515.90560487141,0.0008626058053328234
6515.906604643333,0.0008090341622992213
6515.907604415255,0.0007551296126434339
6515.908604187178,0.0007008982812570923
6515.909603959101,0.0006463464290942676
6515.910603731024,0.0005914804533008585
6515.9116035029465,0.0005363068873004776
6515.912603274869,0.000480832400836126
6515.913603046792,0.0004250637999668953
6515.914602818714,0.00036900802701890213
6515.915602590638,0.0003126721604896137
6515.91660236256,0.0002560634149046853
6515.917602134483,0.00019918914062637164
6515.9186019064055,0.00014205682361249686
6515.919601678328,8.46740851248751e-05
6515.920601450252,2.7048681385959313e-05
6515.921601222174,-3.081149681761808e-05
6515.922600994097,-8.889842458605243e-05
6515.923600766019,-0.00014720394341344713
6515.924600537942,-0.00020571976175255428
6515.925600309865,-0.000264437455638804
6515.926600081788,-0.0003233484693752681
6515.927599853711,-0.00038244411628020396
6515.928599625633,-0.0004417155794988123
6515.929599397556,-0.0005011539128808254
6515.930599169478,-0.000560750041925524
6515.931598941402,-0.0006204947647957729
6515.932598713324,-0.0006803787534026652
6515.933598485247,-0.0007403925545623803
6515.9345982571695,-0.0008005265912268874
6515.935598029092,-0.0008607711637901423
6515.936597801016,-0.0009211164514714462
6515.937597572938,-0.0009815525137776293
6515.938597344861,-0.0010420692920457104
6515.939597116783,-0.001102656611067649
6515.940596888706,-0.0011633041807987555
6515.941596660629,-0.001224001598151255
6515.942596432552,-0.0012847383488744264
6515.9435962044745,-0.00134550380952265
6515.944595976397,-0.0014062872495126135
6515.94559574832,-0.0014670778332708419
6515.946595520243,-0.001527864622472624
6515.947595292166,-0.0015886365783733271
6515.948595064088,-0.0016493825642329998
6515.949594836011,-0.0017100913478350817
6515.950594607933,-0.001770751604099949
6515.951594379856,-0.0018313519177939497
6515.95259415178,-0.0018918807863345013
6515.953593923702,-0.0019523266226917535
6515.954593695625,-0.0020126777583872545
6515.955593467547,-0.002072922446589989
6515.95659323947,-0.0021330488653100842
6515.957593011393,-0.002193045120690377
6515.958592783316,-0.0022528992503959232
6515.959592555239,-0.0023125992271013926
6515.960592327161,-0.002372132962076172
6515.961592099084,-0.002431488308866869
6515.962591871006,-0.002490653067076788
6515.96359164293,-0.0025496149862418234
6515.964591414852,-0.0026083617698021127
6515.965591186775,-0.002666881079168683
6515.966590958697,-0.002725160537884214
6515.96759073062,-0.00278318773587693
6515.968590502544,-0.002840950233806529
6515.969590274466,-0.002898435567500928
6515.970590046389,-0.0029556312524825004
6515.971589818311,-0.0030125247885823365
6515.972589590234,-0.0030691036646409674
6515.973589362157,-0.0031253553632938883
6515.97458913408,-0.0031812673658401383
6515.9755889060025,-0.003236827157192094
6515.976588677925,-0.0032920222309045805
6515.977588449848,-0.0033468400942813434
6515.978588221771,-0.0034012682735568727
6515.979587993694,-0.0034552943191515175
6515.980587765616,-0.003508905810997765
6515.981587537539,-0.0035620903639355327
6515.982587309461,-0.0036148356331742325
6515.983587081384,-0.0036671293198193154
6515.984586853308,-0.0037189591764608906
6515.98558662523,-0.0037703130128219175
6515.986586397153,-0.003821178701463343
6515.987586169075,-0.0038715441835434124
6515.988585940998,-0.003921397474628267
6515.989585712921,-0.0039707266705507754
6515.990585484844,-0.004019519953314419
6515.991585256767,-0.004067765597038895
6515.992585028689,-0.004115451973943971
6515.993584800612,-0.004162567560368024
6515.994584572535,-0.004209100942817642
6515.995584344458,-0.004255040824044521
6515.99658411638,-0.004300376029145894
6515.997583888303,-0.004345095511684591
6515.998583660225,-0.004389188359824754
6515.999583432149,-0.0044326438024791266
6516.000583204072,-0.004475451215463755
6516.001582975994,-0.00451760012765582
6516.002582747917,-0.004559080227150218
6516.003582519839,-0.0045998813674104164
6516.004582291762,-0.004639993573408995
6516.005582063685,-0.0046794070477531894
6516.006581835608,-0.004718112176790656
6516.0075816075305,-0.0047560995366906075
6516.008581379453,-0.004793359899495392
6516.009581151376,-0.004829884239137566
6516.010580923299,-0.004865663737417495
6516.011580695222,-0.004900689789936487
6516.012580467144,-0.004934954011980454
6516.013580239067,-0.004968448244349069
6516.014580010989,-0.00500116455912532
6516.015579782912,-0.00503309526538033
6516.016579554836,-0.005064232914808227
6516.017579326758,-0.005094570307285769
6516.018579098681,-0.0051241004963514195
6516.019578870603,-0.005152816794598408
6516.020578642526,-0.005180712778976326
6516.021578414449,-0.0052077822959956535
6516.022578186372,-0.005234019466829556
6516.023577958295,-0.005259418692307141
6516.024577730217,-0.005283974657792292
6516.02557750214,-0.005307682337942076
6516.026577274063,-0.005330537001338657
6516.027577045986,-0.005352534214988581
6516.028576817908,-0.005373669848683228
6516.029576589831,-0.005393940079214174
6516.030576361753,-0.005413341394437112
6516.031576133677,-0.0054318705971779825
6516.0325759056,-0.005449524808974889
6516.033575677522,-0.005466301473649362
6516.034575449445,-0.005482198360700498
6516.035575221367,-0.0054972135685154855
6516.03657499329,-0.005511345527389995
6516.037574765213,-0.005524593002351904
6516.038574537136,-0.005536955095781764
6516.0395743090585,-0.005548431249823403
6516.040574080981,-0.005559021248578012
6516.041573852904,-0.005568725220075065
6516.042573624827,-0.0055775436380133174
6516.04357339675,-0.0055854773232651795
6516.044573168672,-0.00559252744513768
6516.045572940595,-0.005598695522383238
6516.046572712517,-0.005603983423953475
6516.047572484441,-0.005608393369489352
