Time,Filtered_ECG
6481.006177260308,-0.03162947321489288
6481.007177032523,-0.031865337213324095
6481.0081768047385,-0.032098234337039754
6481.009176576954,-0.03232805436864298
6481.010176349169,-0.0325546866834468
6481.011176121385,-0.0327780202805369
6481.012175893599,-0.03299794381429539
6481.013175665815,-0.03321434562637773
6481.01417543803,-0.03342711377813478
6481.015175210246,-0.033636136083472025
6481.016174982461,-0.03384130014213775
6481.017174754676,-0.034042493373432126
6481.018174526891,-0.034239603050329026
6481.019174299106,-0.03443251633400246
6481.020174071322,-0.03462112030874938
6481.021173843537,-0.034805302017300435
6481.022173615753,-0.03498494849651044
6481.023173387967,-0.03515994681341991
6481.024173160183,-0.03533018410167905
6481.025172932398,-0.03549554759832518
6481.026172704614,-0.035655924680904685
6481.027172476829,-0.035811202904929805
6481.028172249044,-0.03596127004166067
6481.029172021259,-0.03610601411620226
6481.030171793474,-0.03624532344590552
6481.03117156569,-0.036379086679061534
6481.032171337905,-0.03650719283387722
6481.033171110121,-0.03662953133772057
6481.034170882335,-0.03674599206662349
6481.035170654551,-0.03685646538503005
6481.036170426766,-0.036960842185777804
6481.037170198982,-0.03705901393029997
6481.038169971197,-0.037150872689035934
6481.039169743412,-0.03723631118203796
6481.040169515627,-0.03731522281976146
6481.041169287842,-0.03738750174402651
6481.042169060058,-0.037453042869138135
6481.043168832273,-0.03751174192315266
6481.044168604488,-0.03756349548927747
6481.045168376703,-0.037608201047391106
6481.046168148919,-0.03764575701567038
6481.047167921134,-0.03767606279231085
6481.04816769335,-0.03769901879732665
6481.049167465565,-0.037714526514414884
6481.05016723778,-0.037722488532869566
6481.051167009995,-0.03772280858952926
6481.05216678221,-0.03771539161074235
6481.053166554426,-0.03770014375433332
6481.054166326641,-0.03767697245155322
6481.055166098856,-0.0376457864489973
6481.056165871071,-0.03760649585047271
6481.057165643287,-0.037559012158799004
6481.058165415502,-0.037503248317524135
6481.059165187718,-0.037439118752538414
6481.060164959932,-0.037366539413568836
6481.061164732148,-0.037285427815535864
6481.062164504363,-0.037195703079754595
6481.063164276578,-0.0370972859749621
6481.064164048794,-0.03699009895815224
6481.065163821009,-0.03687406621519926
6481.066163593224,-0.036749113701251036
6481.067163365439,-0.03661516918087273
6481.068163137655,-0.03647216226792123
6481.06916290987,-0.03632002446513046
6481.0701626820855,-0.03615868920338752
6481.0711624543,-0.03598809188067913
6481.072162226516,-0.03580816990068783
6481.073161998731,-0.0356188627110174
6481.074161770946,-0.035420111841026614
6481.075161543162,-0.035211860939251056
6481.076161315377,-0.03499405581039262
6481.077161087592,-0.034766644451856676
6481.078160859807,-0.034529577089817236
6481.079160632023,-0.034282806214790656
6481.080160404238,-0.03402628661669893
6481.0811601764535,-0.03375997541940373
6481.082159948668,-0.03348383211469274
6481.083159720884,-0.03319781859570027
6481.084159493099,-0.03290189918974419
6481.085159265314,-0.032596040690561656
6481.08615903753,-0.032280212389926365
6481.087158809745,-0.03195438610863027
6481.08815858196,-0.03161853622681286
6481.089158354175,-0.03127263971362119
6481.090158126391,-0.030916676156183986
6481.091157898606,-0.03055062778788331
6481.0921576708215,-0.03017447951590696
6481.093157443036,-0.029788218948065437
6481.094157215252,-0.02939183641885723
6481.095156987467,-0.028985325014766517
6481.096156759682,-0.028568680598777704
6481.097156531898,-0.028141901834091723
6481.098156304113,-0.027704990207029344
6481.099156076328,-0.02725795004910728
6481.100155848543,-0.026800788558273284
6481.101155620759,-0.02633351581928699
6481.102155392974,-0.025856144823233583
6481.1031551651895,-0.025368691486157866
6481.104154937404,-0.024871174666806783
6481.10515470962,-0.02436361618346883
6481.106154481835,-0.023846040829899214
6481.10715425405,-0.023318476390319885
6481.108154026266,-0.02278095365348381
6481.10915379848,-0.022233506425793033
6481.110153570696,-0.021676171543460333
6481.111153342911,-0.021108988883704313
6481.112153115127,-0.020532001374967936
6481.113152887342,-0.019945255006150752
6481.1141526595575,-0.019348798834845384
6481.115152431772,-0.018742684994569103
6481.116152203987,-0.018126968700981693
6481.117151976203,-0.01750170825708123
6481.118151748418,-0.016866965057369662
6481.119151520634,-0.016222803590980453
6481.120151292848,-0.015569291443760847
6481.121151065064,-0.014906499299301507
6481.122150837279,-0.014234500938906504
6481.123150609495,-0.013553373240496734
6481.12415038171,-0.012863196176440063
6481.1251501539255,-0.012164052810301583
6481.12614992614,-0.011456029292507657
6481.127149698355,-0.01073921485491766
6481.128149470571,-0.010013701804297616
6481.129149242786,-0.009279585514690209
6481.130149015002,-0.008536964418675928
6481.131148787216,-0.0077859399975204885
6481.132148559432,-0.007026616770203906
6481.133148331647,-0.006259102281327154
6481.134148103863,-0.0054835070878927385
6481.135147876078,-0.004699944744956147
6481.1361476482925,-0.00390853179014581
6481.137147420508,-0.0031093877270499007
6481.138147192723,-0.002302635007469034
6481.139146964939,-0.0014883990125346327
6481.140146737154,-0.0006668080326934339
6481.14114650937,0.00016200675344075038
6481.142146281584,0.000997911301366261
6481.1431460538,0.0018407687241014513
6481.144145826015,0.0026904393167182404
6481.145145598231,0.0035467805819978334
6481.146145370446,0.004409647257204525
6481.1471451426605,0.0052788913419729525
6481.148144914876,0.006154362127303703
6481.149144687091,0.007035906225661755
6481.150144459307,0.007923367602171879
6481.151144231522,0.00881658760690481
6481.152144003738,0.009715405008247637
6481.153143775952,0.010619656027351477
6481.154143548168,0.011529174373649068
6481.155143320383,0.012443791281434354
6481.156143092599,0.013363335547495546
6481.157142864814,0.014287633569792554
6481.1581426370285,0.015216509387169007
6481.159142409244,0.016149784720088444
6481.160142181459,0.01708727901238381
6481.161141953675,0.018028809474008728
6481.16214172589,0.018974191124778602
6481.163141498106,0.019923236839089108
6481.16414127032,0.020875757391599158
6481.165141042536,0.02183156150386496
6481.166140814751,0.022790455891911397
6481.167140586967,0.023752245314726562
6481.168140359182,0.024716732623665
6481.1691401313965,0.025683718812745053
6481.170139903612,0.026653003069825577
6481.171139675827,0.02762438282864705
6481.172139448043,0.028597653821721924
6481.173139220258,0.029572610134058798
6481.174138992473,0.03054904425770466
6481.175138764688,0.03152674714708893
6481.176138536904,0.03250550827515258
6481.177138309119,0.03348511569024484
6481.178138081335,0.03446535607376961
6481.17913785355,0.03544601479856272
6481.1801376257645,0.03642687598798117
6481.18113739798,0.0374077225756845
6481.182137170195,0.03838833636608852
6481.183136942411,0.03936849809547105
6481.184136714626,0.04034798749370923
6481.185136486841,0.041326583346627754
6481.186136259056,0.04230406355893713
6481.187136031272,0.043280205217740925
6481.188135803487,0.04425478465659094
6481.189135575703,0.04522757752006922
6481.190135347918,0.046198358828875824
6481.1911351201325,0.04716690304540126
6481.192134892348,0.04813298413976255
6481.193134664563,0.04909637565628154
6481.194134436779,0.05005685078038406
6481.195134208994,0.05101418240589821
6481.196133981209,0.05196814320272948
6481.197133753424,0.05291850568489046
6481.19813352564,0.0538650422788621
6481.199133297855,0.054807525392263606
6481.200133070071,0.05574572748280768
6481.201132842285,0.05667942112751762
6481.2021326145,0.05760837909218258
6481.203132386716,0.058532374401027
6481.204132158931,0.05945118040657024
6481.205131931147,0.060364570859652016
6481.206131703362,0.06127231997959917
6481.207131475577,0.06217420252450897
6481.208131247792,0.06306999386162407
6481.209131020008,0.06395947003777433
6481.210130792223,0.06484240784986063
6481.211130564439,0.06571858491535582
6481.212130336653,0.0665877797427979
6481.213130108868,0.06744977180225072
6481.214129881084,0.06830434159570682
6481.215129653299,0.0691512707274075
6481.216129425515,0.06999034197405382
6481.21712919773,0.07082133935488329
6481.218128969945,0.07164404820158518
6481.21912874216,0.0724582552280281
6481.220128514376,0.07326374859977251
6481.221128286591,0.07406031800334134
6481.222128058806,0.07484775471522086
6481.223127831021,0.07562585167056475
6481.224127603236,0.07639440353157362
6481.225127375452,0.07715320675552284
6481.226127147667,0.0779020596624112
6481.227126919883,0.07864076250220335
6481.228126692098,0.07936911752163922
6481.229126464313,0.08008692903058387
6481.230126236528,0.0807940034678913
6481.231126008744,0.08149014946675659
6481.232125780959,0.0821751779195306
6481.233125553174,0.08284890204197172
6481.234125325389,0.08351113743690917
6481.235125097604,0.08416170215729273
6481.23612486982,0.08480041676860277
6481.237124642035,0.08542710441059538
6481.238124414251,0.08604159085835586
6481.239124186465,0.08664370458263466
6481.240123958681,0.08723327680943929
6481.241123730896,0.08781014157885517
6481.242123503112,0.08837413580306924
6481.243123275327,0.08892509932356957
6481.244123047542,0.08946287496749435
6481.245122819757,0.08998730860310436
6481.246122591972,0.0904982491943527
6481.247122364188,0.09099554885452626
6481.248122136403,0.09147906289893362
6481.249121908619,0.09194864989661466
6481.250121680833,0.0924041717210478
6481.251121453049,0.09284549359983048
6481.252121225264,0.09327248416331002
6481.25312099748,0.0936850154921415
6481.254120769695,0.0940829631637497
6481.25512054191,0.09446620629767256
6481.256120314125,0.09483462759976347
6481.25712008634,0.09518811340522973
6481.258119858556,0.09552655372048502
6481.259119630771,0.09584984226379338
6481.260119402987,0.09615787650468258
6481.261119175201,0.09645055770210487
6481.262118947417,0.09672779094132375
6481.263118719632,0.09698948516950565
6481.264118491848,0.09723555322999584
6481.265118264063,0.097465911895259
6481.2661180362775,0.09768048189846507
6481.267117808493,0.09787918796370215
6481.268117580708,0.09806195883479872
6481.269117352924,0.09822872730273868
6481.270117125139,0.09837943023165337
6481.271116897355,0.09851400858337529
6481.272116669569,0.09863240744053953
6481.273116441785,0.09873457602821874
6481.274116214,0.09882046773407893
6481.275115986216,0.09889004012704315
6481.276115758431,0.0989432549744506
6481.2771155306455,0.09898007825769926
6481.278115302861,0.09900048018636048
6481.279115075076,0.0990044352107544
6481.280114847292,0.09899192203297584
6481.281114619507,0.09896292361636087
6481.282114391723,0.09891742719338427
6481.283114163937,0.09885542427197985
6481.284113936153,0.09877691064027584
6481.285113708368,0.09868188636973858
6481.286113480584,0.09857035581671915
6481.287113252799,0.0984423276223983
6481.288113025013,0.09829781471112653
6481.289112797229,0.09813683428715744
6481.290112569444,0.09795940782977382
6481.29111234166,0.0977655610868073
6481.292112113875,0.09755532406655366
6481.293111886091,0.0973287310280869
6481.294111658305,0.0970858204699764
6481.295111430521,0.09682663511741232
6481.296111202736,0.09655122190774551
6481.297110974952,0.09625963197444855
6481.298110747167,0.09595192062950605
6481.299110519381,0.0956281473442424
6481.300110291597,0.09528837572859626
6481.301110063812,0.09493267350885215
6481.302109836028,0.09456111250383976
6481.303109608243,0.09417376859961327
6481.304109380458,0.09377072172262305
6481.305109152673,0.09335205581139389
6481.306108924889,0.09291785878672386
6481.307108697104,0.09246822252042042
6481.308108469319,0.0920032428025901
6481.309108241535,0.09152301930750018
6481.310108013749,0.09102765555803158
6481.311107785965,0.09051725888874385
6481.31210755818,0.08999194040757341
6481.313107330396,0.08945181495618844
6481.314107102611,0.08889700106902358
6481.315106874826,0.0883276209310196
6481.316106647041,0.08774380033409303
6481.317106419257,0.08714566863236169
6481.318106191472,0.08653335869615303
6481.319105963687,0.0859070068648221
6481.320105735903,0.0852667528984069
6481.321105508117,0.08461273992814956
6481.322105280333,0.08394511440591217
6481.323105052548,0.08326402605251666
6481.324104824764,0.08256962780503903
6481.325104596979,0.08186207576308849
6481.326104369194,0.0811415291341028
6481.327104141409,0.0804081501776917
6481.328103913625,0.07966210414906098
6481.32910368584,0.07890355924155057
6481.330103458055,0.07813268652832071
6481.33110323027,0.07734965990322062
6481.332103002485,0.07655465602087543
6481.333102774701,0.07574785423602719
6481.334102546916,0.07492943654216644
6481.335102319132,0.07409958750949122
6481.336102091347,0.07325849422223037
6481.337101863562,0.07240634621536828
6481.338101635777,0.07154333541080862
6481.3391014079925,0.07066965605301394
6481.340101180208,0.06978550464415866
6481.341100952423,0.06889107987883294
6481.342100724638,0.06798658257833445
6481.343100496853,0.06707221562458557
6481.344100269069,0.06614818389371324
6481.345100041284,0.06521469418932849
6481.3460998135,0.06427195517554263
6481.347099585715,0.06332017730975738
6481.34809935793,0.06235957277526555
6481.349099130145,0.06139035541369923
6481.3500989023605,0.06041274065736242
6481.351098674576,0.05942694546148441
6481.352098446791,0.05843318823643012
6481.353098219006,0.05743168877990349
6481.354097991221,0.056422668209178684
6481.355097763437,0.055406348893394006
6481.356097535652,0.054382954385942116
6481.357097307868,0.05335270935698955
6481.358097080083,0.052315839526157544
6481.359096852298,0.051272571595395396
6481.360096624513,0.05022313318207627
6481.3610963967285,0.04916775275234473
6481.362096168944,0.04810665955474419
6481.363095941159,0.047040083554151395
6481.364095713374,0.045968255366044306
6481.365095485589,0.04489140619112867
6481.366095257805,0.04380976775034757
6481.36709503002,0.04272357222029782
6481.368094802236,0.04163305216907597
6481.36909457445,0.04053844049257616
6481.370094346666,0.03943997035126167
6481.371094118881,0.038337875107431085
6481.3720938910965,0.03723238826299953
6481.373093663312,0.03612374339781461
6481.374093435527,0.035012174108526056
6481.375093207742,0.033897913948027006
6481.376092979957,0.03278119636548398
6481.377092752173,0.03166225464697165
6481.378092524388,0.030541321856727397
6481.379092296604,0.029418630779039705
6481.380092068818,0.028294413860783407
6481.381091841034,0.027168903154613917
6481.382091613249,0.02604233026283167
6481.3830913854645,0.02491492628192709
6481.38409115768,0.0237869217478155
6481.385090929895,0.02265854658177059
6481.38609070211,0.021530030037064076
6481.387090474325,0.020401600646318588
6481.388090246541,0.019273486169580006
6481.389090018756,0.018145913543114952
6481.390089790972,0.01701910882893861
6481.391089563186,0.015893297165077546
6481.392089335402,0.014768702716571653
6481.393089107617,0.013645548627218762
6481.394088879832,0.012524056972064844
6481.395088652048,0.011404448710641954
6481.396088424262,0.010286943640955415
6481.397088196478,0.00917176035422088
6481.398087968693,0.008059116190351144
6481.399087740909,0.006949227194191805
6481.400087513124,0.0058423080725041295
6481.40108728534,0.004738572151692819
6481.402087057554,0.003638231336275599
6481.40308682977,0.0025414960680909208
6481.404086601985,0.0014485752862393793
6481.4050863742,0.00035967638775376846
6481.406086146416,-0.0007249948110079241
6481.40708591863,-0.001805234112252843
6481.408085690846,-0.0028808389739336695
6481.409085463061,-0.00395160854622627
6481.410085235277,-0.005017343707312104
6481.411085007492,-0.006077847098473221
6481.412084779708,-0.007132923158507925
6481.413084551922,-0.008182378157475587
6481.414084324138,-0.00922602022977936
6481.415084096353,-0.010263659406596095
6481.416083868568,-0.011295107647663163
6481.417083640784,-0.012320178872432409
6481.418083412998,-0.013338688990601904
6481.419083185214,-0.014350455932036592
6481.420082957429,-0.015355299676089154
6481.421082729645,-0.01635304228033277
6481.42208250186,-0.01734350790871761
6481.423082274076,-0.018326522859163072
6481.42408204629,-0.01930191559059791
6481.4250818185055,-0.02026951674946043
6481.426081590721,-0.021229159195670904
6481.427081362936,-0.022180678028088246
6481.428081135152,-0.023123910609462752
6481.429080907366,-0.024058696590896628
6481.430080679582,-0.024984877935823522
6481.431080451797,-0.025902298943518257
6481.432080224013,-0.026810806272147433
6481.433079996228,-0.027710248961371486
6481.434079768443,-0.0286004784545085
6481.435079540658,-0.02948134862026962
6481.4360793128735,-0.030352715774075754
6481.437079085089,-0.03121443869896474
6481.438078857304,-0.03206637866609787
6481.43907862952,-0.03290839945487398
6481.440078401734,-0.03374036737265885
6481.44107817395,-0.03456215127413724
6481.442077946165,-0.03537362258029416
6481.443077718381,-0.03617465529703161
6481.444077490596,-0.036965126033426644
6481.445077262811,-0.03774491401963621
6481.446077035026,-0.038513901124453805
6481.4470768072415,-0.039271971872522723
6481.448076579457,-0.040019013461209854
6481.449076351672,-0.040754915777143436
6481.450076123888,-0.04147957141241723
6481.451075896102,-0.0421928756804625
6481.452075668318,-0.04289472663158817
6481.453075440533,-0.043585025068188926
6481.454075212749,-0.044263674559619756
6481.455074984964,-0.04493058145673523
6481.456074757179,-0.045585654906091205
6481.457074529394,-0.04622880686380627
6481.4580743016095,-0.046859952109079964
6481.459074073825,-0.047479008257364674
6481.46007384604,-0.04808589577318753
6481.461073618255,-0.04868053798261878
6481.46207339047,-0.0492628610853822
6481.463073162686,-0.049832794166602995
6481.464072934901,-0.050390269208188336
6481.465072707117,-0.050935221099835094
6481.466072479332,-0.05146758764965893
6481.467072251547,-0.05198730959443841
6481.468072023762,-0.05249433060946743
6481.4690717959775,-0.05298859731800839
6481.470071568193,-0.05347005930033806
6481.471071340408,-0.05393866910237756
6481.472071112623,-0.05439438224389742
6481.473070884838,-0.05483715722628838
6481.474070657054,-0.055266955539888196
6481.475070429269,-0.05568374167085482
6481.476070201485,-0.056087483107576205
6481.4770699737,-0.0564781503466072
6481.478069745915,-0.056855716898123736
6481.47906951813,-0.0572201592908849
6481.480069290345,-0.05757145707669331
6481.481069062561,-0.05790959283434412
6481.482068834776,-0.05823455217305312
6481.483068606991,-0.05854632373535445
6481.484068379206,-0.05884489919945817
6481.485068151422,-0.059130273281058444
6481.486067923637,-0.05940244373458252
6481.487067695853,-0.05966141135387125
6481.488067468068,-0.05990717997228115
6481.489067240283,-0.06013975646219835
6481.490067012498,-0.060359150733954155
6481.491066784713,-0.0605653757341317
6481.492066556929,-0.06075844744325302
6481.493066329144,-0.06093838487283578
6481.494066101359,-0.061105210061809016
6481.495065873574,-0.06125894807227759
6481.49606564579,-0.06139962698462531
6481.497065418005,-0.061527277891947334
6481.498065190221,-0.061641934893802854
6481.499064962435,-0.06174363508927993
6481.500064734651,-0.06183241856936476
6481.501064506866,-0.061908328408608264
6481.502064279081,-0.061971410656083845
6481.503064051297,-0.06202171432563018
6481.504063823512,-0.062059291385374034
6481.505063595727,-0.0620841967465281
6481.506063367942,-0.06209648825145981
6481.507063140158,-0.06209622666102717
6481.508062912373,-0.06208347564117787
6481.509062684589,-0.06205830174880847
6481.510062456803,-0.06202077441688008
6481.5110622290185,-0.06197096593878737
6481.512062001234,-0.06190895145197774
6481.513061773449,-0.06183480892081769
6481.514061545665,-0.06174861911870379
6481.51506131788,-0.06165046560941597
6481.516061090095,-0.06154043472771149
6481.51706086231,-0.06141861555915843
6481.518060634526,-0.061285099919208226
6481.519060406741,-0.06113998233150737
6481.520060178957,-0.060983360005449024
6481.521059951171,-0.06081533281296591
6481.5220597233865,-0.06063600326456658
6481.523059495602,-0.060445476484617316
6481.524059267817,-0.06024386018587268
6481.525059040033,-0.0600312646432582
6481.526058812247,-0.059807802666908765
6481.527058584463,-0.059573589574466984
6481.528058356678,-0.0593287431626459
6481.529058128894,-0.05907338367806065
6481.530057901109,-0.05880763378733397
6481.5310576733245,-0.05853161854648051
6481.532057445539,-0.058245465369575145
6481.5330572177545,-0.05794930399671081
6481.53405698997,-0.057643266461251674
6481.535056762185,-0.057327487056387905
6481.536056534401,-0.057002102300998704
6481.537056306615,-0.05666725090483083
6481.538056078831,-0.05632307373300018
6481.539055851046,-0.055969713769824604
6481.540055623262,-0.055607316081996254
6481.541055395477,-0.05523602778110257
6481.5420551676925,-0.054855997985505084
6481.543054939907,-0.05446737778158568
6481.5440547121225,-0.05407032018437052
6481.545054484338,-0.0536649800975419
6481.546054256553,-0.05325151427284897
6481.547054028769,-0.052830081268928145
6481.548053800983,-0.05240084140954433
6481.549053573199,-0.05196395674126422
6481.550053345414,-0.05151959099057265
6481.55105311763,-0.05106790952044296
6481.552052889845,-0.05060907928637252
6481.5530526620605,-0.05014326879189427
6481.554052434275,-0.04967064804357555
6481.5550522064905,-0.04919138850551521
6481.556051978706,-0.04870566305335082
6481.557051750921,-0.048213645927788054
6481.558051523137,-0.047715512687664455
6481.559051295351,-0.04721144016256061
6481.560051067567,-0.046701606404972035
6481.561050839782,-0.0461861906420553
6481.562050611998,-0.045665373226962624
6481.563050384213,-0.04513933558977923
6481.564050156428,-0.04460826018807805
6481.565049928643,-0.04407233045710667
6481.5660497008585,-0.04353173075962138
6481.567049473074,-0.04298664633538345
6481.568049245289,-0.042437263250332743
6481.569049017505,-0.041883768345453556
6481.570048789719,-0.04132634918534737
6481.571048561935,-0.04076519400652727
6481.57204833415,-0.04020049166544854
6481.573048106366,-0.03963243158628994
6481.574047878581,-0.039061203708500344
6481.575047650796,-0.03848699843412555
6481.576047423011,-0.037910006574930225
6481.577047195226,-0.03733041929933022
6481.578046967442,-0.03674842807915072
6481.579046739657,-0.03616422463622578
6481.580046511873,-0.035578000888854745
6481.581046284087,-0.03498994889813116
6481.582046056303,-0.034400260814159374
6481.583045828518,-0.03380912882217399
6481.584045600734,-0.03321674508857698
6481.585045372949,-0.032623301706906985
6481.586045145164,-0.03202899064375511
6481.587044917379,-0.031434003684641096
6481.588044689594,-0.03083853237986355
6481.58904446181,-0.030242767990337503
6481.590044234025,-0.02964690143343208
6481.59104400624,-0.029051123228820773
6481.592043778455,-0.028455623444356454
6481.593043550671,-0.02786059164198302
6481.594043322886,-0.027266216823695285
6481.595043095102,-0.026672687377558794
6481.596042867317,-0.026080191023801085
6481.597042639532,-0.025488914760986064
6481.598042411747,-0.02489904481228312
6481.599042183962,-0.02431076657184267
6481.600041956178,-0.02372426455128986
6481.601041728393,-0.02313972232634826
6481.602041500608,-0.02255732248360537
6481.603041272823,-0.021977246567431757
6481.604041045039,-0.021399675027065596
6481.605040817254,-0.020824787163874307
6481.60604058947,-0.020252761078804832
6481.607040361685,-0.019683773620033814
6481.6080401339,-0.019118000330828697
6481.609039906115,-0.018555615397630322
6481.61003967833,-0.01799679159836729
6481.611039450546,-0.017441700251011934
6481.612039222761,-0.016890511162387378
6481.613038994976,-0.016343392577235015
6481.614038767191,-0.015800511127551594
6481.615038539407,-0.015262031782205138
6481.616038311622,-0.014728117796839007
6481.6170380838375,-0.014198930664073708
6481.618037856053,-0.013674630064016167
6481.619037628268,-0.01315537381508647
6481.620037400483,-0.012641317825172263
6481.621037172698,-0.012132616043121183
6481.622036944914,-0.01162942041058187
6481.623036717129,-0.01113188081420424
6481.624036489344,-0.010640145038209793
6481.625036261559,-0.010154358717342929
6481.626036033775,-0.009674665290214194
6481.62703580599,-0.009201205953046401
6481.6280355782055,-0.008734119613834525
6481.62903535042,-0.008273542846930089
6481.630035122636,-0.007819609848060639
6481.631034894851,-0.007372452389794777
6481.632034667066,-0.006932199777463144
6481.633034439282,-0.0064989788055458434
6481.634034211497,-0.006072913714536892
6481.635033983712,-0.005654126148296564
6481.636033755927,-0.005242735111902765
6481.637033528143,-0.004838856930012982
6481.638033300358,-0.004442605205748784
6481.6390330725735,-0.004054090780115258
6481.640032844788,-0.0036734216919682844
6481.641032617004,-0.003300703138542983
6481.642032389219,-0.002936037436557204
6481.643032161434,-0.0025795239839044685
6481.64403193365,-0.0022312592219514054
6481.645031705865,-0.0018913365984553983
6481.64603147808,-0.0015598465311189586
6481.647031250295,-0.0012368763717982019
6481.648031022511,-0.0009225103713837691
6481.649030794726,-0.0006168296453736013
6481.6500305669415,-0.0003199121401581544
6481.651030339156,-3.183260003998281e-05
6481.652030111372,0.00024733746498884466
6481.653029883587,0.000517529810686247
6481.654029655802,0.0007786794891892383
6481.655029428018,0.00103072487880298
6481.656029200232,0.0012736077129175266
6481.657028972448,0.0015072731080172166
6481.658028744663,0.0017316695907447464
6481.659028516879,0.0019467491239789742
6481.660028289094,0.0021524671318825235
6481.6610280613095,0.002348782523872317
6481.662027833524,0.0025356577174633775
6481.663027605739,0.0027130586599336004
6481.664027377955,0.0028809548487547867
6481.66502715017,0.003039319350733076
6481.666026922386,0.003188128819800027
6481.6670266946,0.0033273635133940433
6481.668026466816,0.003457007307370651
6481.669026239031,0.0035770477093793793
6481.670026011247,0.0036874758706445937
6481.671025783462,0.0037882865960876476
6481.6720255556775,0.0038794783527281483
6481.673025327892,0.003961053276302951
6481.674025100107,0.004033017176042751
6481.675024872323,0.004095379537547889
6481.676024644538,0.004148153523707185
6481.677024416754,0.004191355973606366
6481.678024188968,0.004225007399375762
6481.679023961184,0.004249131980930538
6481.680023733399,0.004263757558560486
6481.681023505615,0.004268915623330494
6481.68202327783,0.004264641305257011
6481.683023050045,0.004250973359230342
6481.68402282226,0.0042279541486572566
6481.685022594475,0.004195629626803363
6481.686022366691,0.0041540493158198095
6481.687022138906,0.004103266283444183
6481.688021911122,0.004043337117370896
6481.689021683336,0.00397432189729185
6481.690021455552,0.0038962841646135713
6481.691021227767,0.0038092908898623217
6481.692020999983,0.0037134124377936925
6481.693020772198,0.0036087225302279735
6481.6940205444125,0.0034952982066370573
6481.695020316628,0.0033732197825129097
6481.696020088843,0.003242570805551677
6481.697019861059,0.003103438009691401
6481.698019633274,0.002955911267045065
6481.69901940549,0.0028000835377744145
6481.700019177704,0.0026360508179535326
6481.70101894992,0.002463912085474569
6481.702018722135,0.0022837692440511523
6481.703018494351,0.0020957270653778792
6481.704018266566,0.0018998931295067902
6481.7050180387805,0.001696377763503971
6481.706017810996,0.0014852939784512833
6481.707017583211,0.00126675740485981
6481.708017355427,0.0010408862265628982
6481.709017127642,0.0008078011131577155
6481.710016899858,0.000567625151065043
6481.711016672072,0.000320483773277608
6481.712016444288,6.650468786763573e-05
6481.713016216503,-0.00019418219467555025
6481.714015988719,-0.00046144483520709916
6481.715015760934,-0.0007351491407168482
6481.7160155331485,-0.0010151590400780666
6481.717015305364,-0.0013013365606851497
6481.718015077579,-0.001593541905911295
6481.719014849795,-0.001891633533317858
6481.72001462201,-0.0021954682335477782
6481.721014394225,-0.0025049012098361935
6481.72201416644,-0.0028197861580721373
6481.723013938656,-0.0031399753473460262
6481.724013710871,-0.0034653197009184857
6481.725013483087,-0.003795668877546916
6481.726013255302,-0.004130871353107048
6481.7270130275165,-0.004470774502447522
6481.728012799732,-0.004815224681416218
6481.729012571947,-0.005164067308997718
6481.730012344163,-0.005517146949501842
6481.731012116378,-0.005874307394743788
6481.732011888593,-0.0062353917461570405
6481.733011660808,-0.0066002424967809385
6481.734011433024,-0.006968701613065567
6481.735011205239,-0.007340610616437581
6481.736010977455,-0.007715810664571499
6481.73701074967,-0.008094142632312083
6481.7380105218845,-0.0084754471921945
6481.7390102941,-0.008859564894510194
6481.740010066315,-0.009246336246867558
6481.741009838531,-0.009635601793197803
6481.742009610746,-0.010027202192157697
6481.743009382961,-0.010420978294882248
6481.744009155176,-0.01081677122204164
6481.745008927392,-0.01121442244015813
6481.746008699607,-0.011613773837139834
6481.747008471823,-0.012014667796989498
6481.748008244038,-0.012416947273647607
6481.749008016252,-0.012820455863930118
6481.750007788468,-0.013225037879522351
6481.751007560683,-0.013630538417991576
6481.752007332899,-0.014036803432782005
6481.753007105114,-0.014443679802157248
6481.754006877329,-0.014851015397056617
6481.755006649544,-0.015258659147833219
6481.75600642176,-0.015666461109843217
6481.757006193975,-0.0160742725278573
6481.758005966191,-0.016481945899266864
6481.759005738405,-0.016889335036058946
6481.76000551062,-0.017296295125535356
6481.761005282836,-0.017702682789752882
6481.762005055051,-0.018108356143662734
6481.763004827267,-0.01851317485192869
6481.764004599482,-0.018917000184404748
6481.765004371697,-0.01931969507025432
6481.766004143912,-0.019721124150694387
6481.767003916128,-0.02012115383034914
6481.768003688343,-0.02051965232719893
6481.769003460558,-0.020916489721111514
6481.770003232773,-0.02131153800094344
6481.771003004988,-0.021704671110200517
6481.772002777204,-0.022095764991247168
6481.773002549419,-0.022484697628055494
6481.774002321635,-0.022871349087485903
6481.77500209385,-0.023255601559092298
6481.776001866065,-0.02363733939344591
6481.77700163828,-0.0240164491389731
6481.778001410496,-0.024392819577303635
6481.779001182711,-0.02476634175712683
6481.780000954926,-0.02513690902655397
6481.781000727141,-0.025504417063986123
6481.782000499356,-0.025868763907487272
6481.783000271572,-0.0262298499826631
6481.784000043787,-0.026587578129046385
6481.784999816003,-0.02694185362499047
6481.785999588217,-0.027292584211072515
6481.786999360433,-0.027639680112008836
6481.787999132648,-0.027983054057084955
6481.788998904864,-0.028322621299103297
6481.789998677079,-0.02865829963185197
6481.790998449294,-0.028990009406098468
6481.791998221509,-0.029317673544112417
6481.792997993724,-0.02964121755272216
6481.79399776594,-0.02996056953491016
6481.794997538155,-0.03027566019995291
6481.795997310371,-0.030586422872111555
6481.796997082585,-0.030892793497879777
6481.797996854801,-0.03119471065179622
6481.798996627016,-0.03149211554082912
6481.799996399232,-0.03178495200734136
6481.800996171447,-0.032073166530644535
6481.801995943662,-0.03235670822715109
6481.802995715877,-0.03263552884913408
6481.803995488092,-0.032909582782104346
6481.804995260308,-0.03317882704081547
6481.805995032523,-0.03344322126390708
6481.806994804739,-0.03370272770719733
6481.807994576953,-0.033957311235635695
6481.808994349169,-0.0342069393139272
6481.809994121384,-0.034451581995839184
6481.8109938936,-0.034691211912201585
6481.811993665815,-0.034925804257611784
6481.81299343803,-0.035155336775855014
6481.813993210245,-0.03537978974405134
6481.81499298246,-0.035599145955540604
6481.815992754676,-0.03581339070151711
6481.816992526891,-0.036022511751426275
6481.817992299107,-0.036226499332135835
6481.818992071321,-0.03642534610589489
6481.819991843537,-0.036619047147094366
6481.820991615752,-0.036807599917842826
6481.821991387968,-0.03699100424237186
6481.822991160183,-0.03716926228028569
6481.8239909323975,-0.03734237849866977
6481.824990704613,-0.03751035964307345
6481.825990476828,-0.037673214707382156
6481.826990249044,-0.03783095490259452
6481.827990021259,-0.03798359362452037
6481.828989793475,-0.03813114642041561
6481.829989565689,-0.03827363095457002
6481.830989337905,-0.038411066972864304
6481.83198911012,-0.038543476266312965
6481.832988882336,-0.03867088263360998
6481.833988654551,-0.03879331184269455
6481.834988426765,-0.03891079159135488
6481.835988198981,-0.039023351466888796
6481.836987971196,-0.039131022904840544
6481.837987743412,-0.039233839146834336
6481.838987515627,-0.0393318351975257
6481.839987287843,-0.03942504778069286
6481.840987060057,-0.03951351529449093
6481.841986832273,-0.03959727776589262
6481.842986604488,-0.03967637680433993
6481.843986376704,-0.039750855554631814
6481.844986148919,-0.03982075864907391
6481.845985921133,-0.03988613215891651
6481.846985693349,-0.039947023545107936
6481.847985465564,-0.0400034816083906
6481.84898523778,-0.040055556438767355
6481.849985009995,-0.04010329936436596
6481.85098478221,-0.040146762899729696
6481.851984554425,-0.040186000693562374
6481.852984326641,-0.0402210674759563
6481.853984098856,-0.04025201900513214
6481.854983871071,-0.0402789120137202
6481.855983643287,-0.04030180415461327
6481.856983415501,-0.04032075394642153
6481.857983187717,-0.04033582071856103
6481.858982959932,-0.0403470645560077
6481.859982732148,-0.040354546243749456
6481.860982504363,-0.04035832721096961
6481.861982276578,-0.040358469474995086
6481.862982048793,-0.04035503558504349
6481.863981821009,-0.040348088565803526
6481.864981593224,-0.04033769186088353
6481.865981365439,-0.04032390927616306
6481.866981137655,-0.04030680492308289
6481.867980909869,-0.04028644316190887
6481.868980682085,-0.040262888545005156
6481.8699804543,-0.04023620576015192
6481.870980226516,-0.040206459573943115
6481.871979998731,-0.04017371477529932
6481.872979770946,-0.040138036119130735
6481.873979543161,-0.04009948827018549
6481.874979315377,-0.04005813574711821
6481.875979087592,-0.040014042866814356
6481.876978859807,-0.03996727368900558
6481.877978632023,-0.039917891961211725
6481.878978404237,-0.03986596106404528
6481.879978176453,-0.03981154395691413
6481.880977948668,-0.039754703124158526
6481.881977720884,-0.03969550052165832
6481.882977493099,-0.039633997523946286
6481.883977265314,-0.039570254871863636
6481.884977037529,-0.03950433262079365
6481.8859768097445,-0.03943629008950912
6481.88697658196,-0.03936618580966964
6481.887976354175,-0.03929407747600392
6481.88897612639,-0.03922002189721271
6481.889975898605,-0.039144074947627075
6481.890975670821,-0.03906629151965667
6481.891975443036,-0.03898672547706204
6481.892975215252,-0.03890542960908499
6481.893974987467,-0.03882245558547025
6481.894974759682,-0.038737853912411906
6481.895974531897,-0.03865167388945729
6481.8969743041125,-0.03856396356740097
6481.897974076328,-0.03847476970720103
6481.898973848543,-0.0383841377399494
6481.899973620758,-0.038292111727927534
6481.900973392973,-0.03819873432677817
6481.901973165189,-0.038104046748823193
6481.902972937404,-0.03800808872755697
6481.90397270962,-0.03791089848334374
6481.904972481835,-0.03781251269034676
6481.90597225405,-0.03771296644471591
6481.906972026265,-0.037612293234059596
6481.9079717984805,-0.037510524908225734
6481.908971570696,-0.03740769165141535
6481.909971342911,-0.03730382195565141
6481.910971115126,-0.03719894259562403
6481.911970887341,-0.03709307860493228
6481.912970659557,-0.03698625325374178
6481.913970431772,-0.036878488027876
6481.914970203988,-0.03676980260935847
6481.915969976202,-0.03666021485842214
6481.916969748418,-0.036549740797001136
6481.917969520633,-0.0364383945937192
6481.9189692928485,-0.03632618855038825
6481.919969065064,-0.03621313309002926
6481.920968837279,-0.03609923674642668
6481.921968609494,-0.03598450615522645
6481.922968381709,-0.03586894604658665
6481.923968153925,-0.035752559239388276
6481.92496792614,-0.03563534663701273
6481.925967698356,-0.035517307224690965
6481.92696747057,-0.03539843806842801
6481.927967242786,-0.035278734315505066
6481.928967015001,-0.035158189196559886
6481.9299667872165,-0.035036794029244554
6481.930966559432,-0.03491453822345804
6481.931966331647,-0.03479140928814959
6481.932966103862,-0.0346673928396872
6481.933965876077,-0.034542472611784
6481.934965648293,-0.034416630466974
6481.935965420508,-0.0342898464096272
6481.936965192724,-0.034162098600493004
6481.937964964938,-0.034033363372759265
6481.938964737154,-0.033903615249613425
6481.939964509369,-0.033772826963290786
6481.9409642815845,-0.03364096947559371
6481.9419640538,-0.033508011999864314
6481.942963826015,-0.033373922024391885
6481.94396359823,-0.033238665337234914
6481.944963370445,-0.033102206052436425
6481.945963142661,-0.03296450663760984
6481.946962914876,-0.03282552794287127
6481.947962687092,-0.03268522923109288
6481.948962459306,-0.03254356820945034
6481.949962231522,-0.03240050106223618
6481.950962003737,-0.032255982484909185
6481.951961775952,-0.03210996571934884
6481.952961548168,-0.031962402590282483
6481.953961320383,-0.031813243542851935
6481.954961092598,-0.031662437681285405
6481.955960864813,-0.031509932808639854
6481.956960637029,-0.03135567546757842
6481.957960409244,-0.0311996109821472
6481.95896018146,-0.03104168350051531
6481.959959953674,-0.03088183603864186
6481.96095972589,-0.030720010524833155
6481.961959498105,-0.03055614784515312
6481.96295927032,-0.03039018788964965
6481.963959042536,-0.030222069599359226
6481.96495881475,-0.030051731014051754
6481.965958586966,-0.029879109320677215
6481.966958359181,-0.02970414090247522
6481.967958131397,-0.029526761388708037
6481.968957903612,-0.029346905704977153
6481.969957675828,-0.029164508124083055
6481.970957448042,-0.028979502317387284
6481.9719572202575,-0.02879182140663557
6481.972956992473,-0.02860139801620055
6481.973956764688,-0.02840816432570264
6481.974956536904,-0.02821205212296767
6481.975956309118,-0.028012992857280046
6481.976956081334,-0.027810917692890798
6481.977955853549,-0.027605757562740026
6481.978955625765,-0.02739744322235402
6481.97995539798,-0.027185905303877725
6481.980955170195,-0.026971074370203782
6481.98195494241,-0.026752880969159877
6481.9829547146255,-0.02653125568771674
6481.983954486841,-0.026306129206179595
6481.984954259056,-0.026077432352326242
6481.985954031272,-0.025845096155455504
6481.986953803486,-0.025609051900310136
6481.987953575702,-0.02536923118083852
6481.988953347917,-0.025125565953759747
6481.989953120133,-0.024877988591896782
6481.990952892348,-0.024626431937242683
6481.991952664563,-0.024370829353725216
6481.992952436778,-0.02411111477963547
6481.9939522089935,-0.02384722277968677
6481.994951981209,-0.02357908859667084
6481.995951753424,-0.02330664820267897
6481.99695152564,-0.023029838349856908
6481.997951297854,-0.02274859662066296
6481.99895107007,-0.02246286147759981
6481.999950842285,-0.022172572312391437
6482.000950614501,-0.021877669494577437
6482.001950386716,-0.02157809441949786
6482.002950158931,-0.021273789555642478
6482.003949931146,-0.020964698491339345
6482.0049497033615,-0.02065076598075813
6482.005949475577,-0.02033193798920462
6482.006949247792,-0.020008161737683428
6482.007949020008,-0.019679385746706732
6482.008948792222,-0.019345559879327442
6482.009948564438,-0.019006635383375863
6482.010948336653,-0.01866256493287948
6482.011948108869,-0.018313302668646125
6482.012947881084,-0.01795880423799145
6482.013947653299,-0.0175990268335925
6482.014947425514,-0.017233929231449813
6482.0159471977295,-0.016863471827941644
6482.016946969945,-0.016487616675954712
6482.01794674216,-0.016106327520076964
6482.018946514376,-0.015719569830838883
6482.01994628659,-0.015327310837990896
6482.020946058806,-0.014929519562805336
6482.021945831021,-0.014526166849392376
6482.022945603237,-0.01411722539502025
6482.023945375452,-0.013702669779430845
6482.024945147667,-0.013282476493142552
6482.025944919882,-0.01285662396473301
6482.0269446920975,-0.012425092587094993
6482.027944464313,-0.011987864742659365
6482.028944236528,-0.011544924827579552
6482.029944008743,-0.011096259274872495
6482.030943780958,-0.010641856576511646
6482.031943553174,-0.010181707304468057
6482.032943325389,-0.009715804130696205
6482.033943097605,-0.009244141846061859
6482.03494286982,-0.008766717378209988
6482.035942642035,-0.008283529808371437
6482.03694241425,-0.007794580387107892
6482.037942186465,-0.007299872548995403
6482.038941958681,-0.006799411926247465
6482.039941730896,-0.006293206361279371
6482.040941503111,-0.005781265918216201
6482.041941275326,-0.005263602893347476
6482.042941047542,-0.004740231824532058
6482.043940819757,-0.004211169499557422
6482.044940591973,-0.003676434963457873
6482.045940364187,-0.003136049524796663
6482.046940136403,-0.0025900367609172754
6482.047939908618,-0.00203842252216942
6482.048939680833,-0.0014812349351154533
6482.049939453049,-0.0009185044047231534
6482.050939225264,-0.00035026361555097626
6482.051938997479,0.00022345246806780228
6482.052938769694,0.0008026066028353229
6482.05393854191,0.0013871592682866073
6482.054938314125,0.0019770686695666484
6482.055938086341,0.002572290741179035
6482.056937858555,0.003172779151697529
6482.0579376307705,0.003778485309431544
6482.058937402986,0.004389358369036045
6482.059937175201,0.005005345239056007
6482.060936947417,0.005626390590395261
6482.061936719632,0.006252436865699266
6482.062936491847,0.006883424289641137
6482.063936264062,0.007519290880100016
6482.064936036278,0.00815997246022072
6482.065935808493,0.008805402671343481
6482.066935580709,0.009455512986792506
6482.067935352923,0.010110232726512194
6482.0689351251385,0.010769489072539945
6482.069934897354,0.011433207085304754
6482.070934669569,0.012101309720740982
6482.071934441785,0.012773717848206901
6482.072934214,0.013450350269197699
6482.073933986215,0.014131123736842654
6482.07493375843,0.014815952976176015
6482.075933530646,0.015504750705170989
6482.076933302861,0.0161974276565259
6482.0779330750765,0.016893892600191345
6482.078932847291,0.01759405236662694
6482.0799326195065,0.01829781187077596
6482.080932391722,0.01900507413674611
6482.081932163937,0.019715740323184412
6482.082931936153,0.02042970974933417
6482.083931708368,0.02114687992176197
6482.084931480583,0.021867146561742615
6482.085931252798,0.02259040363328986
6482.086931025014,0.02331654337182097
6482.087930797229,0.02404545631344326
6482.0889305694445,0.02477703132485098
6482.089930341659,0.025511155633821097
6482.0909301138745,0.026247714860296853
6482.09192988609,0.02698659304804812
6482.092929658305,0.027727672696897653
6482.093929430521,0.028470834795502383
6482.094929202735,0.029215958854678828
6482.095928974951,0.02996292294126138
6482.096928747166,0.030711603712482043
6482.097928519382,0.031461876450859745
6482.098928291597,0.032213615099587124
6482.0999280638125,0.03296669229840216
6482.100927836027,0.03372097941993177
6482.1019276082425,0.03447634660649411
6482.102927380458,0.03523266280734636
6482.103927152673,0.03598979581636419
6482.104926924889,0.03674761231013938
6482.105926697103,0.03750597788648192
6482.106926469319,0.03826475710331288
6482.107926241534,0.039023813517934464
6482.10892601375,0.03978300972666371
6482.109925785965,0.04054220740481661
6482.11092555818,0.04130126734702926
6482.111925330395,0.04206004950790283
6482.1129251026105,0.04281841304295906
6482.113924874826,0.043576216349892886
6482.114924647041,0.04433331711010859
6482.115924419257,0.045089572330525456
6482.116924191471,0.04584483838563853
6482.117923963687,0.046598971059820145
6482.118923735902,0.04735182558984699
6482.119923508118,0.04810325670763768
6482.120923280333,0.0488531186831852
6482.121923052548,0.04960126536766856
6482.122922824763,0.05034755023672794
6482.123922596978,0.051091826433887044
6482.124922369194,0.051833946814106725
6482.125922141409,0.05257376398745366
6482.126921913625,0.05331113036286794
6482.127921685839,0.05404589819201354
6482.128921458055,0.05477791961319592
6482.12992123027,0.05550704669533105
6482.130921002486,0.05623313148195046
6482.131920774701,0.056956026035227286
6482.132920546916,0.05767558248000842
6482.133920319131,0.058391653047837576
6482.134920091346,0.05910409012095461
6482.135919863562,0.05981274627625606
6482.136919635777,0.06051747432920191
6482.137919407993,0.06121812737765333
6482.138919180207,0.061914558845626085
6482.139918952423,0.06260662252694424
6482.140918724638,0.06329417262877861
6482.141918496854,0.06397706381505423
6482.142918269069,0.06465515124971137
6482.143918041284,0.06532829063980433
6482.144917813499,0.06599633827842258
6482.145917585714,0.0666591510874187
6482.14691735793,0.06731658665992826
6482.147917130145,0.06796850330266643
6482.148916902361,0.06861476007798711
6482.149916674575,0.06925521684569058
6482.150916446791,0.0698897343045661
6482.151916219006,0.07051817403365643
6482.152915991222,0.07114039853323152
6482.153915763437,0.07175627126545887
6482.154915535652,0.07236565669475802
6482.155915307867,0.07296842032782722
6482.156915080082,0.07356442875332965
6482.157914852298,0.07415354968122698
6482.158914624513,0.07473565198174792
6482.159914396728,0.0753106057239794
6482.160914168943,0.07587828221406798
6482.161913941159,0.07643855403301904
6482.162913713374,0.07699129507408159
6482.16391348559,0.0775363805797064
6482.164913257805,0.07807368717806536
6482.16591303002,0.07860309291912046
6482.166912802235,0.0791244773102307
6482.16791257445,0.07963772135128591
6482.168912346666,0.08014270756935672
6482.169912118881,0.08063932005285036
6482.170911891096,0.0811274444851625
6482.171911663311,0.08160696817781554
6482.172911435527,0.08207778010307445
6482.173911207742,0.08253977092603124
6482.1749109799575,0.08299283303614927
6482.175910752172,0.08343686057825908
6482.176910524388,0.0838717494829971
6482.177910296603,0.08429739749667857
6482.178910068818,0.08471370421059643
6482.179909841034,0.08512057108973743
6482.180909613249,0.08551790150090707
6482.181909385464,0.08590560074025476
6482.182909157679,0.08628357606019062
6482.183908929895,0.08665173669568586
6482.18490870211,0.08700999388994822
6482.1859084743255,0.08735826091946422
6482.18690824654,0.0876964531184005
6482.187908018756,0.0880244879023567
6482.188907790971,0.08834228479146237
6482.189907563186,0.0886497654328114
6482.190907335402,0.088946853622227
6482.191907107617,0.08923347532535132
6482.192906879832,0.08950955869805391
6482.193906652047,0.0897750341061528
6482.194906424263,0.09002983414444247
6482.195906196478,0.09027389365502313
6482.1969059686935,0.09050714974492488
6482.197905740908,0.09072954180302122
6482.198905513124,0.09094101151622513
6482.199905285339,0.09114150288496187
6482.200905057554,0.09133096223791168
6482.20190482977,0.09150933824601624
6482.202904601985,0.0916765819357423
6482.2039043742,0.0918326467015961
6482.204904146415,0.09197748831788259
6482.205903918631,0.09211106494970295
6482.206903690846,0.09223333716318503
6482.2079034630615,0.09234426793494123
6482.208903235276,0.09244382266074856
6482.209903007491,0.09253196916344679
6482.210902779707,0.09260867770005
6482.211902551922,0.09267392096806859
6482.212902324138,0.09272767411103774
6482.213902096353,0.09276991472325012
6482.214901868568,0.09280062285368966
6482.215901640783,0.09281978100916434
6482.216901412999,0.09282737415663557
6482.217901185214,0.0928233897247421
6482.2189009574295,0.09280781760451662
6482.219900729644,0.09278065014929304
6482.220900501859,0.09274188217380323
6482.221900274075,0.09269151095246156
6482.22290004629,0.09262953621683652
6482.223899818506,0.0925559601523085
6482.22489959072,0.09247078739391337
6482.225899362936,0.09237402502137194
6482.226899135151,0.0922656825533058
6482.227898907367,0.09214577194064069
6482.228898679582,0.0920143075591989
6482.229898451797,0.09187130620148333
6482.230898224012,0.09171678706765655
6482.231897996227,0.09155077175571846
6482.232897768443,0.09137328425088692
6482.233897540658,0.09118435091418639
6482.234897312874,0.09098400047024993
6482.235897085088,0.09077226399434034
6482.236896857304,0.09054917489859635
6482.237896629519,0.09031476891751065
6482.238896401735,0.09006908409264619
6482.23989617395,0.0898121607565978
6482.2408959461645,0.08954404151620697
6482.24189571838,0.0892647712350377
6482.242895490595,0.08897439701512158
6482.243895262811,0.08867296817798104
6482.244895035026,0.08836053624493992
6482.245894807242,0.08803715491673107
6482.246894579456,0.08770288005241116
6482.247894351672,0.08735776964759381
6482.248894123887,0.08700188381201211
6482.249893896103,0.08663528474642283
6482.250893668318,0.08625803671886498
6482.2518934405325,0.08587020604028628
6482.252893212748,0.08547186103955125
6482.253892984963,0.08506307203784537
6482.254892757179,0.08464391132248997
6482.255892529394,0.08421445312018272
6482.25689230161,0.08377477356967902
6482.257892073824,0.08332495069392942
6482.25889184604,0.08286506437168854
6482.259891618255,0.0823951963086111
6482.260891390471,0.08191543000785094
6482.261891162686,0.08142585074017905
6482.2628909349005,0.08092654551363695
6482.263890707116,0.08041760304274229
6482.264890479331,0.0798991137172637
6482.265890251547,0.07937116957058266
6482.266890023762,0.07883386424765983
6482.267889795978,0.07828729297262493
6482.268889568192,0.07773155251600856
6482.269889340408,0.0771667411616358
6482.270889112623,0.07659295867320183
6482.271888884839,0.07601030626055025
6482.272888657054,0.07541888654567505
6482.2738884292685,0.07481880352846808
6482.274888201484,0.07421016255223356
6482.275887973699,0.07359307026899176
6482.276887745915,0.07296763460459335
6482.27788751813,0.07233396472366656
6482.278887290346,0.07169217099441842
6482.27988706256,0.0710423649533119
6482.280886834776,0.07038465926963995
6482.281886606991,0.06971916771001781
6482.282886379207,0.06904600510281418
6482.283886151422,0.06836528730254214
6482.2848859236365,0.06767713115422991
6482.285885695852,0.06698165445779164
6482.286885468067,0.06627897593241819
6482.287885240283,0.06556921518100726
6482.288885012498,0.0648524926546525
6482.289884784713,0.06412892961721071
6482.290884556928,0.06339864810996675
6482.291884329144,0.0626617709164148
6482.292884101359,0.06191842152717542
6482.293883873575,0.06116872410506698
6482.29488364579,0.06041280345034977
6482.295883418004,0.05965078496616099
6482.29688319022,0.05888279462415791
6482.297882962435,0.058108958930386444
6482.298882734651,0.0573294048913913
6482.299882506866,0.056544259980583766
6482.300882279081,0.055753652104882416
6482.301882051296,0.05495770957164161
6482.302881823512,0.05415656105588205
6482.303881595727,0.0533503355678374
6482.304881367943,0.05253916242083007
6482.305881140157,0.05172317119948906
6482.306880912372,0.05090249172832211
6482.307880684588,0.05007725404065398
6482.308880456803,0.049247588347942184
6482.309880229019,0.04841362500948105
6482.310880001234,0.04757549450250448
6482.311879773449,0.04673332739269735
6482.312879545664,0.04588725430512505
6482.31387931788,0.045037405895590105
6482.314879090095,0.04418391282242424
6482.315878862311,0.0433269057187235
6482.316878634525,0.04246651516503337
6482.31787840674,0.041602871662489924
6482.318878178956,0.04073610560642248
6482.319877951171,0.039866347260421986
6482.320877723387,0.038993726730878836
6482.321877495602,0.03811837394199293
6482.322877267817,0.03724041861125801
6482.323877040032,0.03635999022542167
6482.324876812248,0.035477218016921795
6482.325876584463,0.03459223094079949
6482.326876356678,0.03370515765208834
6482.327876128893,0.032816126483679216
6482.328875901108,0.031925265424659476
6482.329875673324,0.031032702099125203
6482.330875445539,0.03013856374546485
6482.331875217755,0.029242977196112244
6482.33287498997,0.028346068857766697
6482.333874762185,0.02744796469207744
6482.3348745344,0.026548790196789223
6482.335874306616,0.025648670387345397
6482.336874078831,0.024747729778944266
6482.337873851046,0.023846092369043982
6482.338873623261,0.02294388162031064
6482.339873395476,0.022041220444003966
6482.340873167692,0.021138231183794483
6482.341872939907,0.0202350356000058
6482.342872712123,0.019331754854275303
6482.343872484338,0.018428509494626374
6482.344872256553,0.017525419440945048
6482.345872028768,0.016622603970853907
6482.346871800984,0.01572018170597602
6482.347871573199,0.014818270598581713
6482.348871345414,0.013916987918611208
6482.349871117629,0.013016450241066313
6482.350870889844,0.01211677343376453
6482.35187066206,0.011218072645449169
6482.352870434275,0.01032046229424898
6482.353870206491,0.009424056056480872
6482.354869978705,0.008528966855789058
6482.355869750921,0.007635306852613792
6482.356869523136,0.006743187433982588
6482.357869295352,0.005852719203616589
6482.358869067567,0.004964011972344516
6482.359868839782,0.004077174748816414
6482.360868611997,0.0031923157305092684
6482.361868384212,0.0023095422950163815
6482.362868156428,0.001428960991612307
6482.363867928643,0.0005506775330850603
6482.364867700859,-0.00032520321217267855
6482.365867473073,-0.0011985772278215582
6482.366867245289,-0.002069341356990739
6482.367867017504,-0.0029373933094579605
6482.36886678972,-0.003802631668601794
6482.369866561935,-0.004664955898132958
6482.3708663341495,-0.00552426634861112
6482.371866106365,-0.006380464263753232
6482.37286587858,-0.007233451786539137
6482.373865650796,-0.008083131965119979
6482.374865423011,-0.008929408758534903
6482.375865195227,-0.009772187042241547
6482.376864967441,-0.01061137261346595
6482.377864739657,-0.011446872196377737
6482.378864511872,-0.012278593447096548
6482.379864284088,-0.013106444958536039
6482.380864056303,-0.013930336265091936
6482.381863828517,-0.014750177847180952
6482.382863600733,-0.015565881135637533
6482.383863372948,-0.016377358515975615
6482.384863145164,-0.01718452333252266
6482.385862917379,-0.017987289892433228
6482.386862689595,-0.01878557346958929
6482.387862461809,-0.01957929030839427
6482.388862234025,-0.020368357627467578
6482.38986200624,-0.021152693623246007
6482.390861778456,-0.02193221747349797
6482.391861550671,-0.02270684934075615
6482.392861322885,-0.02347651037567372
6482.393861095101,-0.024241122720308934
6482.394860867316,-0.025000609511342677
6482.395860639532,-0.025754894883233338
6482.396860411747,-0.02650390397131326
6482.397860183963,-0.027247562914830843
6482.398859956177,-0.02798579885994231
6482.399859728393,-0.02871853996265707
6482.400859500608,-0.02944571539174037
6482.401859272824,-0.03016725533157682
6482.402859045039,-0.03088309098499821
6482.403858817253,-0.031593154576078954
6482.404858589469,-0.03229737935290222
6482.405858361684,-0.03299569959029988
6482.4068581339,-0.03368805059256883
6482.407857906115,-0.03437436869616621
6482.408857678331,-0.03505459127238533
6482.409857450545,-0.03572865673001378
6482.410857222761,-0.0363965045179746
6482.411856994976,-0.037058075127950826
6482.412856767191,-0.037713310096993406
6482.413856539407,-0.03836215201011197
6482.414856311621,-0.039004544502848064
6482.415856083837,-0.03964043226383008
6482.416855856052,-0.040269761037309386
6482.417855628268,-0.0408924776256771
6482.418855400483,-0.04150852989196107
6482.419855172698,-0.04211786676230272
6482.420854944913,-0.04272043822841328
6482.421854717129,-0.04331619535000912
6482.422854489344,-0.0439050902572255
6482.423854261559,-0.044487076153008384
6482.424854033775,-0.045062107315483574
6482.425853805989,-0.04563013910030243
6482.426853578205,-0.04619112794296315
6482.42785335042,-0.046745031361106325
6482.428853122636,-0.047291807956783054
6482.429852894851,-0.047831417418693435
6482.430852667066,-0.048363820524392614
6482.431852439281,-0.04888897914246116
6482.4328522114965,-0.049406856234636094
6482.433851983712,-0.049917415857898335
6482.434851755927,-0.05042062316651229
6482.435851528142,-0.0509164444140129
6482.436851300357,-0.05140484695513542
6482.437851072573,-0.051885799247683155
6482.438850844788,-0.052359270854328066
6482.439850617004,-0.05282523244433898
6482.440850389219,-0.053283655795232074
6482.441850161434,-0.053734513794337725
6482.442849933649,-0.05417778044027784
6482.4438497058645,-0.05461343084434728
6482.44484947808,-0.055041441231792984
6482.445849250295,-0.0554617889429837
6482.44684902251,-0.055874452434463304
6482.447848794725,-0.05627941127988035
6482.448848566941,-0.056676646170785876
6482.449848339156,-0.0570661389172911
6482.450848111372,-0.05744787244857626
6482.451847883587,-0.05782183081324145
6482.452847655802,-0.058187999179489525
6482.453847428017,-0.05854636383513144
6482.4548472002325,-0.05889691218740388
6482.455846972448,-0.05923963276258901
6482.456846744663,-0.05957451520542638
6482.457846516878,-0.05990155027830698
6482.458846289093,-0.06022072986023979
6482.459846061309,-0.06053204694558103
6482.460845833524,-0.06083549564251656
6482.46184560574,-0.0611310711712878
6482.462845377955,-0.0614187698621516
6482.46384515017,-0.06169858915306448
6482.464844922385,-0.06197052758708175
6482.4658446946005,-0.06223458480946169
6482.466844466816,-0.06249076156446535
6482.467844239031,-0.06273905969184215
6482.468844011246,-0.06297948212299148
6482.469843783461,-0.06321203287679049
6482.470843555677,-0.06343671705507786
6482.471843327892,-0.06365354083778356
6482.472843100108,-0.06386251147769402
6482.473842872323,-0.06406363729484263
6482.474842644538,-0.06425692767051525
6482.475842416753,-0.06444239304086084
6482.4768421889685,-0.0646200448900978
6482.477841961184,-0.06478989574330633
6482.478841733399,-0.06495195915879838
6482.479841505614,-0.06510624972005648
6482.480841277829,-0.06525278302723372
6482.481841050045,-0.0653915756882076
6482.48284082226,-0.0655226453091805
6482.483840594476,-0.0656460104848209
6482.48484036669,-0.06576169078793875
6482.485840138906,-0.06586970675869029
6482.486839911121,-0.0659700798933066
6482.4878396833365,-0.06606283263234186
6482.488839455552,-0.06614798834843678
6482.489839227767,-0.06622557133359325
6482.490838999982,-0.06629560678595664
6482.491838772197,-0.06635812079610261
6482.492838544413,-0.06641314033282533
6482.493838316628,-0.06646069322842509
6482.494838088844,-0.06650080816349321
6482.495837861058,-0.0665335146511937
6482.496837633274,-0.06655884302104113
6482.497837405489,-0.06657682440217566
6482.498837177704,-0.06658749070613634
6482.49983694992,-0.06659087460913532
6482.500836722134,-0.0665870095338357
6482.50183649435,-0.06657592963063694
6482.502836266565,-0.06655766975847213
6482.503836038781,-0.0665322654651223
6482.504835810996,-0.06649975296705332
6482.505835583212,-0.06646016912878173
6482.506835355426,-0.06641355144177616
6482.507835127642,-0.06635993800290209
6482.508834899857,-0.06629936749241808
6482.509834672072,-0.06623187915153221
6482.510834444288,-0.06615751275952911
6482.511834216502,-0.06607630861047832
6482.512833988718,-0.06598830748953707
6482.513833760933,-0.06589355064886188
6482.514833533149,-0.06579207978314558
6482.515833305364,-0.065683937004799
6482.51683307758,-0.06556916481879888
6482.517832849794,-0.06544780609722663
6482.5188326220095,-0.0653199040535258
6482.519832394225,-0.06518550221650901
6482.52083216644,-0.06504464440414884
6482.521831938656,-0.06489737469719052
6482.52283171087,-0.06474373741262786
6482.523831483086,-0.0645837770770869
6482.524831255301,-0.06441753840016574
6482.525831027517,-0.06424506624778176
6482.526830799732,-0.0640664056155807
6482.527830571948,-0.06388160160246543
6482.528830344162,-0.06369069938430391
6482.5298301163775,-0.06349374418787936
6482.530829888593,-0.06329078126514708
6482.531829660808,-0.0630818558678645
6482.532829433024,-0.06286701322266257
6482.533829205238,-0.06264629850662812
6482.534828977454,-0.06241975682346737
6482.535828749669,-0.06218743318032185
6482.536828521885,-0.061949372465307566
6482.5378282941,-0.06170561942584808
6482.538828066316,-0.06145621864787119
6482.53982783853,-0.06120121453593702
6482.5408276107455,-0.06094065129436318
6482.541827382961,-0.06067457290940956
6482.542827155176,-0.0604030231325819
6482.543826927392,-0.060126045465108996
6482.544826699606,-0.05984368314364423
6482.545826471822,-0.05955597912723729
6482.546826244037,-0.059262976085616925
6482.547826016253,-0.058964716388820566
6482.548825788468,-0.05866124209820093
6482.549825560683,-0.0583525949588345
6482.550825332898,-0.05803881639335108
6482.5518251051135,-0.057719947497198394
6482.552824877329,-0.057396029035350515
6482.553824649544,-0.05706710144046388
6482.55482442176,-0.056733204812480086
6482.555824193974,-0.05639437891967049
6482.55682396619,-0.056050663201113536
6482.557823738405,-0.05570209677059215
6482.558823510621,-0.05534871842189502
6482.559823282836,-0.0549905666355021
6482.560823055051,-0.054627679586631776
6482.561822827266,-0.054260095154623704
6482.5628225994815,-0.053887850933628224
6482.563822371697,-0.053510984244570285
6482.564822143912,-0.053129532148352844
6482.565821916127,-0.0527435314602619
6482.566821688342,-0.05235301876553277
6482.567821460558,-0.05195803043603469
6482.568821232773,-0.051558602648028785
6482.569821004989,-0.05115477140095243
6482.570820777204,-0.050746572537181234
6482.571820549419,-0.05033404176271855
6482.572820321634,-0.0499172146687613
6482.5738200938495,-0.04949612675408985
6482.574819866065,-0.04907081344822952
6482.57581963828,-0.04864131013533038
6482.576819410495,-0.048207652178712146
6482.57781918271,-0.04776987494602099
6482.578818954926,-0.04732801383494501
6482.579818727141,-0.04688210429943557
6482.580818499357,-0.04643218187638189
6482.581818271572,-0.04597828221268707
6482.582818043787,-0.04552044109269402
6482.583817816002,-0.04505869446591048
6482.584817588217,-0.04459307847498306
6482.585817360433,-0.044123629483870906
6482.586817132648,-0.04365038410617027
6482.587816904863,-0.04317337923354225
6482.588816677078,-0.04269265206419644
6482.589816449294,-0.04220824013138398
6482.590816221509,-0.0417201813318546
6482.591815993725,-0.04122851395423237
6482.59281576594,-0.040733276707266154
6482.593815538155,-0.04023450874791135
6482.59481531037,-0.03973224970920035
6482.595815082585,-0.03922653972786039
6482.596814854801,-0.038717419471638315
6482.597814627016,-0.038204930166292825
6482.598814399231,-0.03768911362221599
6482.599814171446,-0.03717001226064696
6482.600813943662,-0.03664766913944164
6482.601813715877,-0.03612212797836327
6482.602813488093,-0.03559343318385993
6482.603813260308,-0.03506162987329599
6482.6048130325225,-0.03452676389860551
6482.605812804738,-0.033988881869336574
6482.606812576953,-0.03344803117505644
6482.607812349169,-0.03290426000708853
6482.608812121384,-0.03235761737955301
6482.609811893599,-0.03180815314968367
6482.610811665814,-0.031255918037394505
6482.61181143803,-0.030700963644070527
6482.612811210245,-0.0301433424705579
6482.613810982461,-0.029583107934330166
6482.614810754675,-0.02902031438580806
6482.6158105268905,-0.028455017123811915
6482.616810299106,-0.02788727241012696
6482.617810071321,-0.02731713748316329
6482.618809843537,-0.02674467057069356
6482.619809615752,-0.02616993090165307
6482.620809387967,-0.025592978716987812
6482.621809160182,-0.025013875279537662
6482.622808932398,-0.024432682882942657
6482.623808704613,-0.023849464859561565
6482.624808476829,-0.023264285587392686
6482.625808249043,-0.022677210495987823
6482.6268080212585,-0.02208830607135106
6482.627807793474,-0.02149763985981468
6482.628807565689,-0.020905280470885315
6482.629807337905,-0.020311297579053932
6482.630807110119,-0.019715761924563962
6482.631806882335,-0.019118745313132474
6482.63280665455,-0.01852032061462011
6482.633806426766,-0.017920561760646256
6482.634806198981,-0.017319543741146866
6482.6358059711965,-0.016717342599873515
6482.636805743411,-0.01611403542883316
6482.6378055156265,-0.015509700361669378
6482.638805287842,-0.014904416565987016
6482.639805060057,-0.014298264234623223
6482.640804832273,-0.013691324575869137
6482.641804604487,-0.013083679802647475
6482.642804376703,-0.012475413120652505
6482.643804148918,-0.011866608715459881
6482.644803921134,-0.011257351738614951
6482.645803693349,-0.01064772829270902
6482.6468034655645,-0.010037825415454072
6482.647803237779,-0.009427731062767206
6482.6488030099945,-0.008817534090876742
6482.64980278221,-0.00820732423746251
6482.650802554425,-0.007597192101843479
6482.651802326641,-0.006987229124226435
6482.652802098855,-0.006377527564030131
6482.653801871071,-0.005768180477300088
6482.654801643286,-0.005159281693230032
6482.655801415502,-0.004550925789806822
6482.656801187717,-0.00394320806859654
6482.6578009599325,-0.003336224528690256
6482.658800732147,-0.002730071839828746
6482.6598005043625,-0.0021248473147261844
6482.660800276578,-0.0015206488806134998
6482.661800048793,-0.000917575050022732
6482.662799821009,-0.00031572489083427134
6482.663799593223,0.0002848020043906202
6482.664799365439,0.0008839055497691675
6482.665799137654,0.001481485198125101
6482.66679890987,0.0020774399736618295
6482.667798682085,0.0026716685052570583
6482.6687984543005,0.0032640690603550284
6482.669798226515,0.0038545395794324865
6482.67079799873,0.004442977711014446
6482.671797770946,0.0050292808472156905
6482.672797543161,0.005613346159783849
6482.673797315377,0.006195070636619649
6482.674797087591,0.006774351118749694
6482.675796859807,0.0073510843377268004
6482.676796632022,0.007925166953432558
6482.677796404238,0.008496495592256452
6482.678796176453,0.00906496688562549
6482.679795948668,0.009630477508858011
6482.680795720883,0.010192924220315036
6482.681795493098,0.01075220390082235
6482.682795265314,0.011308213593336345
6482.683795037529,0.011860850542826559
6482.684794809745,0.012410012236347967
6482.685794581959,0.012955596443276048
6482.686794354175,0.013497501255677892
6482.68779412639,0.014035625128792861
6482.688793898606,0.014569866921596654
6482.689793670821,0.015100125937423
6482.690793443036,0.015626301964617586
6482.691793215251,0.016148295317199163
6482.692792987466,0.016666006875503125
6482.693792759682,0.01717933812678301
6482.694792531897,0.01768819120574547
6482.695792304112,0.018192468934994214
6482.696792076327,0.018692074865358323
6482.697791848543,0.01918691331608034
6482.698791620758,0.01967688941483931
6482.699791392974,0.020161909137584068
6482.700791165189,0.020641879348151954
6482.701790937404,0.021116707837648484
6482.702790709619,0.02158630336356347
6482.703790481834,0.02205057568859936
6482.70479025405,0.022509435619187876
6482.705790026265,0.022962795043671116
6482.70678979848,0.02341056697012392
6482.707789570695,0.023852665563794416
6482.708789342911,0.02428900618414033
6482.709789115126,0.02471950542143901
6482.710788887342,0.025144081132949744
6482.711788659557,0.025562652478607305
6482.712788431772,0.025975139956226256
6482.713788203987,0.026381465436195798
6482.714787976202,0.026781552195645576
6482.715787748418,0.027175324952063044
6482.716787520633,0.027562709896343476
6482.717787292848,0.02794363472525401
6482.718787065063,0.028318028673293586
6482.719786837279,0.028685822543930907
6482.720786609494,0.02904694874020309
6482.7217863817095,0.029401341294658018
6482.722786153925,0.029748935898623898
6482.72378592614,0.030089669930789875
6482.724785698355,0.030423482485081907
6482.72578547057,0.03075031439781864
6482.726785242786,0.031070108274132317
6482.727785015001,0.031382808513640385
6482.728784787216,0.03168836133535405
6482.729784559431,0.03198671480181064
6482.730784331647,0.03227781884241737
6482.731784103862,0.032561625275994696
6482.7327838760775,0.03283808783250806
6482.733783648293,0.03310716217397731
6482.734783420508,0.03336880591455349
6482.735783192723,0.03362297863975293
6482.736782964938,0.03386964192483889
6482.737782737154,0.034108759352341186
6482.738782509369,0.034340296528704455
6482.739782281584,0.03456422110005606
6482.740782053799,0.03478050276708492
6482.741781826015,0.03498911329902286
6482.74278159823,0.035190026546720606
6482.7437813704455,0.03538321845481099
6482.74478114266,0.03556866707295221
6482.745780914876,0.035746352566144605
6482.746780687091,0.035916257224114415
6482.747780459306,0.03607836546975885
6482.748780231522,0.03623266386664682
6482.749780003737,0.036379141125570474
6482.750779775952,0.03651778811014308
6482.751779548167,0.0366485978414395
6482.752779320383,0.0367715655016758
6482.753779092598,0.03688668843692529
6482.7547788648135,0.0369939661588685
6482.755778637028,0.037093400345575206
6482.756778409243,0.037184994841316835
6482.757778181459,0.037268755655407874
6482.758777953674,0.03734469096007563
6482.75977772589,0.0374128110873577
6482.760777498104,0.037473128525027107
6482.76177727032,0.03752565791154542
6482.762777042535,0.03757041603004467
6482.763776814751,0.037607421801339205
6482.764776586966,0.03763669627596903
6482.7657763591815,0.037658262625276794
6482.766776131396,0.037672146131521096
6482.767775903611,0.03767837417702922
6482.768775675827,0.037676976232393175
6482.769775448042,0.03766798384371366
6482.770775220258,0.037651430618897114
6482.771774992472,0.03762735221301189
6482.772774764688,0.03759578631271006
6482.773774536903,0.03755677261972204
6482.774774309119,0.037510352833431605
6482.775774081334,0.0374565706325392
6482.7767738535495,0.03739547165582188
6482.777773625764,0.037327103481998324
6482.778773397979,0.03725151560870781
6482.779773170195,0.037168759430612416
6482.78077294241,0.03707888821663175
6482.781772714626,0.036981957086320266
6482.78277248684,0.036878022985397316
6482.783772259056,0.03676714466044087
6482.784772031271,0.0366493826327561
6482.785771803487,0.03652479917143073
6482.786771575702,0.03639345826558942
6482.787771347917,0.03625542559586032
6482.788771120132,0.036110768505067385
6482.789770892347,0.03595955596816309
6482.790770664563,0.03580185856141658
6482.791770436778,0.03563774843087331
6482.792770208994,0.03546729926010264
6482.793769981208,0.03529058623725064
6482.794769753424,0.03510768602141582
6482.795769525639,0.034918676708365945
6482.796769297855,0.034723637795614624
6482.79776907007,0.03452265014687653
6482.798768842285,0.03431579595592054
6482.7997686145,0.034103158709840396
6482.800768386715,0.03388482315176273
6482.801768158931,0.03366087524301287
6482.802767931146,0.03343140212475891
6482.803767703362,0.033196492079155246
6482.804767475576,0.03295623449000687
6482.805767247792,0.032710719802976636
6482.806767020007,0.032460039485357826
6482.807766792223,0.03220428598543505
6482.808766564438,0.03194355269145699
6482.8097663366525,0.03167793389024515
6482.810766108868,0.03140752472546355
6482.811765881083,0.0311324211555746
6482.812765653299,0.03085271991150704
6482.813765425514,0.030568518454062325
6482.81476519773,0.030279914931085842
6482.815764969944,0.02998700813442972
6482.81676474216,0.029689897456733887
6482.817764514375,0.029388682848052135
6482.818764286591,0.02908346477234972
6482.819764058806,0.028774344163899002
6482.8207638310205,0.028461422383599517
6482.821763603236,0.028144801175248788
6482.822763375451,0.027824582621790165
6482.823763147667,0.027500869101563952
6482.824762919882,0.02717376324458788
6482.825762692098,0.02684336788889319
6482.826762464312,0.026509786036942453
6482.827762236528,0.026173120812155334
6482.828762008743,0.025833475415568578
6482.829761780959,0.025490953082656632
6482.830761553174,0.02514565704033944
6482.8317613253885,0.024797690464203975
6482.832761097604,0.024447156435966098
6482.833760869819,0.024094157901199176
6482.834760642035,0.02373879762735566
6482.83576041425,0.023381178162107413
6482.836760186465,0.02302140179203007
6482.83775995868,0.02265957050165615
6482.838759730896,0.02229578593292112
6482.839759503111,0.021930149345025806
6482.840759275327,0.021562761574737903
6482.841759047542,0.021193722997154593
6482.842758819756,0.020823133486947688
6482.843758591972,0.020451092380111894
6482.844758364187,0.02007769843623637
6482.845758136403,0.019703049801319115
6482.846757908618,0.019327243971143337
6482.847757680833,0.018950377755234483
6482.848757453048,0.018572547241416368
6482.849757225264,0.018193847760984344
6482.850756997479,0.017814373854513125
6482.851756769695,0.01743421923831635
6482.85275654191,0.017053476771574427
6482.853756314124,0.016672238424146467
6482.85475608634,0.016290595245081422
6482.855755858555,0.015908637331842675
6482.856755630771,0.015526453800259434
6482.857755402986,0.015144132755217445
6482.858755175201,0.01476176126210066
6482.859754947416,0.01437942531899469
6482.860754719632,0.01399720982966195
6482.861754491847,0.013615198577297817
6482.862754264063,0.013233474199076214
6482.863754036278,0.012852118161492504
6482.864753808492,0.012471210736510885
6482.865753580708,0.012090830978522909
6482.866753352923,0.011711056702123315
6482.867753125139,0.01133196446070897
6482.868752897354,0.010953629525906325
6482.869752669569,0.010576125867832676
6482.870752441784,0.010199526136196143
6482.871752214,0.00982390164223918
6482.872751986215,0.009449322341530017
6482.87375175843,0.009075856817606177
6482.874751530645,0.008703572266473636
6482.87575130286,0.008332534481964731
6482.876751075076,0.007962807841957258
6482.877750847291,0.007594455295456524
6482.878750619507,0.0072275383505415285
6482.879750391722,0.006862117063175836
6482.880750163937,0.00649825002688309
6482.881749936152,0.006135994363286622
6482.882749708368,0.0057754057135121165
6482.883749480583,0.005416538230451816
6482.884749252798,0.005059444571888319
6482.885749025013,0.004704175894475635
6482.886748797228,0.004350781848574769
6482.887748569444,0.003999310573940872
6482.888748341659,0.003649808696258716
6482.889748113875,0.0033023213245231427
6482.89074788609,0.0029568920492609872
6482.891747658305,0.0026135629415908477
6482.89274743052,0.0022723745531169244
6482.893747202736,0.0019333659166528975
6482.894746974951,0.001596574547771513
6482.895746747166,0.0012620364471751236
6482.896746519381,0.0009297861038819623
6482.897746291596,0.0005998564992223888
6482.898746063812,0.00027227911163878616
6482.899745836027,-5.291607771775227e-05
6482.900745608243,-0.00037570057860133435
6482.901745380457,-0.0006960473845036782
6482.902745152673,-0.0010139309647134377
6482.903744924888,-0.0013293272556113864
6482.904744697104,-0.0016422136512109233
6482.905744469319,-0.0019525689929538593
6482.906744241534,-0.0022603735587718916
6482.907744013749,-0.002565609051424558
6482.908743785964,-0.002868258586124774
6482.90974355818,-0.0031683066774633255
6482.910743330395,-0.0034657392256439118
6482.911743102611,-0.0037605435020405535
6482.912742874825,-0.0040527081340894664
6482.913742647041,-0.004342223089527815
6482.914742419256,-0.004629079659992154
6482.915742191472,-0.00491327044398981
6482.916741963687,-0.005194789329256937
6482.917741735902,-0.0054736314745174475
6482.918741508117,-0.005749793290657494
6482.919741280332,-0.006023272421330557
6482.920741052548,-0.006294067723008538
6482.921740824763,-0.006562179244494565
6482.922740596979,-0.006827608205913455
6482.923740369193,-0.007090356977196019
6482.924740141409,-0.007350429056073594
6482.925739913624,-0.0076078290455993715
6482.92673968584,-0.007862562631213177
6482.927739458055,-0.008114636557366396
6482.92873923027,-0.00836405860372367
6482.929739002485,-0.008610837560957872
6482.9307387747,-0.008854983206154543
6482.931738546916,-0.00909650627784186
6482.932738319131,-0.00933541845066182
6482.933738091347,-0.009571732309698289
6482.934737863561,-0.009805461324477347
6482.935737635777,-0.0100366198226555
6482.936737407992,-0.010265222963411378
6482.937737180208,-0.010491286710556713
6482.938736952423,-0.010714827805382585
6482.939736724637,-0.010935863739257142
6482.940736496853,-0.0111544127259912
6482.941736269068,-0.011370493673988312
6482.942736041284,-0.011584126158196045
6482.943735813499,-0.011795330391875284
6482.944735585715,-0.012004127198204451
6482.945735357929,-0.012210537981735442
6482.946735130145,-0.012414584699718028
6482.94773490236,-0.012616289833309279
6482.948734674576,-0.012815676358684452
6482.949734446791,-0.013012767718065506
6482.950734219005,-0.013207587790683218
6482.951733991221,-0.013400160863688738
6482.952733763436,-0.013590511603030273
6482.953733535652,-0.013778665024310629
6482.954733307867,-0.01396464646364143
6482.955733080083,-0.014148481548509912
6482.956732852297,-0.014330196168674434
6482.957732624513,-0.014509816447105
6482.958732396728,-0.014687368710985329
6482.959732168943,-0.014862879462793223
6482.960731941159,-0.01503637535147629
6482.961731713373,-0.015207883143740148
6482.962731485589,-0.015377429695466481
6482.963731257804,-0.01554504192327837
6482.96473103002,-0.01571074677627038
6482.965730802235,-0.015874571207920823
6482.96673057445,-0.01603654214820351
6482.967730346665,-0.01619668647591601
6482.968730118881,-0.0163550309912411
6482.969729891096,-0.016511602388557513
6482.970729663311,-0.016666427229515775
6482.971729435527,-0.0168195319163943
6482.972729207741,-0.016970942665750596
6482.973728979957,-0.01712068548238217
6482.974728752172,-0.017268786133611335
6482.975728524388,-0.017415270123908293
6482.976728296603,-0.017560162669866562
6482.977728068818,-0.017703488675545012
6482.978727841033,-0.01784527270819064
6482.9797276132485,-0.017985538974356233
6482.980727385464,-0.018124311296426915
6482.981727157679,-0.018261613089569632
6482.982726929895,-0.018397467339119362
6482.983726702109,-0.01853189657841577
6482.984726474325,-0.01866492286710387
6482.98572624654,-0.01879656776991207
6482.986726018756,-0.018926852335920726
6482.987725790971,-0.019055797078334002
6482.988725563186,-0.019183421954767594
6482.989725335401,-0.019309746348064278
6482.9907251076165,-0.019434789047648893
6482.991724879832,-0.019558568231433895
6482.992724652047,-0.01968110144828616
6482.993724424263,-0.01980240560106549
6482.994724196477,-0.01992249693024488
6482.995723968693,-0.02004139099812255
6482.996723740908,-0.020159102673635573
6482.997723513124,-0.020275646117784804
6482.998723285339,-0.020391034769680856
6482.999723057554,-0.020505281333220746
6483.000722829769,-0.020618397764404713
6483.0017226019845,-0.020730395259302623
6483.0027223742,-0.020841284242679115
6483.003722146415,-0.020951074357286385
6483.00472191863,-0.02105977445383325
6483.005721690845,-0.02116739258163872
6483.006721463061,-0.021273935979977805
6483.007721235276,-0.021379411070126798
6483.008721007492,-0.02148382344811456
6483.009720779707,-0.021587177878185534
6483.010720551922,-0.02168947828697948
6483.011720324137,-0.021790727758431997
6483.0127200963525,-0.021890928529399167
6483.013719868568,-0.02199008198600891
6483.014719640783,-0.022088188660740894
6483.015719412998,-0.022185248230236425
6483.016719185213,-0.022281259513839025
6483.017718957429,-0.022376220472866075
6483.018718729644,-0.022470128210611277
6483.01971850186,-0.022562978973077293
6483.020718274075,-0.022654768150437377
6483.02171804629,-0.022745490279224147
6483.022717818505,-0.022835139045243175
6483.0237175907205,-0.0229237072872082
6483.024717362936,-0.023011187001094308
6483.025717135151,-0.023097569345204363
6483.026716907366,-0.023182844645943418
6483.027716679581,-0.02326700240429483
6483.028716451797,-0.023350031302990973
6483.029716224012,-0.023431919214370517
6483.030715996228,-0.023512653208913336
6483.031715768442,-0.023592219564443354
6483.032715540658,-0.023670603775988765
6483.033715312873,-0.02374779056628858
6483.0347150850885,-0.023823763896933952
6483.035714857304,-0.02389850698013225
6483.036714629519,-0.02397200229108166
6483.037714401734,-0.02404423158094395
6483.038714173949,-0.024115175890402695
6483.039713946165,-0.024184815563794305
6483.04071371838,-0.02425313026379864
6483.041713490596,-0.024320098986676048
6483.04271326281,-0.024385700078037146
6483.043713035026,-0.024449911249131512
6483.044712807241,-0.024512709593640904
6483.045712579456,-0.02457407160496236
6483.046712351672,-0.024633973193966048
6483.047712123887,-0.024692389707212273
6483.048711896102,-0.024749295945611437
6483.049711668317,-0.0248046661835102
6483.050711440533,-0.02485847418818638
6483.051711212748,-0.02491069323973467
6483.052710984964,-0.024961296151324645
6483.053710757178,-0.02501025528981222
6483.054710529394,-0.025057542596685464
6483.055710301609,-0.025103129609325574
6483.056710073824,-0.02514698748256388
6483.05770984604,-0.025189087010515778
6483.058709618255,-0.025229398648672744
6483.05970939047,-0.025267892536233676
6483.060709162685,-0.025304538518657035
6483.061708934901,-0.025339306170415434
6483.062708707116,-0.025372164817934455
6483.063708479332,-0.025403083562697545
6483.064708251546,-0.02543203130449899
6483.0657080237615,-0.025458976764827015
6483.066707795977,-0.025483888510359272
6483.067707568192,-0.025506734976552866
6483.068707340408,-0.02552748449131121
6483.069707112622,-0.02554610529870988
6483.070706884838,-0.025562565582763687
6483.071706657053,-0.025576833491217102
6483.072706429269,-0.025588877159340315
6483.073706201484,-0.025598664733713344
6483.0747059737,-0.02560616439598087
6483.075705745914,-0.025611344386560896
6483.0767055181295,-0.025614173028290756
6483.077705290345,-0.02561461874999449
6483.07870506256,-0.025612650109956128
6483.079704834776,-0.025608235819284023
6483.08070460699,-0.025601344765151777
6483.081704379206,-0.025591946033901924
6483.082704151421,-0.025580008933998827
6483.083703923637,-0.02556550301881774
6483.084703695852,-0.025548398109257315
6483.085703468068,-0.02552866431616332
6483.086703240282,-0.025506272062551294
6483.0877030124975,-0.02548119210561632
6483.088702784713,-0.025453395558518103
6483.089702556928,-0.025422853911929586
6483.090702329144,-0.025389539055337484
6483.091702101358,-0.025353423298083204
6483.092701873574,-0.0253144793901328
6483.093701645789,-0.025272680542564836
6483.094701418005,-0.025228000447765516
6483.09570119022,-0.02518041329932078
6483.096700962435,-0.02512989381159563
6483.09770073465,-0.025076417238991545
6483.0987005068655,-0.02501995939487328
6483.099700279081,-0.024960496670157054
6483.100700051296,-0.024898006051552433
6483.101699823512,-0.024832465139450727
6483.102699595726,-0.024763852165453026
6483.103699367942,-0.024692146009531478
6483.104699140157,-0.024617326216817607
6483.105698912373,-0.02453937301401184
6483.106698684588,-0.0244582673254086
6483.107698456803,-0.02437399078853161
6483.108698229018,-0.024286525769374016
6483.1096980012335,-0.024195855377238198
6483.110697773449,-0.02410196347917006
6483.111697545664,-0.024004834713982782
6483.11269731788,-0.023904454505865085
6483.113697090094,-0.02380080907756924
6483.11469686231,-0.023693885463174382
6483.115696634525,-0.02358367152042083
6483.116696406741,-0.023470155942611436
6483.117696178956,-0.02335332827007646
6483.118695951171,-0.02323317890119861
6483.119695723386,-0.02310969910299536
6483.1206954956015,-0.02298288102125602
6483.121695267817,-0.02285271769023132
6483.122695040032,-0.022719203041873637
6483.123694812248,-0.022582331914626243
6483.124694584462,-0.022442100061760267
6483.125694356678,-0.02229850415925821
6483.126694128893,-0.022151541813242977
6483.127693901109,-0.02200121156695136
6483.128693673324,-0.021847512907250895
6483.129693445539,-0.021690446270698736
6483.130693217754,-0.021530013049141164
6483.131692989969,-0.02136621559485211
6483.132692762185,-0.02119905722520905
6483.1336925344,-0.021028542226904708
6483.134692306615,-0.020854675859693052
6483.13569207883,-0.020677464359668444
6483.136691851046,-0.020496914942076908
6483.137691623261,-0.020313035803658938
6483.138691395477,-0.02012583612452352
6483.139691167692,-0.019935326069553404
6483.140690939907,-0.019741516789342047
6483.141690712122,-0.019544420420662918
6483.142690484337,-0.019344050086472147
6483.143690256553,-0.019140419895445872
6483.144690028768,-0.01893354494105374
6483.145689800983,-0.018723441300170226
6483.146689573198,-0.018510126031225524
6483.147689345414,-0.018293617171897647
6483.148689117629,-0.018073933736347348
6483.149688889845,-0.01785109571199718
6483.15068866206,-0.017625124055855895
6483.151688434275,-0.017396040690389233
6483.15268820649,-0.017163868498938174
6483.153687978705,-0.01692863132068582
6483.154687750921,-0.01669035394517447
6483.155687523136,-0.016449062106374784
6483.156687295351,-0.01620478247630952
6483.157687067566,-0.015957542658234836
6483.158686839782,-0.015707371179382777
6483.159686611997,-0.01545429748326929
6483.160686384213,-0.015198351921572565
6483.161686156427,-0.014939565745587033
6483.1626859286425,-0.014677971097258876
6483.163685700858,-0.014413600999809305
6483.164685473073,-0.014146489347952181
6483.165685245289,-0.013876670897712941
6483.166685017504,-0.013604181255856053
6483.167684789719,-0.013329056868928367
6483.168684561934,-0.013051335011925812
6483.16968433415,-0.012771053776590966
6483.170684106365,-0.012488252059349045
6483.171683878581,-0.012202969548889879
6483.172683650795,-0.01191524671340363
6483.1736834230105,-0.011625124787478189
6483.174683195226,-0.011332645758666436
6483.175682967441,-0.01103785235373191
6483.176682739657,-0.010740788024581747
6483.177682511872,-0.010441496933896054
6483.178682284087,-0.010140023940463285
6483.179682056302,-0.00983641458423133
6483.180681828518,-0.009530715071084293
6483.181681600733,-0.00922297225735511
6483.1826813729485,-0.008913233634084297
6483.183681145163,-0.008601547311035225
6483.1846809173785,-0.008287962000476429
6483.185680689594,-0.007972527000741482
6483.186680461809,-0.0076552921795769256
6483.187680234025,-0.00733630795728867
6483.18868000624,-0.007015625289696986
6483.189679778455,-0.006693295650909994
6483.19067955067,-0.00636937101592523
6483.191679322886,-0.006043903843068607
6483.192679095101,-0.005716947056279817
6483.1936788673165,-0.005388554027253206
6483.194678639531,-0.005058778557443119
6483.1956784117465,-0.004727674859942879
6483.196678183962,-0.004395297541246789
6483.197677956177,-0.004061701582904828
6483.198677728393,-0.0037269423230799604
6483.199677500607,-0.0033910754380182162
6483.200677272823,-0.0030541569234418873
6483.201677045038,-0.002716243075876331
6483.202676817254,-0.002377390473920972
6483.203676589469,-0.0020376559594751393
6483.2046763616845,-0.0016970966189293999
6483.205676133899,-0.0013557697643329935
6483.2066759061145,-0.0010137329145478917
6483.20767567833,-0.0006710437763998479
6483.208675450545,-0.0003277602258366088
6483.209675222761,1.6059710896788996e-05
6483.210674994975,0.0003603578760559567
6483.211674767191,0.0007050759991588742
6483.212674539406,0.0010501557157021107
6483.213674311622,0.001395538585822346
6483.214674083837,0.0017411661128939955
6483.2156738560525,0.0020869797620536564
6483.216673628267,0.0024329209786419664
6483.217673400482,0.002778931206553328
6483.218673172698,0.0031249519064838107
6483.219672944913,0.003470924574067464
6483.220672717129,0.0038167907578912507
6483.221672489343,0.004162492077378841
6483.222672261559,0.004507970240533577
6483.223672033774,0.00485316706153104
6483.22467180599,0.005198024478151741
6483.225671578205,0.005542484569044565
6483.22667135042,0.0058864895708117424
6483.227671122635,0.006229981894906273
6483.22867089485,0.006572904144332951
6483.229670667066,0.006915199130144341
6483.230670439281,0.007256809887723326
6483.231670211497,0.007597679692844045
6483.232669983711,0.007937752077503206
6483.233669755927,0.008276970845513884
6483.234669528142,0.008615280087853889
6483.235669300358,0.008952624197760752
6483.236669072573,0.009288947885565236
6483.237668844788,0.00962419619325513
6483.238668617003,0.009958314508760925
6483.239668389218,0.010291248579954945
6483.240668161434,0.0106229445283554
6483.241667933649,0.010953348862526892
6483.242667705865,0.01128240849116902
6483.243667478079,0.01161007073588482
6483.244667250295,0.011936283343621042
6483.24566702251,0.01226099449877248
6483.246666794726,0.012584152834942953
6483.247666566941,0.012905707446355991
6483.248666339156,0.01322560789890892
6483.249666111371,0.013543804240864704
6483.250665883586,0.013860247013176697
6483.251665655802,0.014174887259442274
6483.252665428017,0.01448767653548201
6483.253665200233,0.014798566918541768
6483.254664972447,0.015107511016115537
6483.255664744663,0.015414461974387256
6483.256664516878,0.01571937348629002
6483.257664289094,0.016022199799181253
6483.258664061309,0.016322895722132448
6483.259663833524,0.01662141663283211
6483.260663605739,0.016917718484100647
6483.261663377954,0.017211757810015965
6483.26266315017,0.01750349173164866
6483.263662922385,0.017792877962405976
6483.2646626946,0.01807987481298386
6483.265662466815,0.018364441195926885
6483.266662239031,0.018646536629795988
6483.267662011246,0.01892612124294455
6483.2686617834615,0.01920315577690374
6483.269661555677,0.019477601589378373
6483.270661327892,0.019749420656855223
6483.271661100107,0.020018575576825886
6483.272660872322,0.02028502956962678
6483.273660644538,0.020548746479899033
6483.274660416753,0.02080969077767128
6483.275660188968,0.02106782755906844
6483.276659961183,0.021323122546649687
6483.277659733399,0.02157554208937887
6483.278659505614,0.021825053162230785
6483.2796592778295,0.022071623365436693
6483.280659050045,0.02231522092337263
6483.28165882226,0.02255581468309432
6483.282658594475,0.022793374112522587
6483.28365836669,0.023027869298283456
6483.284658138906,0.02325927094320752
6483.285657911121,0.023487550363493377
6483.286657683336,0.023712679485540518
6483.287657455551,0.023934630842457467
6483.288657227767,0.024153377570251485
6483.289656999982,0.02436889340370689
6483.2906567721975,0.02458115267195942
6483.291656544412,0.02479013029377466
6483.292656316628,0.024995801772538902
6483.293656088843,0.025198143190971068
6483.294655861058,0.025397131205564433
6483.295655633274,0.025592743040767047
6483.296655405489,0.025784956482909648
6483.297655177704,0.025973749873889836
6483.298654949919,0.026159102104621242
6483.299654722135,0.02634099260825642
6483.30065449435,0.026519401353192414
6483.3016542665655,0.02669430883586777
6483.30265403878,0.026865696073360326
6483.303653810996,0.02703354459579519
6483.304653583211,0.027197836438572823
6483.305653355426,0.027358554134427372
6483.306653127642,0.027515680705325982
6483.307652899857,0.027669199654220256
6483.308652672072,0.02781909495666157
6483.309652444287,0.027965351052292302
6483.310652216503,0.02810795283622565
6483.311651988718,0.0282468856503268
6483.3126517609335,0.028382135274408644
6483.313651533148,0.02851368791735538
6483.314651305363,0.028641530208187205
6483.315651077579,0.028765649187079443
6483.316650849794,0.02888603229634919
6483.31765062201,0.029002667371422583
6483.318650394225,0.029115542631795558
6483.31965016644,0.029224646672000826
6483.320649938655,0.02932996845259386
6483.321649710871,0.029431497291170405
6483.322649483086,0.029529222853428072
6483.3236492553015,0.029623135144284392
6483.324649027516,0.02971322449906356
6483.325648799731,0.02979948157476414
6483.326648571947,0.029881897341419827
6483.327648344162,0.029960463073565504
6483.328648116378,0.03003517034182105
6483.329647888592,0.030106011004605446
6483.330647660808,0.030172977199994004
6483.331647433023,0.030236061337731827
6483.332647205239,0.030295256091416804
6483.333646977454,0.03035055439086549
6483.334646749669,0.030401949414675247
6483.335646521884,0.030449434582995854
6483.336646294099,0.030493003550523493
6483.337646066315,0.030532650199729637
6483.33864583853,0.030568368634336963
6483.339645610746,0.030600153173054034
6483.34064538296,0.03062799834357999
6483.341645155176,0.030651898876890085
6483.342644927391,0.030671849701812595
6483.343644699607,0.03068784593990729
6483.344644471822,0.030699882900655395
6483.345644244037,0.030707956076970782
6483.346644016252,0.03071206114104195
6483.347643788467,0.030712193940514394
6483.348643560683,0.030708350495022848
6483.349643332898,0.030700526993083115
6483.350643105114,0.030688719789353138
6483.351642877328,0.03067292540227315
6483.352642649544,0.030653140512094515
6483.353642421759,0.030629361959306895
6483.354642193975,0.030601586743472887
6483.35564196619,0.03056981202247903
6483.3566417384045,0.03053403511221144
6483.35764151062,0.030494253486663934
6483.358641282835,0.0304504647784859
6483.359641055051,0.030402666779976575
6483.360640827266,0.030350857444532035
6483.361640599482,0.030295034888550666
6483.362640371696,0.030235197393802458
6483.363640143912,0.03017134341026704
6483.364639916127,0.03010347155944501
6483.365639688343,0.030031580638146857
6483.366639460558,0.029955669622763272
6483.3676392327725,0.02987573767402063
6483.368639004988,0.029791784142225063
6483.369638777203,0.029703808572998446
6483.370638549419,0.029611810713509542
6483.371638321634,0.029515790519203396
6483.37263809385,0.029415748161031794
6483.373637866064,0.029311684033187294
6483.37463763828,0.02920359876134295
6483.375637410495,0.029091493211399286
6483.376637182711,0.028975368498739492
6483.377636954926,0.02885522599799308
6483.3786367271405,0.02873106735330762
6483.379636499356,0.0286028944891275
6483.380636271571,0.028470709621477956
6483.381636043787,0.028334515269752017
6483.382635816002,0.028194314268997468
6483.383635588218,0.028050109782700453
6483.384635360432,0.027901905316061713
6483.385635132648,0.027749704729761078
6483.386634904863,0.02759351225420547
6483.387634677079,0.027433332504255375
6483.388634449294,0.027269170494424566
6483.3896342215085,0.027101031654547445
6483.390633993724,0.02692892184590853
6483.391633765939,0.026752847377828126
6483.392633538155,0.02657281502469809
6483.39363331037,0.02638883204346122
6483.394633082585,0.02620090619152746
6483.3956328548,0.026009045745119596
6483.396632627016,0.025813259518040598
6483.397632399231,0.025613556880854066
6483.398632171447,0.02540994778046871
6483.399631943662,0.025202442760116985
6483.400631715876,0.024991052979717307
6483.401631488092,0.02477579023660853
6483.402631260307,0.024556666986644462
6483.403631032523,0.024333696365635288
6483.404630804738,0.02410689221112153
6483.405630576953,0.02387626908446512
6483.406630349168,0.023641842293240588
6483.407630121384,0.023403627913907963
6483.408629893599,0.023161642814747273
6483.409629665815,0.022915904679032647
6483.41062943803,0.02266643202842218
6483.411629210244,0.022413244246537376
6483.41262898246,0.022156361602703706
6483.413628754675,0.02189580527582109
6483.414628526891,0.021631597378330057
6483.415628299106,0.02136376098023637
6483.416628071321,0.021092320133153347
6483.417627843536,0.020817299894317784
6483.418627615752,0.02053872635053196
6483.419627387967,0.02025662664198061
6483.420627160182,0.019971028985868503
6483.421626932397,0.019681962699821004
6483.422626704612,0.019389458224987
6483.423626476828,0.019093547148780695
6483.424626249043,0.018794262227196296
6483.425626021259,0.018491637406627306
6483.426625793474,0.018185707845120327
6483.427625565689,0.017876509932991894
6483.428625337904,0.017564081312735968
6483.42962511012,0.017248460898149267
6483.430624882335,0.016929688892601717
6483.43162465455,0.016607806806379813
6483.432624426765,0.01628285747303176
6483.43362419898,0.015954885064644698
6483.434623971196,0.015623935105986208
6483.435623743411,0.015290054487444887
6483.436623515627,0.014953291476707528
6483.437623287842,0.014613695729113906
6483.438623060057,0.014271318296633948
6483.439622832272,0.013926211635415993
6483.440622604488,0.013578429611859196
6483.441622376703,0.01322802750716776
6483.442622148918,0.012875062020349408
6483.443621921133,0.012519591269625638
6483.444621693348,0.012161674792226435
6483.445621465564,0.011801373542547436
6483.446621237779,0.011438749888652818
6483.447621009995,0.011073867607112403
6483.44862078221,0.010706791876166645
6483.449620554425,0.010337589267218058
6483.45062032664,0.009966327734652574
6483.451620098856,0.009593076603998859
6483.452619871071,0.009217906558438028
6483.453619643286,0.008840889623680315
6483.454619415501,0.008462099151229264
6483.455619187716,0.008081609800057732
6483.456618959932,0.007699497516723661
6483.457618732147,0.00731583951395707
6483.458618504363,0.006930714247753053
6483.459618276577,0.006544201393008668
6483.460618048793,0.0061563818177444935
6483.461617821008,0.005767337555954212
6483.462617593224,0.005377151779127827
6483.463617365439,0.004985908766496088
6483.464617137654,0.0045936938740453025
6483.465616909869,0.004200593502352995
6483.466616682084,0.0038066950632959133
6483.4676164543,0.0034120869456826975
6483.468616226515,0.003016858479864161
6483.469615998731,0.0026210999013746472
6483.470615770945,0.0022249023136583015
6483.471615543161,0.0018283576499342933
6483.472615315376,0.0014315586342550871
6483.473615087592,0.0010345987418116905
6483.474614859807,0.0006375721585394763
6483.475614632022,0.00024057374007766829
6483.476614404237,-0.00015630102986509845
6483.477614176452,-0.00055295608168751
6483.478613948668,-0.0009492948025638398
6483.479613720883,-0.0013452200795539089
6483.480613493099,-0.0017406343431058623
6483.481613265313,-0.002135439610903866
6483.482613037529,-0.00252953753201386
6483.483612809744,-0.002922829431281561
6483.48461258196,-0.0033152163539379538
6483.485612354175,-0.0037065991103685737
6483.486612126389,-0.004096878321003882
6483.487611898605,-0.004485954461288974
6483.48861167082,-0.004873727906691746
6483.489611443036,-0.0052600989777095005
6483.490611215251,-0.005644967984834811
6483.491610987467,-0.006028235273442348
6483.492610759681,-0.0064098012685593125
6483.493610531897,-0.006789566519483169
6483.494610304112,-0.0071674317442114365
6483.495610076328,-0.0075432978736495225
6483.496609848543,-0.007917066095563797
6483.497609620757,-0.00828863789824845
6483.498609392973,-0.008657915113875923
6483.499609165188,-0.009024799961502022
6483.500608937404,-0.009389195089698056
6483.501608709619,-0.009751003618783562
6483.502608481835,-0.010110129182634394
6483.503608254049,-0.010466475970042055
6483.504608026265,-0.01081994876560123
6483.50560779848,-0.011170452990103497
6483.506607570695,-0.011517894740416064
6483.507607342911,-0.011862180828825265
6483.508607115125,-0.012203218821825249
6483.509606887341,-0.012540917078333047
6483.510606659556,-0.012875184787311892
6483.511606431772,-0.013205932004785427
6483.512606203987,-0.013533069690226218
6483.513605976203,-0.01385650974230285
6483.514605748417,-0.01417616503397086
6483.515605520633,-0.014491949446893717
6483.516605292848,-0.01480377790518121
6483.517605065063,-0.01511156640843359
6483.518604837279,-0.015415232064080884
6483.519604609493,-0.015714693119007785
6483.520604381709,-0.016009868990455554
6483.521604153924,-0.016300680296193203
6483.52260392614,-0.016587048883951263
6483.523603698355,-0.016868897860112274
6483.52460347057,-0.017146151617652927
6483.525603242785,-0.01741873586333352
6483.526603015001,-0.017686577644131028
6483.527602787216,-0.01794960537291258
6483.528602559431,-0.018207748853346528
6483.529602331647,-0.01846093930404851
6483.530602103861,-0.018709109381960177
6483.531601876077,-0.018952193204958424
6483.532601648292,-0.019190126373693116
6483.533601420508,-0.019422845992651514
6483.534601192723,-0.01965029069044802
6483.535600964938,-0.019872400639338084
6483.536600737153,-0.020089117573955755
6483.5376005093685,-0.020300384809274832
6483.538600281584,-0.020506147257794195
6483.539600053799,-0.02070635144594848
6483.540599826015,-0.020900945529745987
6483.541599598229,-0.02108987930963619
6483.542599370445,-0.02127310424460991
6483.54359914266,-0.02145057346553568
6483.544598914876,-0.021622241787736418
6483.545598687091,-0.02178806572281082
6483.546598459306,-0.021948003489704226
6483.547598231521,-0.022102015025034016
6483.5485980037365,-0.02225006199267463
6483.549597775952,-0.02239210779260721
6483.550597548167,-0.02252811756903891
6483.551597320382,-0.02265805821779686
6483.552597092597,-0.022781898393001664
6483.553596864813,-0.022899608513025294
6483.554596637028,-0.02301116076573839
6483.555596409244,-0.023116529113052193
6483.556596181459,-0.023215689294760387
6483.557595953674,-0.023308618831686424
6483.558595725889,-0.02339529702814222
6483.5595954981045,-0.02347570497370419
6483.56059527032,-0.0235498255443128
6483.561595042535,-0.023617643402701987
6483.56259481475,-0.023679144998165008
6483.563594586965,-0.02373431856566332
6483.564594359181,-0.02378315412428514
6483.565594131396,-0.023825643475060432
6483.566593903612,-0.02386178019813907
6483.567593675827,-0.023891559649338708
6483.568593448042,-0.023914978956068818
6483.569593220257,-0.023932037012637103
6483.5705929924725,-0.023942734474944258
6483.571592764688,-0.023947073754572768
6483.572592536903,-0.023945059012275362
6483.573592309118,-0.02393669615086868
6483.574592081333,-0.023921992807537807
6483.575591853549,-0.02390095834555746
6483.576591625764,-0.023873603845435836
6483.57759139798,-0.02383994209548761
6483.578591170195,-0.02379998758184273
6483.57959094241,-0.023753756477898073
6483.580590714625,-0.02370126663321937
6483.5815904868405,-0.023642537561900996
6483.582590259056,-0.023577590430391492
6483.583590031271,-0.023506448044792915
6483.584589803486,-0.023429134837642092
6483.585589575701,-0.023345676854181964
6483.586589347917,-0.023256101738131158
6483.587589120132,-0.02316043871695993
6483.588588892348,-0.023058718586680356
6483.589588664562,-0.022950973696158738
6483.590588436778,-0.022837237930957762
6483.591588208993,-0.022717546696716096
6483.592587981208,-0.022591936902072954
6483.593587753424,-0.0224604469411452
6483.594587525639,-0.022323116675564872
6483.595587297854,-0.0221799874160851
6483.596587070069,-0.02203110190376274
6483.597586842285,-0.021876504290726437
6483.5985866145,-0.02171624012053904
6483.599586386716,-0.021550356308163644
6483.60058615893,-0.021378901119542795
6483.601585931146,-0.021201924150800393
6483.602585703361,-0.021019476307076256
6483.603585475576,-0.0208316097810031
6483.604585247792,-0.02063837803083596
6483.605585020007,-0.020439835758243922
6483.606584792222,-0.020236038885774084
6483.607584564437,-0.020027044533997472
6483.608584336653,-0.01981291099834646
6483.609584108868,-0.019593697725653048
6483.610583881084,-0.019369465290397108
6483.611583653298,-0.01914027537067357
6483.612583425514,-0.018906190723887294
6483.613583197729,-0.01866727516218442
6483.614582969944,-0.018423593527628967
6483.61558274216,-0.01817521166713359
6483.616582514374,-0.01792219640715369
6483.61758228659,-0.017664615528154265
6483.618582058805,-0.017402537738859247
6483.619581831021,-0.017136032650293367
6483.620581603236,-0.016865170749626925
6483.621581375452,-0.016590023373834157
6483.622581147666,-0.016310662683176106
6483.6235809198815,-0.016027161634519123
6483.624580692097,-0.015739593954500267
6483.625580464312,-0.015448034112550912
6483.626580236528,-0.015152557293789878
6483.627580008742,-0.014853239371797342
6483.628579780958,-0.014550156881280689
6483.629579553173,-0.014243386990643358
6483.630579325389,-0.013933007474467601
6483.631579097604,-0.013619096685922063
6483.63257886982,-0.013301733529105124
6483.633578642034,-0.012980997431335189
6483.6345784142495,-0.012656968315399381
6483.635578186465,-0.01232972657177247
6483.63657795868,-0.011999353030818297
6483.637577730896,-0.011665928934986395
6483.63857750311,-0.011329535911016904
6483.639577275326,-0.010990255942167225
6483.640577047541,-0.010648171340474216
6483.641576819757,-0.010303364719065877
6483.642576591972,-0.009955918964536715
6483.643576364188,-0.009605917209401089
6483.644576136402,-0.0092534428046389
6483.6455759086175,-0.00889857929234807
6483.646575680833,-0.008541410378518202
6483.647575453048,-0.008182019905939733
6483.648575225264,-0.007820491827262778
6483.649574997478,-0.0074569101782196315
6483.650574769694,-0.00709135905102466
6483.651574541909,-0.006723922567965057
6483.652574314125,-0.006354684855195727
6483.65357408634,-0.005983730016751404
6483.654573858556,-0.0056111421087889825
6483.65557363077,-0.00523700511407301
6483.6565734029855,-0.0048614029167173166
6483.657573175201,-0.004484419277195758
6483.658572947416,-0.004106137807635063
6483.659572719632,-0.0037266419474027554
6483.660572491846,-0.0033460149390030073
6483.661572264062,-0.0029643398042931493
6483.662572036277,-0.002581699321033331
6483.663571808493,-0.002198175999781564
6483.664571580708,-0.0018138520611460645
6483.665571352923,-0.0014288094134064355
6483.666571125138,-0.0010431296305147976
6483.6675708973535,-0.0006568939304874474
6483.668570669569,-0.00027018315419705737
6483.669570441784,0.00011692225542519002
6483.670570214,0.0005043422737687801
6483.671569986214,0.0008919973144962225
6483.67256975843,0.0012798082490610365
6483.673569530645,0.0016676964257843227
6483.674569302861,0.002055583688483321
6483.675569075076,0.0024433923946457167
6483.676568847291,0.002831045433143796
6483.677568619506,0.0032184662414828577
6483.6785683917215,0.003605578822578637
6483.679568163937,0.00399230776105887
6483.680567936152,0.004378578239084549
6483.681567708367,0.004764316051686899
6483.682567480582,0.005149447621616594
6483.683567252798,0.005533900013702308
6483.684567025013,0.005917600948716266
6483.685566797229,0.006300478816745105
6483.686566569444,0.006682462690065025
6483.687566341659,0.007063482335521025
6483.688566113874,0.007443468226410753
6483.689565886089,0.007822351553874422
6483.690565658305,0.008200064237793127
6483.69156543052,0.00857653893719867
6483.692565202735,0.008951709060198793
6483.69356497495,0.009325508773422394
6483.694564747166,0.009697873010989795
6483.695564519381,0.010068737483013606
6483.696564291597,0.010438038683636047
6483.697564063812,0.01080571389860892
6483.698563836027,0.011171701212422601
6483.699563608242,0.01153593951499075
6483.700563380457,0.011898368507897637
6483.701563152673,0.012258928710215352
6483.702562924888,0.01261756146389838
6483.703562697103,0.012974208938763327
6483.704562469318,0.013328814137061974
6483.705562241534,0.013681320897655929
6483.706562013749,0.014031673899801663
6483.707561785965,0.014379818666554946
6483.70856155818,0.014725701567804164
6483.7095613303945,0.01506926982294253
6483.71056110261,0.015410471503189624
6483.711560874825,0.01574925553357329
6483.712560647041,0.016085571694583238
6483.713560419256,0.016419370623508053
6483.714560191471,0.016750603815467464
6483.715559963686,0.017079223624151756
6483.716559735902,0.017405183262280178
6483.717559508117,0.017728436801790013
6483.718559280333,0.018048939173767826
6483.719559052548,0.018366646168134194
6483.7205588247625,0.018681514433092943
6483.721558596978,0.018993501474355686
6483.722558369193,0.019302565654152195
6483.723558141409,0.019608666190036785
6483.724557913624,0.019911763153500624
6483.725557685839,0.020211817468399527
6483.726557458054,0.02050879090920657
6483.72755723027,0.020802646099098737
6483.728557002485,0.021093346507886662
6483.7295567747005,0.021380856449796516
6483.730556546915,0.021665141081113087
6483.7315563191305,0.021946166397693104
6483.732556091346,0.022223899232357736
6483.733555863561,0.022498307252173087
6483.734555635777,0.02276935895562722
6483.735555407992,0.023037023669712067
6483.736555180207,0.023301271546918023
6483.737554952422,0.023562073562148775
6483.738554724638,0.023819401509563427
6483.739554496853,0.024073227999352496
6483.7405542690685,0.02432352645445399
6483.741554041283,0.02457027110721513
6483.7425538134985,0.02481343699600497
6483.743553585714,0.025052999961782632
6483.744553357929,0.0252889366446255
6483.745553130145,0.02552122448022145
6483.746552902359,0.02574984169632881
6483.747552674575,0.025974767309207523
6483.74855244679,0.02619598112002493
6483.749552219006,0.026413463711239444
6483.750551991221,0.02662719644296528
6483.7515517634365,0.02683716144932133
6483.752551535651,0.02704334163476706
6483.7535513078665,0.027245720670428065
6483.754551080082,0.02744428299041352
6483.755550852297,0.027639013788127467
6483.756550624513,0.027829899012575314
6483.757550396727,0.028016925364666368
6483.758550168943,0.02820008029351281
6483.759549941158,0.028379351992724993
6483.760549713374,0.028554729396702495
6483.761549485589,0.028726202176920065
6483.7625492578045,0.028893760738207222
6483.763549030019,0.02905739621502003
6483.7645488022345,0.029217100467703264
6483.76554857445,0.029372866078741105
6483.766548346665,0.0295246863489943
6483.767548118881,0.029672555293921696
6483.768547891095,0.029816467639784086
6483.769547663311,0.029956418819828412
6483.770547435526,0.030092404970450383
6483.771547207742,0.03022442292733366
6483.772546979957,0.030352470221563742
6483.7735467521725,0.03047654507571463
6483.774546524387,0.030596646399905888
6483.775546296602,0.030712773787827816
6483.776546068818,0.03082492751273183
6483.777545841033,0.030933108523382987
6483.778545613249,0.031037318439971207
6483.779545385463,0.031137559549977642
6483.780545157679,0.031233834803992253
6483.781544929894,0.031326147811478626
6483.78254470211,0.031414502836481915
6483.783544474325,0.03149890479327565
6483.7845442465405,0.03157935924194297
6483.785544018755,0.031655872383887985
6483.78654379097,0.03172845105727284
6483.787543563186,0.03179710273237602
6483.788543335401,0.03186183550686785
6483.789543107617,0.03192265810099895
6483.790542879831,0.03197957985269806
6483.791542652047,0.032032610712575495
6483.792542424262,0.03208176123882888
6483.793542196478,0.03212704259204773
6483.794541968693,0.03216846652991353
6483.795541740908,0.03220604540179195
6483.796541513123,0.032239792143213646
6483.797541285338,0.032269720270239936
6483.798541057554,0.03229584387370966
6483.799540829769,0.032318177613363294
6483.800540601985,0.03233673671184038
6483.801540374199,0.03235153694854601
6483.802540146415,0.03236259465338227
6483.80353991863,0.03236992670034018
6483.804539690846,0.03237355050094767
6483.805539463061,0.03237348399756917
6483.806539235276,0.03236974565655225
6483.807539007491,0.03236235446121711
6483.808538779706,0.032351329904684686
6483.809538551922,0.03233669198253979
6483.810538324137,0.032318461185325796
6483.811538096352,0.032296658490867845
6483.812537868567,0.032271305356422086
6483.813537640783,0.03224242371064843
6483.814537412998,0.03221003594540473
6483.8155371852135,0.03217416490736048
6483.816536957429,0.03213483388942798
6483.817536729644,0.032092066622009446
6483.818536501859,0.03204588726405824
6483.819536274074,0.031996320393952865
6483.82053604629,0.031943391000182376
6483.821535818505,0.0318871244718421
6483.82253559072,0.03182754658893868
6483.823535362935,0.031764683512504
6483.824535135151,0.03169856177451772
6483.825534907366,0.03162920826763847
6483.8265346795815,0.03155665023474435
6483.827534451797,0.03148091525828379
6483.828534224012,0.03140203124943857
6483.829533996227,0.03132002643710128
6483.830533768442,0.031234929356670358
6483.831533540658,0.031146768838666454
6483.832533312873,0.031055573997174575
6483.833533085088,0.030961374218116896
6483.834532857303,0.030864199147361656
6483.835532629519,0.030764078678673895
6483.836532401734,0.03066104294151408
6483.8375321739495,0.030555122288691013
6483.838531946165,0.030446347283875696
6483.83953171838,0.03033474868898325
6483.840531490595,0.030220357451430202
6483.84153126281,0.030103204691274973
6483.842531035026,0.02998332168824982
6483.843530807241,0.0298607398686927
6483.844530579456,0.02973549079238808
6483.845530351671,0.029607606139326007
6483.846530123887,0.02947711769638922
6483.847529896102,0.02934405734397839
6483.8485296683175,0.0292084570425862
6483.849529440533,0.02907034881933118
6483.850529212748,0.028929764754462774
6483.851528984963,0.0287867369678495
6483.852528757178,0.028641297605462263
6483.853528529394,0.02849347882586515
6483.854528301609,0.028343312786725954
6483.855528073824,0.028190831631358795
6483.856527846039,0.028036067475311018
6483.857527618255,0.027879052393006455
6483.85852739047,0.02771981840445697
6483.8595271626855,0.02755839746205415
6483.8605269349,0.027394821437452855
6483.861526707115,0.027229122108558282
6483.862526479331,0.027061331146628134
6483.863526251546,0.026891480103501442
6483.864526023762,0.026719600398965593
6483.865525795977,0.026545723308272998
6483.866525568192,0.026369879949818948
6483.867525340407,0.026192101272992114
6483.868525112623,0.026012418046209136
6483.869524884838,0.02583086084514474
6483.8705246570535,0.025647460041168694
6483.871524429268,0.025462245790000813
6483.872524201483,0.025275248020594852
6483.873523973699,0.025086496424261837
6483.874523745914,0.024896020444042904
6483.87552351813,0.024703849264341094
6483.876523290344,0.024510011800820936
6483.87752306256,0.024314536690584004
6483.878522834775,0.024117452282627884
6483.879522606991,0.023918786628595257
6483.880522379206,0.023718567473818983
6483.881522151421,0.02351682224866842
6483.882521923636,0.023313578060201436
6483.883521695851,0.023108861684125757
6483.884521468067,0.022902699557072685
6483.885521240282,0.02269511776918567
6483.886521012498,0.022486142057025548
6483.887520784712,0.02227579779679397
6483.888520556928,0.02206410999787621
6483.889520329143,0.02185110329670411
6483.890520101359,0.02163680195093982
6483.891519873574,0.02142122983398052
6483.892519645789,0.021204410429783993
6483.893519418004,0.020986366828014316
6483.894519190219,0.020767121719506454
6483.895518962435,0.020546697392047685
6483.89651873465,0.020325115726473286
6483.897518506866,0.020102398193073006
6483.89851827908,0.019878565848304348
6483.899518051296,0.01965363933180804
6483.900517823511,0.019427638863720707
6483.901517595727,0.019200584242279183
6483.902517367942,0.01897249484171078
6483.903517140157,0.01874338961040346
6483.904516912372,0.018513287069349703
6483.905516684587,0.018282205310857724
6483.906516456803,0.01805016199752363
6483.907516229018,0.01781717436145811
6483.908516001234,0.01758325920376141
6483.909515773448,0.01734843289424029
6483.910515545664,0.017112711371361083
6483.911515317879,0.01687611014243299
6483.912515090095,0.01663864428401579
6483.91351486231,0.01640032844254635
6483.914514634525,0.016161176835177996
6483.91551440674,0.015921203250826875
6483.916514178955,0.015680421051419074
6483.917513951171,0.015438843173332295
6483.918513723386,0.015196482129025628
6483.919513495602,0.014953350008851007
6483.920513267816,0.014709458483040004
6483.921513040032,0.014464818803859584
6483.922512812247,0.014219441807930618
6483.923512584463,0.013973337918703019
6483.924512356678,0.01372651714908159
6483.9255121288925,0.013478989104196664
6483.926511901108,0.013230762984313917
6483.927511673323,0.012981847587877805
6483.928511445539,0.012732251314683375
6483.929511217754,0.012481982169171608
6483.93051098997,0.01223104776384368
6483.931510762184,0.01197945532278998
6483.9325105344,0.011727211685330014
6483.933510306615,0.011474323309759473
6483.934510078831,0.011220796277200951
6483.935509851046,0.01096663629555478
6483.9365096232605,0.010711848703546556
6483.937509395476,0.010456438474867878
6483.938509167691,0.010200410222406846
6483.939508939907,0.009943768202564934
6483.940508712122,0.009686516319656944
6483.941508484337,0.009428658130390916
6483.942508256552,0.009170196848424983
6483.943508028768,0.008911135348998464
6483.944507800983,0.008651476173634714
6483.945507573199,0.00839122153491357
6483.946507345414,0.008130373321311554
6483.947507117628,0.007868933102108315
6483.948506889844,0.007606902132358288
6483.949506662059,0.0073442813579269175
6483.950506434275,0.007081071420591262
6483.95150620649,0.006817272663205173
6483.952505978705,0.006552885134929498
6483.95350575092,0.006287908596527951
6483.954505523136,0.006022342525729356
6483.955505295351,0.005756186122656962
6483.956505067567,0.00548943831532545
6483.957504839782,0.0052220977652061825
6483.958504611996,0.0049541628728611824
6483.959504384212,0.004685631783646262
6483.960504156427,0.00441650239348366
6483.961503928643,0.004146772354704482
6483.962503700858,0.003876439081961126
6483.963503473073,0.0036054997582098394
6483.964503245288,0.003333951340763453
6483.965503017504,0.00306179056741436
6483.966502789719,0.0027890139626278406
6483.967502561934,0.002515617843805999
6483.96850233415,0.0022415983276227623
6483.969502106364,0.0019669513364306735
6483.97050187858,0.0016916726047404341
6483.971501650795,0.0014157576857743435
6483.972501423011,0.0011392019580948789
6483.973501195226,0.0008620006323096343
6483.974500967441,0.0005841487578537076
6483.975500739656,0.0003056412298504044
6483.976500511872,2.6472796050831993e-05
6483.977500284087,-0.00025336193614737974
6483.978500056302,-0.0005338684926023455
6483.979499828518,-0.0008150525252516398
6483.980499600732,-0.001096919804858251
6483.981499372948,-0.0013794762136798695
6483.982499145163,-0.0016627277380629024
6483.983498917379,-0.001946680460962863
6483.984498689594,-0.002231340554393029
6483.985498461809,-0.002516714271803445
6483.986498234024,-0.0028028079403924675
6483.98749800624,-0.0030896279533530807
6483.988497778455,-0.0033771807620561825
6483.98949755067,-0.003665472868172938
6483.990497322885,-0.003954510815738179
6483.9914970951,-0.004244301183156729
6483.992496867316,-0.004534850575154446
6483.993496639531,-0.00482616561467575
6483.994496411747,-0.005118252934729451
6483.995496183962,-0.005411119170184748
6483.996495956177,-0.005704770949519403
6483.997495728392,-0.0059992148865222325
6483.998495500608,-0.006294457571952183
6483.999495272823,-0.006590505565156412
6484.000495045038,-0.006887365385649914
6484.001494817253,-0.007185043504659331
6484.002494589468,-0.0074835463366336495
6484.003494361684,-0.0077828802307245365
6484.004494133899,-0.008083051462239107
6484.005493906115,-0.008384066224067958
6484.006493678329,-0.008685930618091309
6484.007493450545,-0.008988650646566045
6484.00849322276,-0.009292232203496306
6484.009492994976,-0.00959668106599011
6484.010492767191,-0.009902002885604314
6484.011492539406,-0.010208203179679933
6484.012492311621,-0.010515287322669731
6484.013492083836,-0.010823260537459757
6484.014491856052,-0.011132127886686508
6484.015491628267,-0.011441894264051313
6484.016491400483,-0.011752564385633673
6484.017491172697,-0.012064142781205269
6484.018490944913,-0.012376633785546596
6484.019490717128,-0.012690041529768187
6484.020490489344,-0.013004369932638636
6484.021490261559,-0.013319622691921681
6484.022490033774,-0.013635803275724643
6484.023489805989,-0.013952914913860642
6484.024489578204,-0.014270960589226892
6484.02548935042,-0.014589943029201342
6484.026489122635,-0.014909864697059797
6484.027488894851,-0.015230727783415316
6484.028488667065,-0.015552534197681392
6484.029488439281,-0.01587528555956
6484.030488211496,-0.01619898319055528
6484.031487983712,-0.016523628105513288
6484.032487755927,-0.016849221004187974
6484.033487528142,-0.017175762262833544
6484.034487300357,-0.017503251925823287
6484.035487072572,-0.017831689697295046
6484.036486844788,-0.018161074932823734
6484.037486617003,-0.01849140663112142
6484.038486389219,-0.018822683425765836
6484.039486161433,-0.01915490357695823
6484.040485933649,-0.01948806496331178
6484.041485705864,-0.01982216507367186
6484.04248547808,-0.020157200998969546
6484.043485250295,-0.02049316942410992
6484.04448502251,-0.02083006661989663
6484.045484794725,-0.021167888434994217
6484.04648456694,-0.021506630287929658
6484.047484339156,-0.021846287159134316
6484.048484111371,-0.02218685358302747
6484.049483883587,-0.022528323640142196
6484.050483655801,-0.022870690949294253
6484.051483428017,-0.02321394865979441
6484.052483200232,-0.0235580894437046
6484.053482972448,-0.023903105488138218
6484.054482744663,-0.024248988487605212
6484.055482516877,-0.024595729636402778
6484.056482289093,-0.024943319621052864
6484.057482061308,-0.025291748612788052
6484.058481833524,-0.025641006260087765
6484.059481605739,-0.02599108168126707
6484.060481377955,-0.02634196345712055
6484.061481150169,-0.02669363962362394
6484.062480922385,-0.027046097664696307
6484.0634806946,-0.027399324505025698
6484.064480466815,-0.027753306502961178
6484.065480239031,-0.028108029443474295
6484.066480011245,-0.028463478531192788
6484.067479783461,-0.02881963838350934
6484.068479555676,-0.02917649302376786
6484.069479327892,-0.0295340258745295
6484.070479100107,-0.029892219750920237
6484.071478872322,-0.030251056854061664
6484.072478644537,-0.03061051876458635
6484.073478416753,-0.030970586436239157
6484.074478188968,-0.03133124018956592
6484.075477961183,-0.03169245970569109
6484.076477733399,-0.03205422402018615
6484.077477505613,-0.03241651151703107
