Time,Filtered_ECG
6970.223715585569,-0.014791937388998849
6970.224715357785,-0.01476306927439425
6970.22571513,-0.01473359116729501
6970.226714902215,-0.01470350203583951
6970.22771467443,-0.014672800978304645
6970.228714446645,-0.01464148722372217
6970.229714218861,-0.014609560132427594
6970.230713991075,-0.014577019196539883
6970.231713763291,-0.014543864040370164
6970.232713535506,-0.014510094420757636
6970.233713307722,-0.014475710227330931
6970.234713079937,-0.014440711482693273
6970.235712852153,-0.014405098342529959
6970.236712624367,-0.014368871095636714
6970.237712396583,-0.01433203016386779
6970.238712168798,-0.01429457610200275
6970.239711941013,-0.014256509597530933
6970.240711713229,-0.014217831470352733
6970.241711485443,-0.014178542672396781
6970.242711257659,-0.014138644287152112
6970.243711029874,-0.014098137529114332
6970.24471080209,-0.01405702374314478
6970.245710574305,-0.014015304403741626
6970.246710346521,-0.013972981114221896
6970.247710118735,-0.013930055605813443
6970.248709890951,-0.013886529736655969
6970.249709663166,-0.013842405490710408
6970.250709435381,-0.013797684976576078
6970.251709207597,-0.013752370426215237
6970.252708979811,-0.013706464193585018
6970.253708752027,-0.013659968753176986
6970.254708524242,-0.013612886698464912
6970.255708296458,-0.013565220740261844
6970.256708068673,-0.013516973704987889
6970.2577078408885,-0.013468148532850636
6970.258707613103,-0.013418748275940523
6970.259707385319,-0.013368776096243831
6970.260707157534,-0.013318235263576391
6970.261706929749,-0.013267129153441304
6970.262706701965,-0.01321546124481425
6970.263706474179,-0.013163235117860085
6970.264706246395,-0.013110454451584583
6970.26570601861,-0.013057123021425195
6970.266705790826,-0.013003244696784716
6970.267705563041,-0.012948823438511685
6970.2687053352565,-0.012893863296331326
6970.269705107471,-0.01283836840623054
6970.270704879687,-0.012782342987800396
6970.271704651902,-0.012725791341539294
6970.272704424117,-0.012668717846119802
6970.273704196333,-0.01261112695562206
6970.274703968547,-0.01255302319673637
6970.275703740763,-0.012494411165937578
6970.276703512978,-0.012435295526633557
6970.277703285194,-0.012375681006290114
6970.278703057409,-0.01231557239353441
6970.2797028296245,-0.01225497453523888
6970.280702601839,-0.012193892333587577
6970.281702374055,-0.012132330743126824
6970.28270214627,-0.012070294767801838
6970.283701918485,-0.012007789457981054
6970.2847016907,-0.011944819907469643
6970.285701462915,-0.011881391250513688
6970.286701235131,-0.011817508658796305
6970.287701007346,-0.01175317733842693
6970.288700779562,-0.011688402526924858
6970.289700551777,-0.011623189490198027
6970.2907003239925,-0.011557543519518038
6970.291700096207,-0.011491469928492322
6970.292699868423,-0.01142497405003457
6970.293699640638,-0.011358061233334632
6970.294699412853,-0.011290736840829325
6970.295699185068,-0.011223006245175872
6970.296698957283,-0.011154874826229953
6970.297698729499,-0.011086347968030699
6970.298698501714,-0.01101743105579504
6970.29969827393,-0.01094812947292411
6970.300698046145,-0.01087844859802442
6970.30169781836,-0.010808393801946592
6970.302697590575,-0.010737970444844386
6970.30369736279,-0.010667183873256672
6970.304697135006,-0.010596039417214926
6970.305696907221,-0.01052454238737875
6970.306696679436,-0.010452698072201906
6970.307696451651,-0.010380511735131272
6970.308696223867,-0.010307988611841165
6970.309695996082,-0.010235133907505413
6970.310695768298,-0.010161952794109582
6970.311695540513,-0.010088450407805732
6970.312695312728,-0.010014631846312096
6970.313695084943,-0.009940502166360098
6970.314694857158,-0.009866066381191134
6970.315694629374,-0.009791329458105586
6970.316694401589,-0.009716296316066488
6970.317694173804,-0.009640971823360264
6970.318693946019,-0.009565360795316865
6970.319693718235,-0.009489467992091613
6970.32069349045,-0.009413298116510859
6970.321693262666,-0.0093368558119835
6970.322693034881,-0.009260145660480182
6970.323692807096,-0.00918317218058178
6970.324692579311,-0.009105939825598416
6970.325692351526,-0.00902845298176001
6970.326692123742,-0.00895071596647888
6970.327691895957,-0.008872733026684535
6970.328691668172,-0.008794508337230252
6970.329691440387,-0.008716045999370649
6970.330691212603,-0.008637350039309072
6970.331690984818,-0.00855842440681323
6970.332690757034,-0.008479272973897315
6970.333690529249,-0.008399899533568702
6970.334690301464,-0.008320307798637185
6970.335690073679,-0.008240501400584653
6970.336689845894,-0.008160483888493008
6970.33768961811,-0.008080258728028025
6970.338689390325,-0.007999829300476755
6970.33968916254,-0.007919198901835985
6970.340688934755,-0.007838370741949142
6970.341688706971,-0.0077573479436890075
6970.342688479186,-0.007676133542183654
6970.3436882514015,-0.007594730484083049
6970.344688023617,-0.007513141626863921
6970.345687795832,-0.007431369738170594
6970.346687568047,-0.007349417495189671
6970.347687340262,-0.007267287484056542
6970.348687112478,-0.007184982199291747
6970.349686884692,-0.0071025040432652125
6970.350686656908,-0.007019855325686292
6970.351686429123,-0.006937038263117423
6970.352686201339,-0.006854054978509192
6970.353685973554,-0.006770907500754534
6970.3546857457695,-0.00668759776425988
6970.355685517985,-0.006604127608531243
6970.3566852902,-0.006520498777773466
6970.357685062415,-0.006436712920501113
6970.35868483463,-0.006352771589159796
6970.359684606846,-0.006268676239756929
6970.36068437906,-0.006184428231501089
6970.361684151276,-0.006100028826449278
6970.362683923491,-0.006015479189161444
6970.363683695707,-0.0059307803863616415
6970.364683467922,-0.005845933386605242
6970.3656832401375,-0.005760939059951656
6970.366683012352,-0.005675798177642107
6970.367682784568,-0.005590511411782077
6970.368682556783,-0.005505079335028199
6970.369682328998,-0.005419502420279461
6970.370682101214,-0.005333781040372712
6970.371681873428,-0.005247915467782533
6970.372681645644,-0.0051619058743256245
6970.373681417859,-0.005075752330869895
6970.374681190075,-0.004989454807048448
6970.37568096229,-0.004903013170978666
6970.3766807345055,-0.004816427188986609
6970.37768050672,-0.004729696525336971
6970.378680278936,-0.004642820741968932
6970.379680051151,-0.004555799298238384
6970.380679823366,-0.00446863155066715
6970.381679595582,-0.004381316752699984
6970.382679367796,-0.004293854054470278
6970.383679140012,-0.004206242502575503
6970.384678912227,-0.004118481039863572
6970.385678684443,-0.004030568505231401
6970.386678456658,-0.003942503633437034
6970.3876782288735,-0.0038542850549267878
6970.388678001088,-0.003765911295678894
6970.389677773303,-0.0036773807770651085
6970.390677545519,-0.0035886918157317644
6970.391677317734,-0.003499842623501744
6970.39267708995,-0.003410831307298883
6970.393676862164,-0.0033216558690964317
6970.39467663438,-0.003232314205891382
6970.395676406595,-0.0031428041097066985
6970.396676178811,-0.0030531232676237353
6970.397675951026,-0.00296326926184733
6970.3986757232415,-0.0028732395698062413
6970.399675495456,-0.0027830315642916707
6970.400675267671,-0.00269264251363664
6970.401675039887,-0.0026020695819389678
6970.402674812102,-0.0025113098293304765
6970.403674584318,-0.0024203602122949727
6970.404674356532,-0.002329217584037391
6970.405674128748,-0.0022378786949063486
6970.406673900963,-0.0021463401928722443
6970.407673673179,-0.002054598624062925
6970.408673445394,-0.0019626504333588634
6970.409673217609,-0.0018704919650497232
6970.410672989824,-0.0017781194635541348
6970.411672762039,-0.0016855290742044762
6970.412672534255,-0.0015927168440984477
6970.41367230647,-0.0014996787230192644
6970.414672078685,-0.0014064105644263627
6970.4156718509,-0.0013129081265185999
6970.416671623116,-0.001219167073371986
6970.417671395331,-0.0011251829761540011
6970.418671167547,-0.0010309513144165072
6970.419670939762,-0.000936467477469173
6970.420670711977,-0.0008417267658352071
6970.421670484192,-0.0007467243927910382
6970.422670256407,-0.0006514554859914345
6970.423670028623,-0.0005559150891814246
6970.424669800838,-0.00046009816399629754
6970.425669573053,-0.00036399959185089793
6970.426669345268,-0.0002676141759193841
6970.427669117484,-0.0001709366432065453
6970.428668889699,-7.396164671167689e-05
6970.429668661915,2.3316232314116378e-05
6970.43066843413,0.00012090248201645225
6970.4316682063445,0.000218802657491432
6970.43266797856,0.0003170223782441437
6970.433667750775,0.0004155673255515248
6970.434667522991,0.0005144432397292887
6970.435667295206,0.0006136559173027049
6970.436667067421,0.000713211208081107
6970.437666839636,0.0008131150121360998
6970.438666611852,0.0009133732766835596
6970.439666384067,0.001013991992869672
6970.4406661562825,0.001114977192461453
6970.441665928498,0.0012163349444424354
6970.4426657007125,0.0013180713515144815
6970.443665472928,0.0014201925465069736
6970.444665245143,0.0015227046886949285
6970.445665017359,0.0016256139600278779
6970.446664789574,0.001728926561271615
6970.447664561789,0.0018326487080651546
6970.448664334004,0.0019367866268954661
6970.44966410622,0.002041346550992707
6970.450663878435,0.0021463347161488127
6970.4516636506505,0.002251757356462351
6970.452663422866,0.0023576207000125305
6970.4536631950805,0.0024639309644651636
6970.454662967296,0.002570694352613286
6970.455662739511,0.002677917047855004
6970.456662511727,0.0027856052096110425
6970.457662283942,0.002893764968684388
6970.458662056157,0.003002402422564363
6970.459661828372,0.0031115236306774765
6970.460661600588,0.003221134609587428
6970.461661372803,0.0033312413281467207
6970.4626611450185,0.003441849702602439
6970.463660917234,0.003552965591658816
6970.4646606894485,0.0036645947914992773
6970.465660461664,0.0037767430307706555
6970.466660233879,0.003889415965532212
6970.467660006095,0.0040026191741720655
6970.46865977831,0.004116358152293506
6970.469659550525,0.0042306383075735735
6970.47065932274,0.004345464954596185
6970.471659094956,0.004460843309661974
6970.472658867171,0.00457677848557692
6970.4736586393865,0.004693275486421757
6970.474658411602,0.004810339202304056
6970.475658183816,0.004927974404094744
6970.476657956032,0.005046185738150703
6970.477657728247,0.005164977721024919
6970.478657500463,0.005284354734165476
6970.479657272677,0.005404321018604517
6970.480657044893,0.005524880669638128
6970.481656817108,0.005646037631497951
6970.482656589324,0.005767795692015278
6970.483656361539,0.005890158477278302
6970.4846561337545,0.006013129446283221
6970.48565590597,0.006136711885579908
6970.486655678184,0.00626090890391291
6970.4876554504,0.0063857234268585765
6970.488655222615,0.00651115819145924
6970.489654994831,0.00663721574085551
6970.490654767045,0.006763898418917882
6970.491654539261,0.006891208364879055
6970.492654311476,0.007019147507968508
6970.493654083692,0.00714771756205108
6970.494653855907,0.007276920020271376
6970.495653628122,0.007406756149705985
6970.496653400337,0.007537226986025573
6970.497653172552,0.007668333328169028
6970.498652944768,0.007800075733031907
6970.499652716983,0.007932454510171542
6970.500652489199,0.008065469716531234
6970.501652261413,0.008199121151186001
6970.502652033629,0.008333408350112408
6970.503651805844,0.008468330580985062
6970.50465157806,0.008603886838002383
6970.505651350275,0.00874007583674435
6970.50665112249,0.008876896009064935
6970.507650894705,0.009014345498021924
6970.50865066692,0.009152422152846843
6970.509650439136,0.009291123523957634
6970.510650211351,0.009430446858016705
6970.511649983567,0.00957038909303679
6970.512649755781,0.00971094685353685
6970.513649527997,0.009852116445749924
6970.514649300212,0.009993893852884453
6970.515649072428,0.010136274730440206
6970.516648844643,0.010279254401579561
6970.517648616858,0.01042282785255457
6970.518648389073,0.010566989728189981
6970.519648161288,0.01071173432742229
6970.520647933504,0.010857055598894686
6970.521647705719,0.011002947136607755
6970.522647477935,0.011149402175625675
6970.523647250149,0.011296413587837723
6970.524647022365,0.011443973877774922
6970.52564679458,0.011592075178481752
6970.526646566796,0.011740709247443028
6970.527646339011,0.011889867462566178
6970.528646111226,0.012039540818219351
6970.529645883441,0.012189719921325884
6970.530645655656,0.012340394987515777
6970.531645427872,0.01249155583733488
6970.532645200087,0.012643191892512494
6970.533644972303,0.012795292172288074
6970.534644744517,0.012947845289797687
6970.535644516733,0.013100839448520805
6970.536644288948,0.013254262438788094
6970.537644061164,0.013408101634350834
6970.538643833379,0.013562343989012793
6970.539643605594,0.013716976033325494
6970.540643377809,0.01387198387134806
6970.541643150024,0.014027353177473018
6970.54264292224,0.0141830691933197
6970.543642694455,0.014339116724697181
6970.54464246667,0.014495480138638859
6970.545642238885,0.014652143360511103
6970.546642011101,0.01480908987119861
6970.547641783316,0.014966302704369354
6970.548641555532,0.015123764443822107
6970.549641327747,0.015281457220919753
6970.550641099962,0.015439362712111557
6970.551640872177,0.015597462136547667
6970.552640644392,0.015755736253788927
6970.553640416608,0.015914165361615093
6970.554640188823,0.016072729293934277
6970.555639961038,0.016231407418796393
6970.556639733253,0.016390178636513254
6970.557639505469,0.01654902137788793
6970.558639277684,0.01670791360255606
6970.5596390499,0.016866832797441944
6970.560638822115,0.017025755975332436
6970.561638594329,0.01718465967357192
6970.562638366545,0.017343519952882046
6970.56363813876,0.01750231239631027
6970.564637910976,0.017661012108311513
6970.565637683191,0.017819593713967845
6970.566637455406,0.017978031358351243
6970.567637227621,0.01813629870603482
6970.568636999837,0.018294368940758213
6970.569636772052,0.01845221476525301
6970.570636544268,0.018609808401234232
6970.571636316483,0.01876712158956415
6970.572636088697,0.018924125590594545
6970.573635860913,0.019080791184693698
6970.574635633128,0.019237088672964055
6970.575635405344,0.019392987878156576
6970.576635177559,0.019548458145787387
6970.577634949774,0.019703468345462438
6970.578634721989,0.01985798687241548
6970.579634494205,0.020011981649264775
6970.58063426642,0.020165420127993855
6970.581634038636,0.020318269292161552
6970.582633810851,0.02047049565934664
6970.583633583065,0.02062206528383233
6970.584633355281,0.020772943759535947
6970.585633127496,0.020923096223189313
6970.586632899712,0.021072487357775265
6970.587632671927,0.021221081396225867
6970.588632444142,0.021368842125388015
6970.589632216357,0.02151573289026211
6970.590631988573,0.02166171659851949
6970.591631760788,0.021806755725304317
6970.592631533003,0.02195081231832546
6970.593631305219,0.022093848003243575
6970.594631077433,0.022235823989358493
6970.595630849649,0.02237670107560161
6970.596630621864,0.022516439656837816
6970.59763039408,0.022654999730481032
6970.598630166295,0.022792340903427237
6970.59962993851,0.02292842239930849
6970.600629710725,0.0230632030660712
6970.601629482941,0.023196641383881545
6970.602629255156,0.023328695473360556
6970.603629027371,0.023459323104151032
6970.604628799587,0.023588481703818054
6970.605628571801,0.023716128367084414
6970.606628344017,0.02384221986540196
6970.607628116232,0.023966712656859367
6970.608627888448,0.024089562896426504
6970.609627660662,0.02421072644653515
6970.610627432878,0.024330158887995414
6970.611627205093,0.024447815531246652
6970.6126269773085,0.02456365142794126
6970.613626749524,0.024677621382859012
6970.614626521739,0.02478967996614913
6970.615626293955,0.02489978152589663
6970.616626066169,0.02500788020100884
6970.617625838385,0.02511392993441774
6970.6186256106,0.025217884486593057
6970.619625382816,0.025319697449361037
6970.62062515503,0.025419322260023386
6970.621624927246,0.025516712215770728
6970.622624699461,0.025611820488384868
6970.6236244716765,0.025704600139223984
6970.624624243892,0.025795004134484767
6970.625624016107,0.0258829853607354
6970.626623788322,0.02596849664071316
6970.627623560537,0.026051490749380388
6970.628623332753,0.026131920430232353
6970.629623104968,0.02620973841185054
6970.630622877184,0.02628489742469486
6970.631622649398,0.026357350218128232
6970.632622421614,0.026427049577666825
6970.633622193829,0.02649394834244925
6970.6346219660445,0.026557999422917727
6970.63562173826,0.026619155818704183
6970.636621510475,0.026677370636713965
6970.63762128269,0.026732597109399764
6970.638621054905,0.026784788613218067
6970.639620827121,0.02683389868726035
6970.640620599336,0.026879881052051094
6970.641620371552,0.026922689628504477
6970.642620143766,0.02696227855703156
6970.643619915982,0.026998602216789434
6970.644619688197,0.027031615245063898
6970.6456194604125,0.027061272556777066
6970.646619232628,0.02708752936411136
6970.647619004843,0.02711034119624126
6970.648618777058,0.02712966391916424
6970.649618549273,0.027145453755622287
6970.650618321489,0.027157667305105156
6970.651618093704,0.02716626156392666
6970.65261786592,0.02717119394536487
6970.653617638134,0.02717242229985697
6970.65461741035,0.027169904935239225
6970.655617182565,0.0271636006370221
6970.6566169547805,0.02715346868869061
6970.657616726996,0.027139468892019552
6970.658616499211,0.027121561587393275
6970.659616271426,0.027099707674119566
6970.660616043641,0.027073868630727253
6970.661615815857,0.02704400653523723
6970.662615588072,0.02701008408539674
6970.663615360288,0.02697206461886693
6970.664615132502,0.02692991213335397
6970.665614904718,0.02688359130667403
6970.666614676933,0.026833067516742828
6970.6676144491485,0.026778306861480545
6970.668614221364,0.0267192761786229
6970.669613993579,0.026655943065429493
6970.670613765794,0.026588275898280275
6970.671613538009,0.026516243852151004
6970.672613310225,0.026439816919958233
6970.67361308244,0.026358965931764324
6970.674612854655,0.026273662573832655
6970.67561262687,0.02618387940752311
6970.676612399086,0.026089589888017826
6970.677612171301,0.025990768382867208
6970.678611943516,0.02588739019034619
6970.679611715732,0.025779431557611095
6970.680611487947,0.025666869698647427
6970.681611260162,0.025549682811999447
6970.682611032377,0.025427850098272475
6970.683610804593,0.025301351777399197
6970.684610576808,0.025170169105661645
6970.685610349023,0.025034284392460665
6970.686610121238,0.024893681016824962
6970.687609893454,0.02474834344365209
6970.688609665669,0.024598257239673915
6970.689609437884,0.024443409089139268
6970.6906092101,0.024283786809206568
6970.691608982314,0.024119379365039318
6970.69260875453,0.02395017688459736
6970.693608526745,0.02377617067311673
6970.694608298961,0.023597353227270905
6970.695608071176,0.02341371824900625
6970.696607843391,0.023225260659044285
6970.697607615606,0.023031976610043567
6970.6986073878215,0.02283386349941396
6970.699607160037,0.022630919981776295
6970.700606932252,0.022423145981060717
6970.701606704468,0.022210542702237362
6970.702606476682,0.021993112642673333
6970.703606248898,0.021770859603110277
6970.704606021113,0.021543788698257346
6970.705605793329,0.021311906366994586
6970.706605565544,0.021075220382182243
6970.707605337759,0.020833739860071875
6970.708605109974,0.020587475269315408
6970.7096048821895,0.020336438439568612
6970.710604654405,0.020080642569685746
6970.71160442662,0.019820102235501926
6970.712604198836,0.01955483339719995
6970.71360397105,0.019284853406258004
6970.714603743266,0.019010181011974495
6970.715603515481,0.01873083636756616
6970.716603287697,0.018446841035835455
6970.717603059912,0.01815821799440322
6970.718602832127,0.01786499164050265
6970.719602604342,0.017567187795330855
6970.7206023765575,0.017264833707954508
6970.721602148773,0.016957958058766442
6970.722601920988,0.016646590962490316
6970.723601693204,0.01633076397073084
6970.724601465418,0.016010510074067383
6970.725601237634,0.015685863703689032
6970.726601009849,0.015356860732569536
6970.727600782065,0.015023538476180626
6970.72860055428,0.014685935692742376
6970.729600326495,0.014344092583009418
6970.73060009871,0.013998050789591711
6970.7315998709255,0.013647853395808653
6970.732599643141,0.013293544924075066
6970.733599415356,0.012935171333817585
6970.734599187572,0.01257278001891979
6970.735598959786,0.012206419804694266
6970.736598732002,0.011836140944379844
6970.737598504217,0.011461995115162252
6970.738598276433,0.011084035413716541
6970.739598048647,0.010702316351269864
6970.740597820863,0.010316893848183352
6970.741597593078,0.009927825228052035
6970.7425973652935,0.009535169211321907
6970.743597137509,0.009138985908423443
6970.744596909724,0.008739336812420968
6970.74559668194,0.008336284791177507
6970.746596454154,0.007929894079034824
6970.74759622637,0.007520230268008565
6970.748595998585,0.007107360298498526
6970.749595770801,0.006691352449514246
6970.750595543015,0.00627227632841621
6970.751595315231,0.005850202860173034
6970.752595087446,0.005425204276135042
6970.7535948596615,0.0049973541023246035
6970.754594631877,0.004566727147243613
6970.755594404092,0.004133399489198439
6970.756594176307,0.00369744846314272
6970.757593948522,0.003258952647038395
6970.758593720738,0.002817991847735535
6970.759593492953,0.0023746470863717085
6970.760593265169,0.0019290005832919032
6970.761593037383,0.0014811357424903417
6970.762592809599,0.001031137135575881
6970.763592581814,0.0005790904852630704
6970.764592354029,0.0001250826483913144
6970.765592126245,-0.00033079840152505977
6970.76659189846,-0.0007884635922127199
6970.767591670675,-0.0012478227710178975
6970.76859144289,-0.0017087847237441305
6970.769591215106,-0.0021712571939456675
6970.770590987321,-0.0026351469026731117
6970.771590759537,-0.003100359568668072
6970.772590531751,-0.003566799929003857
6970.773590303967,-0.004034371760169572
6970.774590076182,-0.004502977899595275
6970.775589848397,-0.0049725202676161005
6970.776589620613,-0.005442899889873426
6970.777589392828,-0.005914016920151185
6970.778589165043,-0.006385770663645351
6970.779588937258,-0.006858059600664425
6970.780588709474,-0.007330781410758412
6970.781588481689,-0.007803832997273441
6970.782588253905,-0.008277110512328678
6970.783588026119,-0.00875050938221179
6970.784587798335,-0.009223924333188674
6970.78558757055,-0.009697249417722736
6970.786587342765,-0.01017037804109848
6970.787587114981,-0.010643202988443675
6970.788586887196,-0.011115616452143911
6970.789586659411,-0.011587510059642845
6970.790586431626,-0.012058774901621088
6970.791586203842,-0.012529301560546347
6970.792585976057,-0.01299898013958716
6970.793585748273,-0.013467700291882302
6970.794585520487,-0.013935351250157733
6970.795585292703,-0.014401821856682762
6970.796585064918,-0.01486700059355682
6970.797584837133,-0.015330775613318016
6970.798584609349,-0.015793034769864264
6970.799584381564,-0.016253665649677486
6970.800584153779,-0.016712555603340923
6970.801583925994,-0.017169591777339267
6970.80258369821,-0.01762466114613101
6970.803583470425,-0.018077650544482005
6970.80458324264,-0.018528446700049123
6970.805583014855,-0.01897693626620256
6970.806582787071,-0.019423005855075184
6970.807582559286,-0.019866542070827213
6970.808582331501,-0.020307431543114315
6970.809582103717,-0.020745560960747148
6970.810581875932,-0.02118081710553036
6970.811581648147,-0.021613086886269006
6970.812581420362,-0.02204225737293053
6970.813581192578,-0.022468215830950516
6970.814580964793,-0.02289084975567054
6970.815580737008,-0.023310046906896652
6970.816580509223,-0.023725695343566985
6970.817580281439,-0.024137683458517002
6970.818580053654,-0.024545900013330842
6970.819579825869,-0.02495023417326696
6970.820579598085,-0.02535057554224613
6970.821579370299,-0.02574681419788957
6970.822579142515,-0.026138840726594694
6970.82357891473,-0.026526546258635892
6970.824578686946,-0.026909822503277416
6970.825578459161,-0.027288561783885407
6970.826578231376,-0.02766265707302606
6970.827578003591,-0.028032002027536865
6970.828577775807,-0.0283964910235582
6970.829577548022,-0.028756019191512678
6970.830577320237,-0.029110482451020055
6970.831577092453,-0.029459777545736
6970.832576864667,-0.02980380207810351
6970.833576636883,-0.030142454544006263
6970.834576409098,-0.03047563436731362
6970.835576181314,-0.030803241934307446
6970.836575953529,-0.031125178627981323
6970.837575725744,-0.031441346862202894
6970.838575497959,-0.03175165011573043
6970.839575270175,-0.03205599296607477
6970.84057504239,-0.032354281123197846
6970.841574814605,-0.032646421463039324
6970.842574586821,-0.03293232206086273
6970.843574359035,-0.03321189222441275
6970.844574131251,-0.033485042526874974
6970.845573903466,-0.03375168483962964
6970.846573675682,-0.034011732364790465
6970.847573447897,-0.03426509966751935
6970.848573220112,-0.03451170270810773
6970.849572992327,-0.034751458873814825
6970.850572764542,-0.03498428701045316
6970.851572536758,-0.035210107453711316
6970.852572308973,-0.03542884206020415
6970.853572081189,-0.03564041423824065
6970.854571853403,-0.035844748978299534
6970.855571625619,-0.03604177288320279
6970.856571397834,-0.03623141419797736
6970.85757117005,-0.03641360283939491
6970.858570942265,-0.03658827042517959
6970.85957071448,-0.03675535030287337
6970.860570486695,-0.03691477757834831
6970.86157025891,-0.03706648914395479
6970.862570031126,-0.03721042370629418
6970.863569803341,-0.03734652181360429
6970.864569575557,-0.0374747258827453
6970.865569347771,-0.03759498022577404
6970.866569119987,-0.0377072310760936
6970.867568892202,-0.03781142661416565
6970.868568664418,-0.03790751699277238
6970.869568436632,-0.03799545436181499
6970.870568208848,-0.03807519289263578
6970.871567981063,-0.03814668880185086
6970.872567753278,-0.03820990037468067
6970.873567525494,-0.0382647879877656
6970.874567297709,-0.03831131413145425
6970.875567069925,-0.03834944343155194
6970.876566842139,-0.038379142670517195
6970.877566614355,-0.03840038080809391
6970.87856638657,-0.038413129001366945
6970.879566158786,-0.03841736062422902
6970.880565931,-0.038413051286246544
6970.881565703216,-0.0384001788509125
6970.882565475431,-0.038378723453274186
6970.883565247646,-0.03834866751692398
6970.884565019862,-0.038309995770341373
6970.885564792077,-0.03826269526257453
6970.886564564292,-0.03820675537824975
6970.887564336507,-0.038142167851897106
6970.888564108723,-0.038068926781580546
6970.889563880938,-0.03798702864182066
6970.890563653154,-0.03789647229579841
6970.891563425368,-0.037797259006828225
6970.892563197584,-0.0376893924490889
6970.893562969799,-0.03757287871760102
6970.894562742014,-0.03744772633743973
6970.89556251423,-0.03731394627217199
6970.896562286445,-0.03717155193150746
6970.89756205866,-0.03702055917815244
6970.898561830875,-0.03686098633385628
6970.899561603091,-0.03669285418463984
6970.900561375306,-0.036516185985195675
6970.9015611475215,-0.03633100746244958
6970.902560919736,-0.036137346818273124
6970.903560691952,-0.03593523473133666
6970.904560464167,-0.035724704358092434
6970.905560236382,-0.035505791332877186
6970.906560008598,-0.035278533767123636
6970.907559780813,-0.035042972247670445
6970.908559553028,-0.03479914983416024
6970.909559325243,-0.03454711205551565
6970.910559097459,-0.034286906905483666
6970.911558869674,-0.03401858483723931
6970.9125586418895,-0.033742198757040265
6970.913558414104,-0.03345780401692474
6970.91455818632,-0.03316545840644557
6970.915557958535,-0.032865222143434465
6970.91655773075,-0.032557157863790716
6970.917557502966,-0.032241330610289456
6970.918557275181,-0.03191780782040484
6970.919557047396,-0.03158665931314407
6970.920556819611,-0.031247957274888466
6970.921556591827,-0.030901776244238104
6970.922556364042,-0.03054819309585671
6970.9235561362575,-0.03018728702331394
6970.924555908472,-0.02981913952092225
6970.925555680688,-0.02944383436456613
6970.926555452903,-0.02906145759152184
6970.927555225118,-0.02867209747926635
6970.928554997334,-0.028275844523274658
6970.929554769549,-0.027872791413805602
6970.930554541764,-0.027463033011676845
6970.931554313979,-0.027046666323030714
6970.932554086195,-0.026623790473093475
6970.93355385841,-0.026194506678931515
6970.934553630625,-0.025758918221208925
6970.93555340284,-0.02531713041495192
6970.936553175055,-0.02486925057932653
6970.937552947271,-0.024415388006437003
6970.938552719486,-0.0239556539291533
6970.939552491702,-0.023490161487976943
6970.940552263917,-0.023019025696955343
6970.941552036132,-0.0225423634086555
6970.942551808347,-0.02206029327820886
6970.943551580563,-0.021572935726439757
6970.944551352778,-0.021080412902091037
6970.945551124993,-0.020582848643161178
6970.946550897208,-0.020080368437368306
6970.947550669423,-0.019573099381757376
6970.948550441639,-0.019061170141467906
6970.949550213854,-0.018544710907680666
6970.95054998607,-0.018023853354762857
6970.951549758284,-0.0174987305966325
6970.9525495305,-0.016969477142364017
6970.953549302715,-0.016436228851058134
6970.954549074931,-0.015899122886000497
6970.955548847146,-0.015358297668134418
6970.956548619361,-0.014813892828874143
6970.957548391576,-0.01426604916228575
6970.958548163791,-0.013714908576663357
6970.959547936007,-0.013160614045528773
6970.960547708222,-0.012603309558082892
6970.961547480438,-0.012043140069137372
6970.962547252652,-0.011480251448555152
6970.963547024868,-0.010914790430228473
6970.964546797083,-0.010346904560622887
6970.965546569299,-0.00977674214691565
6970.966546341514,-0.009204452204756575
6970.9675461137285,-0.008630184405679116
6970.968545885944,-0.008054089024189052
6970.969545658159,-0.007476316884557832
6970.970545430375,-0.0068970193073472795
6970.97154520259,-0.006316348055692088
6970.972544974806,-0.005734455281366314
6970.97354474702,-0.005151493470659795
6970.974544519236,-0.004567615390090186
6970.975544291451,-0.003982974031975903
6970.976544063667,-0.0033977225598947843
6970.977543835882,-0.0028120142540527357
6970.9785436080965,-0.002226002456585856
6970.979543380312,-0.0016398405168187907
6970.980543152527,-0.0010536817365012219
6970.981542924743,-0.00046767931504353643
6970.982542696958,0.00011801370522810246
6970.983542469174,0.000703244493777905
6970.984542241388,0.0012878604865093016
6970.985542013604,0.0018717094403388481
6970.986541785819,0.0024546394876784434
6970.9875415580345,0.00303649919080999
6970.98854133025,0.0036171375961374366
6970.9895411024645,0.004196404288301877
6970.99054087468,0.004774149444145992
6970.991540646895,0.005350223886514644
6970.992540419111,0.005924479137878846
6970.993540191326,0.006496767473770608
6970.994539963542,0.007066941976016421
6970.995539735756,0.007634856585757284
6970.996539507972,0.00820036615624339
6970.997539280187,0.008763326505391732
6970.9985390524025,0.009323594468095017
6970.999538824618,0.009881027948270438
6971.0005385968325,0.010435485970636761
6971.001538369048,0.010986828732208163
6971.002538141263,0.011534917653492979
6971.003537913479,0.012079615429385125
6971.004537685694,0.012620786079735434
6971.00553745791,0.01315829499958942
6971.006537230124,0.013692009009077187
6971.00753700234,0.014221796402940204
6971.008536774555,0.014747526999678563
6971.0095365467705,0.015269072190300867
6971.010536318985,0.01578630498665733
6971.0115360912005,0.01629910006933461
6971.012535863416,0.01680733383508873
6971.013535635631,0.01731088444378979
6971.014535407847,0.017809631864849497
6971.015535180062,0.018303457923099533
6971.016534952277,0.01879224634408591
6971.017534724492,0.019275882798741567
6971.018534496708,0.01975425494739681
6971.019534268923,0.020227252483084567
6971.0205340411385,0.020694767174095068
6971.021533813353,0.021156692905732424
6971.022533585568,0.02161292572122362
6971.023533357784,0.022063363861728684
6971.024533129999,0.022507907805399387
6971.025532902215,0.022946460305432636
6971.02653267443,0.02337892642706379
6971.027532446645,0.023805213583444604
6971.02853221886,0.024225231570350184
6971.029531991076,0.024638892599659217
6971.030531763291,0.025046111331552084
6971.0315315355065,0.02544680490537171
6971.032531307721,0.02584089296909294
6971.033531079936,0.026228297707347217
6971.034530852152,0.026608943867951155
6971.035530624367,0.026982758786889365
6971.036530396583,0.027349672411704547
6971.037530168798,0.02770961732325052
6971.038529941013,0.02806252875576714
6971.039529713228,0.02840834461523934
6971.040529485444,0.0287470054960063
6971.041529257659,0.029078454695590807
6971.0425290298745,0.029402638227723123
6971.043528802089,0.02971950483353799
6971.044528574304,0.030029005990928018
6971.04552834652,0.03033109592204132
6971.046528118735,0.030625731598915688
6971.047527890951,0.03091287274724613
6971.048527663166,0.031192481848287042
6971.049527435381,0.03146452413889425
6971.050527207596,0.03172896760971629
6971.051526979812,0.03198578300154804
6971.052526752027,0.032234943799863525
6971.053526524242,0.032476426227548115
6971.054526296457,0.03271020923585422
6971.055526068672,0.03293627449360762
6971.056525840888,0.03315460637469544
6971.057525613103,0.03336519194386989
6971.058525385319,0.033568020940905205
6971.059525157534,0.03376308576314829
6971.060524929749,0.03395038144650621
6971.061524701964,0.034129905644916275
6971.06252447418,0.03430165860834667
6971.063524246395,0.03446564315937736
6971.06452401861,0.034621864668412806
6971.065523790825,0.03477033102757888
6971.06652356304,0.034911052623357655
6971.067523335256,0.035044042308014146
6971.068523107471,0.03516931536986943
6971.069522879687,0.03528688950247458
6971.070522651902,0.035396784772739553
6971.071522424117,0.03549902358807065
6971.072522196332,0.03559363066256897
6971.073521968548,0.03568063298234193
6971.074521740763,0.0357600597699782
6971.0755215129775,0.03583194244823566
6971.076521285193,0.035896314602990524
6971.077521057408,0.03595321194549505
6971.078520829624,0.0360026722739898
6971.079520601839,0.03604473543471552
6971.080520374055,0.03607944328236887
6971.081520146269,0.03610683964004523
6971.082519918485,0.03612697025871076
6971.0835196907,0.03613988277624506
6971.084519462916,0.03614562667609493
6971.085519235131,0.036144253245578815
6971.0865190073455,0.036135815533880344
6971.087518779561,0.03612036830976871
6971.088518551776,0.036097968019082514
6971.089518323992,0.03606867274201263
6971.090518096207,0.036032542150218394
6971.091517868423,0.03598963746381045
6971.092517640637,0.03594002140823186
6971.093517412853,0.035883758171067835
6971.094517185068,0.035820913358812996
6971.095516957284,0.03575155395362369
6971.096516729499,0.03567574827008157
6971.0975165017135,0.03559356591199354
6971.098516273929,0.03550507772925219
6971.099516046144,0.03541035577478005
6971.10051581836,0.035309473261579946
6971.101515590575,0.035202504519913434
6971.102515362791,0.03508952495462819
6971.103515135005,0.03497061100265475
6971.104514907221,0.03484584009069227
6971.105514679436,0.03471529059310232
6971.106514451652,0.034579041790029054
6971.107514223867,0.034437173825763334
6971.1085139960815,0.03428976766736778
6971.109513768297,0.03413690506357881
6971.110513540512,0.033978668504000935
6971.111513312728,0.03381514117860729
6971.112513084943,0.03364640693755946
6971.113512857159,0.033472550251358195
6971.114512629373,0.03329365617133544
6971.115512401589,0.033109810290496616
6971.116512173804,0.03292109870472106
6971.11751194602,0.03272760797432709
6971.118511718235,0.03252942508600746
6971.119511490449,0.032326637415139865
6971.120511262665,0.03211933268847642
6971.12151103488,0.03190759894721525
6971.122510807096,0.03169152451045695
6971.123510579311,0.03147119793904803
6971.124510351527,0.03124670799981298
6971.125510123741,0.03101814363017606
6971.126509895957,0.03078559390317347
6971.127509668172,0.03054914799285586
6971.128509440388,0.030308895140080457
6971.129509212603,0.030064924618691643
6971.130508984817,0.029817325702087717
6971.131508757033,0.029566187630171107
6971.132508529248,0.029311599576678414
6971.133508301464,0.029053650616885984
6971.134508073679,0.028792429695686145
6971.135507845895,0.02852802559602872
6971.136507618109,0.02826052690772252
6971.137507390325,0.027990021996591473
6971.13850716254,0.02771659897398067
6971.139506934755,0.027440345666608135
6971.14050670697,0.027161349586759274
6971.141506479185,0.026879697902822002
6971.142506251401,0.026595477410161935
6971.143506023616,0.02630877450233846
6971.144505795832,0.026019675142664005
6971.145505568047,0.02572826483611016
6971.146505340262,0.02543462860156585
6971.147505112477,0.025138850944454047
6971.148504884693,0.024841015829714715
6971.149504656908,0.024541206655162618
6971.150504429123,0.02423950622522948
6971.151504201338,0.02393599672510048
6971.152503973553,0.02363075969525562
6971.153503745769,0.023323876006426582
6971.154503517984,0.02301542583497999
6971.1555032902,0.02270548863873809
6971.156503062415,0.022394143133247793
6971.15750283463,0.022081467268509163
6971.158502606845,0.02176753820617448
6971.1595023790605,0.0214524322972292
6971.160502151276,0.021136225060166245
6971.161501923491,0.02081899115966501
6971.162501695706,0.0205008043857866
6971.163501467921,0.02018173763369675
6971.164501240137,0.019861862883927658
6971.165501012352,0.01954125118319004
6971.166500784568,0.019219972625746398
6971.167500556783,0.018898096335356454
6971.168500328998,0.018575690447805503
6971.169500101213,0.018252822094026212
6971.1704998734285,0.017929557383824166
6971.171499645644,0.017605961390217122
6971.172499417859,0.017282098134397447
6971.173499190074,0.01695803057132678
6971.174498962289,0.01663382057597143
6971.175498734505,0.01630952893018651
6971.17649850672,0.01598521531025635
6971.177498278936,0.01566093827509844
6971.178498051151,0.015336755255137995
6971.179497823366,0.01501272254186008
6971.180497595581,0.014688895278046343
6971.1814973677965,0.014365327448703336
6971.182497140012,0.014042071872689441
6971.183496912227,0.013719180195047245
6971.184496684442,0.013396702880047866
6971.185496456657,0.013074689204953402
6971.186496228873,0.01275318725450301
6971.187496001088,0.012432243916127543
6971.188495773304,0.012111904875896685
6971.189495545519,0.01179221461520167
6971.190495317734,0.011473216408175502
6971.191495089949,0.011154952319851287
6971.1924948621645,0.010837463205058113
6971.19349463438,0.010520788708052519
6971.194494406595,0.010204967262882409
6971.19549417881,0.009890036094479193
6971.196493951025,0.00957603122047297
6971.197493723241,0.009262987453724909
6971.198493495456,0.008950938405570468
6971.199493267672,0.008639916489766834
6971.200493039887,0.008329952927137799
6971.201492812102,0.008021077750909296
6971.202492584317,0.007713319812728824
6971.2034923565325,0.007406706789362007
6971.204492128748,0.00710126519005957
6971.205491900962,0.006797020364587956
6971.206491673178,0.006493996511916778
6971.207491445393,0.00619221668955608
6971.208491217609,0.005891702823536122
6971.209490989824,0.005592475719021967
6971.21049076204,0.005294555071554603
6971.211490534254,0.004997959478909618
6971.21249030647,0.004702706453563692
6971.213490078685,0.004408812435758292
6971.2144898509005,0.0041162928071491935
6971.215489623116,0.003825161905029617
6971.21648939533,0.0035354330371141747
6971.217489167546,0.0032471184968702756
6971.218488939761,0.0029602295793832896
6971.219488711977,0.0026747765977415024
6971.220488484192,0.0023907688999267006
6971.221488256408,0.002108214886196082
6971.222488028622,0.0018271220269410614
6971.223487800838,0.0015474968810084773
6971.224487573053,0.0012693451144696489
6971.225487345268,0.0009926715198227134
6971.226487117484,0.0007174800356136522
6971.227486889698,0.00044377376646136704
6971.228486661914,0.0001715550034720814
6971.229486434129,-9.91747549718284e-05
6971.230486206345,-0.0003684147820637232
6971.23148597856,-0.0006361651010808303
6971.232485750776,-0.0009024264635645777
6971.23348552299,-0.0011672003271896068
6971.234485295206,-0.0014304888333384535
6971.235485067421,-0.0016922947843993844
6971.236484839636,-0.0019526216208052961
6971.237484611852,-0.0022114733978319282
6971.238484384066,-0.002468854762173878
6971.239484156282,-0.0027247709283170687
6971.240483928497,-0.0029792276547263965
6971.241483700713,-0.0032322312198673456
6971.242483472928,-0.0034837883980803727
6971.243483245144,-0.003733906435326884
6971.244483017358,-0.003982593024825628
6971.2454827895735,-0.004229856282598319
6971.246482561789,-0.004475704722943257
6971.247482334004,-0.004720147233855676
6971.24848210622,-0.00496319305241349
6971.249481878434,-0.005204851740147098
6971.25048165065,-0.00544513315841193
6971.251481422865,-0.005684047443782491
6971.252481195081,-0.0059216049834868185
6971.253480967296,-0.0061578163909004075
6971.254480739512,-0.006392692481118818
6971.255480511726,-0.0066262442466282784
6971.2564802839415,-0.006858482833093675
6971.257480056157,-0.007089419515283108
6971.258479828372,-0.007319065673148064
6971.259479600588,-0.007547432768077846
6971.260479372802,-0.007774532319346545
6971.261479145018,-0.00800037588077034
6971.262478917233,-0.00822497501759248
6971.263478689449,-0.008448341283612874
6971.264478461664,-0.00867048619857876
6971.26547823388,-0.008891421225852646
6971.266478006094,-0.009111157750373319
6971.2674777783095,-0.009329707056925424
6971.268477550525,-0.009547080308732872
6971.26947732274,-0.009763288526391144
6971.270477094955,-0.009978342567153447
6971.27147686717,-0.01019225310458569
6971.272476639386,-0.01040503060860532
6971.273476411601,-0.01061668532591916
6971.274476183817,-0.010827227260875502
6971.275475956032,-0.011036666156745764
6971.276475728247,-0.011245011477450922
6971.277475500462,-0.011452272389747688
6971.2784752726775,-0.011658457745889151
6971.279475044893,-0.011863576066774018
6971.280474817108,-0.012067635525598138
6971.281474589323,-0.01227064393202135
6971.282474361538,-0.012472608716861946
6971.283474133754,-0.012673536917330426
6971.284473905969,-0.012873435162813413
6971.285473678185,-0.013072309661217916
6971.2864734504,-0.013270166185885375
6971.287473222615,-0.01346701006308418
6971.28847299483,-0.013662846160088699
6971.2894727670455,-0.013857678873852287
6971.290472539261,-0.014051512120281214
6971.291472311476,-0.014244349324115951
6971.292472083691,-0.014436193409425948
6971.293471855906,-0.014627046790723582
6971.294471628122,-0.014816911364702633
6971.295471400337,-0.015005788502606143
6971.296471172553,-0.015193679043228036
6971.297470944768,-0.015380583286552308
6971.298470716983,-0.015566500988032873
6971.299470489198,-0.015751431353516428
6971.3004702614135,-0.0159353730348099
6971.301470033629,-0.016118324125893285
6971.302469805844,-0.016300282159777794
6971.303469578059,-0.016481244106008555
6971.304469350274,-0.01666120636881019
6971.30546912249,-0.01684016478587286
6971.306468894705,-0.017018114627775607
6971.307468666921,-0.01719505059804287
6971.308468439136,-0.01737096683382953
6971.309468211351,-0.017545856907228857
6971.310467983566,-0.017719713827197146
6971.311467755781,-0.01789253004208827
6971.312467527997,-0.01806429744279056
6971.313467300212,-0.01823500736645805
6971.314467072427,-0.018404650600827507
6971.315466844642,-0.018573217389112183
6971.316466616858,-0.018740697435462448
6971.317466389073,-0.01890707991098308
6971.318466161289,-0.019072353460296006
6971.319465933504,-0.019236506208636654
6971.320465705719,-0.019399525769471376
6971.321465477934,-0.019561399252622676
6971.322465250149,-0.019722113272888364
6971.323465022365,-0.019881653959140187
6971.32446479458,-0.02004000696388693
6971.325464566795,-0.020197157473286487
6971.32646433901,-0.020353090217590877
6971.327464111226,-0.020507789482007845
6971.328463883441,-0.020661239117962357
6971.329463655657,-0.020813422554741216
6971.330463427872,-0.020964322811504007
6971.331463200087,-0.021113922509643702
6971.332462972302,-0.02126220388548068
6971.333462744517,-0.021409148803274294
6971.334462516733,-0.021554738768536637
6971.335462288947,-0.021698954941633476
6971.336462061163,-0.021841778151657755
6971.337461833378,-0.021983188910561214
6971.338461605594,-0.022123167427529844
6971.339461377809,-0.022261693623588794
6971.340461150025,-0.02239874714642233
6971.341460922239,-0.022534307385394345
6971.342460694455,-0.022668353486754878
6971.34346046667,-0.022800864369017775
6971.344460238885,-0.022931818738494873
6971.345460011101,-0.0230611951049719
6971.346459783315,-0.023188971797511476
6971.347459555531,-0.023315126980368698
6971.348459327746,-0.023439638669005055
6971.349459099962,-0.023562484746186954
6971.350458872177,-0.023683642978155603
6971.351458644393,-0.02380309103085573
6971.352458416607,-0.023920806486211525
6971.353458188823,-0.024036766858438998
6971.354457961038,-0.024150949610384734
6971.355457733253,-0.024263332169881777
6971.356457505469,-0.024373891946113776
6971.357457277683,-0.024482606345978878
6971.358457049899,-0.024589452790445065
6971.359456822114,-0.024694408730888497
6971.36045659433,-0.024797451665406246
6971.361456366545,-0.024898559155094573
6971.3624561387605,-0.024997708840283697
6971.363455910975,-0.025094878456719774
6971.364455683191,-0.025190045851684523
6971.365455455406,-0.025283189000042727
6971.366455227621,-0.025374286020207772
6971.367454999837,-0.025463315190015066
6971.368454772051,-0.02555025496249327
6971.369454544267,-0.025635083981523227
6971.370454316482,-0.025717781097374506
6971.371454088698,-0.025798325382109768
6971.372453860913,-0.0258766961448474
6971.3734536331285,-0.02595287294687319
6971.374453405343,-0.02602683561659207
6971.375453177559,-0.026098564264311445
6971.376452949774,-0.026168039296847658
6971.377452721989,-0.026235241431947505
6971.378452494205,-0.026300151712516727
6971.379452266419,-0.026362751520647515
6971.380452038635,-0.026423022591437043
6971.38145181085,-0.026480947026588996
6971.382451583066,-0.026536507307790176
6971.383451355281,-0.02658968630985411
6971.3844511274965,-0.026640467313623642
6971.385450899711,-0.02668883401862439
6971.386450671927,-0.02673477055546088
6971.387450444142,-0.026778261497947257
6971.388450216357,-0.02681929187496426
6971.389449988573,-0.026857847182034454
6971.390449760787,-0.026893913392607736
6971.391449533003,-0.02692747696904944
6971.392449305218,-0.026958524873323824
6971.393449077434,-0.026987044577366087
6971.394448849649,-0.0270130240731364
6971.3954486218645,-0.02703645188234989
6971.396448394079,-0.027057317065876777
6971.397448166294,-0.027075609232807028
6971.39844793851,-0.02709131854917392
6971.399447710725,-0.02710443574633105
6971.40044748294,-0.027114952128977254
6971.401447255155,-0.02712285958282386
6971.402447027371,-0.02712815058189862
6971.403446799586,-0.027130818195480473
6971.404446571802,-0.027130856094659428
6971.405446344017,-0.027128258558515472
6971.406446116232,-0.027123020479910654
6971.407445888447,-0.027115137370888328
6971.408445660662,-0.027104605367673756
6971.409445432878,-0.02709142123527047
6971.410445205093,-0.027075582371647318
6971.411444977308,-0.02705708681151161
6971.412444749523,-0.027035933229664688
6971.413444521739,-0.0270121209439372
6971.414444293954,-0.02698564991770229
6971.41544406617,-0.02695652076196596
6971.416443838385,-0.026924734737034602
6971.4174436106,-0.02689029375376059
6971.418443382815,-0.02685320037436732
6971.41944315503,-0.026813457812855608
6971.420442927246,-0.026771069934993685
6971.421442699461,-0.026726041257893164
6971.422442471676,-0.02667837694917372
6971.423442243891,-0.026628082825719143
6971.424442016107,-0.02657516535202769
6971.425441788322,-0.026519631638159777
6971.426441560538,-0.026461489437286264
6971.427441332753,-0.026400747142840766
6971.428441104968,-0.02633741378527972
6971.429440877183,-0.026271499028454316
6971.430440649398,-0.026203013165598973
6971.431440421614,-0.02613196711494154
6971.432440193829,-0.02605837241494099
6971.433439966044,-0.025982241219159163
6971.434439738259,-0.025903586290773578
6971.435439510475,-0.025822420996738902
6971.43643928269,-0.02573875930160508
6971.437439054906,-0.025652615761000423
6971.438438827121,-0.02556400551478806
6971.439438599336,-0.025472944279904295
6971.440438371551,-0.025379448342887367
6971.441438143766,-0.02528353455210509
6971.442437915982,-0.02518522030968978
6971.443437688197,-0.02508452356318884
6971.444437460412,-0.02498146279693934
6971.445437232627,-0.02487605702317486
6971.446437004843,-0.024768325772872895
6971.447436777058,-0.02465828908635111
6971.4484365492735,-0.02454596750362084
6971.449436321489,-0.02443138205450637
6971.450436093704,-0.02431455424853872
6971.451435865919,-0.024195506064633096
6971.452435638134,-0.02407425994055953
6971.45343541035,-0.02395083876221668
6971.454435182565,-0.02382526585271926
6971.45543495478,-0.023697564961310005
6971.456434726995,-0.023567760252107346
6971.457434499211,-0.02343587629270019
6971.458434271426,-0.023301938042601108
6971.4594340436415,-0.023165970841569468
6971.460433815857,-0.023028000397815593
6971.461433588072,-0.022888052776097102
6971.462433360287,-0.022746154385718254
6971.463433132502,-0.0226023319684429
6971.464432904718,-0.022456612586331578
6971.465432676932,-0.022309023609512812
6971.466432449148,-0.02215959270389858
6971.467432221363,-0.02200834781885366
6971.468431993579,-0.021855317174828272
6971.469431765794,-0.021700529250963444
6971.4704315380095,-0.021544012772678343
6971.471431310224,-0.02138579669924903
6971.47243108244,-0.021225910211388224
6971.473430854655,-0.021064382698835878
6971.47443062687,-0.020901243747970658
6971.475430399086,-0.02073652312945244
6971.4764301713,-0.02057025078590618
6971.477429943516,-0.020402456819657383
6971.478429715731,-0.02023317148052951
6971.479429487947,-0.0200624251537133
6971.480429260162,-0.019890248347717937
6971.4814290323775,-0.019716671682413638
6971.482428804592,-0.019541725877175026
6971.483428576808,-0.0193654417391344
6971.484428349023,-0.01918785015155377
6971.485428121238,-0.019008982062324317
6971.486427893454,-0.018828868472601592
6971.487427665668,-0.018647540425584332
6971.488427437884,-0.01846502899544455
6971.489427210099,-0.018281365276416082
6971.490426982315,-0.018096580372048497
6971.49142675453,-0.01791070538463308
6971.4924265267455,-0.017723771404807347
6971.49342629896,-0.017535809501344538
6971.494426071175,-0.01734685071113441
6971.495425843391,-0.01715692602936144
6971.496425615606,-0.016966066399886476
6971.497425387822,-0.01677430270583745
6971.498425160036,-0.01658166576041458
6971.499424932252,-0.016388186297914914
6971.500424704467,-0.0161938949649805
6971.501424476683,-0.015998822312073845
6971.502424248898,-0.015802998785183625
6971.5034240211135,-0.015606454717762753
6971.504423793328,-0.015409220322900303
6971.505423565543,-0.015211325685727849
6971.506423337759,-0.015012800756060152
6971.507423109974,-0.014813675341269435
6971.50842288219,-0.014613979099391867
6971.509422654404,-0.014413741532464379
6971.51042242662,-0.014212991980089573
6971.511422198835,-0.014011759613226142
6971.512421971051,-0.013810073428202053
6971.513421743266,-0.013607962240947631
6971.514421515481,-0.013405454681445559
6971.515421287696,-0.013202579188394696
6971.516421059911,-0.012999364004084623
6971.517420832127,-0.012795837169477445
6971.518420604342,-0.012592026519493286
6971.519420376558,-0.012387959678495507
6971.520420148772,-0.012183664055971377
6971.521419920988,-0.011979166842403566
6971.522419693203,-0.011774495005327427
6971.523419465419,-0.011569675285568766
6971.524419237634,-0.011364734193656368
6971.525419009849,-0.011159698006403295
6971.526418782064,-0.01095459276365073
6971.527418554279,-0.010749444265167862
6971.528418326495,-0.01054427806770121
6971.52941809871,-0.010339119482166682
6971.530417870925,-0.010133993570977778
6971.53141764314,-0.009928925145503482
6971.532417415356,-0.009723938763649742
6971.533417187571,-0.009519058727558666
6971.5344169597865,-0.009314309081420028
6971.535416732002,-0.009109713609389938
6971.5364165042165,-0.008905295833611868
6971.537416276432,-0.0087010790123354
6971.538416048647,-0.008497086138128206
6971.539415820863,-0.008293339936176826
6971.540415593078,-0.008089862862671843
6971.541415365293,-0.007886677103273003
6971.542415137508,-0.007683804571649755
6971.543414909724,-0.007481266908092695
6971.544414681939,-0.007279085478191266
6971.5454144541545,-0.007077281371573065
6971.54641422637,-0.006875875400700054
6971.5474139985845,-0.0066748880997169755
6971.5484137708,-0.006474339723347394
6971.549413543015,-0.00627425024583298
6971.550413315231,-0.006074639359912041
6971.551413087446,-0.005875526475833791
6971.552412859661,-0.005676930720405396
6971.553412631876,-0.005478870936069379
6971.554412404092,-0.005281365680009439
6971.555412176307,-0.00508443322328316
6971.5564119485225,-0.004888091549980347
6971.557411720738,-0.004692358356405864
6971.5584114929525,-0.004497251050285968
6971.559411265168,-0.004302786749997056
6971.560411037383,-0.0041089822838156894
6971.561410809599,-0.003915854189188645
6971.562410581814,-0.003723418712021579
6971.563410354029,-0.0035316918059847477
6971.564410126244,-0.0033406891318340467
6971.56540989846,-0.003150426056745508
6971.566409670675,-0.0029609176536612236
6971.5674094428905,-0.0027721787006445555
6971.568409215106,-0.0025842236802424063
6971.5694089873205,-0.0023970667788523357
6971.570408759536,-0.0022107218860924205
6971.571408531751,-0.00202520259417194
6971.572408303967,-0.0018405221972612692
6971.573408076182,-0.001656693690859658
6971.574407848397,-0.0014737297711598918
6971.575407620612,-0.0012916428344091242
6971.576407392828,-0.0011104449762654436
6971.577407165043,-0.0009301479911499872
6971.5784069372585,-0.0007507633715946424
6971.579406709474,-0.0005723023075855533
6971.580406481688,-0.00039477568590278627
6971.581406253904,-0.00021819408945662237
6971.582406026119,-4.256779662101816e-05
6971.583405798335,0.00013209321943514975
6971.58440557055,0.00030577929141837245
6971.585405342765,0.00047848105858155606
6971.58640511498,0.0006501894673949481
6971.587404887196,0.0008208957722159156
6971.588404659411,0.0009905915359563458
6971.5894044316265,0.001159268630746146
6971.590404203842,0.0013269192385909412
6971.591403976056,0.0014935358520215796
6971.592403748272,0.0016591112747325171
6971.593403520487,0.0018236386222055844
6971.594403292703,0.001987111322315093
6971.595403064917,0.002149523115909755
6971.596402837133,0.002310868057366494
6971.597402609348,0.0024711405151109597
6971.598402381564,0.00263033517209938
6971.599402153779,0.0027884470262563767
6971.600401925994,0.002945471390863379
6971.601401698209,0.0031014038948923915
6971.602401470424,0.0032562404832799856
6971.60340124264,0.0034099774171365105
6971.604401014855,0.0035626112738856436
6971.605400787071,0.003714138947329493
6971.606400559285,0.0038645576476345842
6971.607400331501,0.004013864901234142
6971.608400103716,0.004162058550642172
6971.609399875932,0.0043091367541748206
6971.610399648147,0.004455097985574416
6971.611399420362,0.004599941033531372
6971.612399192577,0.004743665001098789
6971.613398964792,0.004886269304994238
6971.614398737008,0.00502775367478282
6971.615398509223,0.005168118151935266
6971.616398281439,0.0053073630887546155
6971.617398053653,0.005445489147164966
6971.618397825869,0.005582497297355812
6971.619397598084,0.005718388816275723
6971.6203973703,0.005853165285969484
6971.621397142515,0.005986828591753263
6971.62239691473,0.006119380920222898
6971.623396686945,0.006250824757090997
6971.62439645916,0.006381162884849205
6971.625396231376,0.006510398380252701
6971.626396003591,0.006638534611624759
6971.627395775807,0.006765575235979968
6971.628395548021,0.006891524195965426
6971.629395320237,0.007016385716619864
6971.630395092452,0.007140164301951151
6971.631394864668,0.007262864731333004
6971.632394636883,0.007384492055721986
6971.633394409098,0.007505051593696079
6971.634394181313,0.0076245489273163445
6971.635393953528,0.007742989897813401
6971.636393725744,0.007860380601100798
6971.637393497959,0.007976727383117718
6971.638393270175,0.00809203683500395
6971.639393042389,0.0082063157881105
6971.640392814605,0.0083195713088497
6971.64139258682,0.008431810693389108
6971.642392359036,0.008543041462193868
6971.643392131251,0.008653271354422709
6971.644391903466,0.00876250832218305
6971.645391675681,0.008870760524651106
6971.646391447896,0.008978036322063256
6971.647391220112,0.009084344269585218
6971.648390992327,0.009189693111065881
6971.649390764543,0.00929409177268281
6971.650390536757,0.009397549356486554
6971.651390308973,0.009500075133850873
6971.652390081188,0.009601678538835942
6971.653389853404,0.009702369161471429
6971.654389625619,0.009802156740966204
6971.655389397834,0.009901051158851381
6971.656389170049,0.009999062432063313
6971.657388942264,0.010096200705973299
6971.65838871448,0.01019247624737092
6971.659388486695,0.010287899437408184
6971.66038825891,0.010382480764512026
6971.661388031125,0.010476230817273129
6971.662387803341,0.010569160277319405
6971.663387575556,0.010661279912182891
6971.664387347772,0.010752600568169115
6971.665387119987,0.010843133163238329
6971.666386892201,0.010932888679908269
6971.667386664417,0.011021878158188364
6971.668386436632,0.01111011268855545
6971.669386208848,0.011197603404981205
6971.670385981063,0.011284361478021525
6971.671385753278,0.011370398107977823
6971.672385525493,0.011455724518139972
6971.673385297709,0.011540351948120177
6971.674385069924,0.01162429164728649
6971.67538484214,0.01170755486830419
6971.676384614355,0.011790152860792658
6971.677384386569,0.01187209686510491
6971.678384158785,0.011953398106236442
6971.679383931,0.012034067787869694
6971.680383703216,0.0121141170865601
6971.681383475431,0.012193557146069362
6971.682383247646,0.01227239907185122
6971.683383019861,0.012350653925694757
6971.684382792077,0.012428332720529966
6971.685382564292,0.01250544641540003
6971.686382336507,0.012582005910604484
6971.687382108723,0.012658022043017062
6971.688381880937,0.012733505581581647
6971.689381653153,0.012808467222989287
6971.690381425368,0.012882917587538536
6971.691381197584,0.012956867215180759
6971.692380969799,0.013030326561751245
6971.693380742014,0.01310330599538614
6971.694380514229,0.013175815793124475
6971.695380286445,0.01324786613769363
6971.69638005866,0.013319467114475913
6971.697379830875,0.013390628708653124
6971.698379603091,0.013461360802525421
6971.699379375305,0.013531673173000202
6971.700379147521,0.01360157548924622
6971.701378919736,0.013671077310507838
6971.702378691952,0.013740188084073934
6971.703378464167,0.013808917143395633
6971.704378236382,0.013877273706346869
6971.705378008597,0.013945266873621402
6971.7063777808125,0.014012905627259785
6971.707377553028,0.014080198829299614
6971.708377325243,0.014147155220542306
6971.709377097459,0.014213783419429474
6971.710376869673,0.014280091921021955
6971.711376641889,0.0143460890960743
6971.712376414104,0.014411783190197381
6971.71337618632,0.014477182323101488
6971.714375958535,0.014542294487912166
6971.71537573075,0.014607127550550745
6971.716375502965,0.01467168924917138
6971.7173752751805,0.014735987193646346
6971.718375047396,0.014800028865091313
6971.719374819611,0.014863821615422376
6971.720374591827,0.014927372666936813
6971.721374364041,0.014990689111909707
6971.722374136257,0.01505377791219878
6971.723373908472,0.015116645898850018
6971.724373680688,0.015179299771696936
6971.725373452902,0.015241746098946482
6971.726373225118,0.015303991316744932
6971.727372997333,0.015366041728717321
6971.7283727695485,0.01542790350547428
6971.729372541764,0.015489582684080423
6971.730372313979,0.015551085167478652
6971.731372086195,0.015612416723864991
6971.732371858409,0.015673582986008676
6971.733371630625,0.0157345894505123
6971.73437140284,0.015795441477006886
6971.735371175056,0.01585614428727681
6971.73637094727,0.015916702964309647
6971.737370719486,0.015977122451266076
6971.738370491701,0.016037407550365198
6971.7393702639165,0.016097562921680894
6971.740370036132,0.016157593081845282
6971.741369808347,0.016217502402655615
6971.742369580562,0.016277295109581532
6971.743369352777,0.01633697528016989
6971.744369124993,0.016396546842344928
6971.745368897208,0.01645601357260173
6971.746368669424,0.016515379094091384
6971.747368441638,0.016574646874596425
6971.748368213854,0.016633820224395367
6971.749367986069,0.016692902294015266
6971.7503677582845,0.016751896071871254
6971.7513675305,0.016810804381792013
6971.752367302715,0.016869629880429927
6971.75336707493,0.016928375054554596
6971.754366847145,0.016987042218228096
6971.755366619361,0.01704563350986027
6971.756366391576,0.01710415088914214
6971.757366163792,0.017162596133855627
6971.758365936006,0.01722097083655784
6971.759365708222,0.017279276401138424
6971.760365480437,0.017337514039248915
6971.7613652526525,0.017395684766603334
6971.762365024868,0.01745378939914988
6971.763364797083,0.017511828549113876
6971.764364569298,0.017569802620912643
6971.765364341513,0.017627711806943346
6971.766364113729,0.01768555608324512
6971.767363885944,0.017743335205037215
6971.76836365816,0.01780104870213498
6971.769363430374,0.01785869587424588
6971.77036320259,0.017916275786147733
6971.771362974805,0.017973787262751416
6971.77236274702,0.01803122888405049
6971.773362519236,0.0180885989799598
6971.774362291451,0.018145895625045323
6971.775362063666,0.018203116633147182
6971.776361835881,0.0182602595518979
6971.777361608097,0.01831732165713781
6971.778361380312,0.018374299947229698
6971.779361152528,0.018431191137274965
6971.780360924742,0.018487991653233875
6971.781360696958,0.0185446976259529
6971.782360469173,0.018601304885102636
6971.783360241388,0.018657808953030344
6971.784360013604,0.018714205038531714
6971.785359785819,0.018770488030547074
6971.786359558034,0.0188266524917879
6971.787359330249,0.01888269265230005
6971.788359102465,0.01893860240297069
6971.78935887468,0.018994375288986516
6971.790358646895,0.019050004503251245
6971.79135841911,0.019105482879770864
6971.792358191326,0.01916080288701543
6971.793357963541,0.01921595662126651
6971.794357735756,0.019270935799959667
6971.795357507972,0.01932573175503168
6971.796357280187,0.019380335426282487
6971.797357052402,0.019434737354762286
6971.798356824617,0.019488927676194548
6971.799356596833,0.019542896114446276
6971.800356369048,0.019596631975057267
6971.801356141263,0.019650124138840725
6971.802355913478,0.0197033610555681
6971.8033556856935,0.019756330737751543
6971.804355457909,0.01980902075453779
6971.805355230124,0.019861418225727616
6971.80635500234,0.01991350981593522
6971.807354774554,0.019965281728902152
6971.80835454677,0.02001671970198036
6971.809354318985,0.020067809000799193
6971.810354091201,0.020118534414130907
6971.811353863416,0.02016888024896936
6971.812353635631,0.020218830325836264
6971.813353407846,0.020268367974329297
6971.8143531800615,0.02031747602892599
6971.815352952277,0.02036613682505726
6971.816352724492,0.020414332195464086
6971.817352496708,0.020462043466850773
6971.818352268922,0.020509251456847854
6971.819352041138,0.020555936471297907
6971.820351813353,0.020602078301877245
6971.821351585569,0.0206476562240666
6971.822351357784,0.020692648995483925
6971.823351129999,0.020737034854592523
6971.824350902214,0.02078079151979776
6971.8253506744295,0.020823896188945885
6971.826350446645,0.020866325539238454
6971.82735021886,0.020908055727575932
6971.828349991076,0.020949062391344097
6971.82934976329,0.020989320649656727
6971.830349535506,0.021028805105067754
6971.831349307721,0.021067489845765713
6971.832349079937,0.021105348448262787
6971.833348852152,0.021142353980590323
6971.834348624367,0.02117847900601198
6971.835348396582,0.021213695587265248
6971.8363481687975,0.02124797529134152
6971.837347941013,0.02128128919481447
6971.838347713228,0.02131360788972606
6971.839347485444,0.021344901490039245
6971.840347257658,0.021375139638666073
6971.841347029874,0.02140429151507954
6971.842346802089,0.021432325843517442
6971.843346574305,0.021459210901785812
6971.84434634652,0.021484914530669388
6971.845346118735,0.021509404143955982
6971.84634589095,0.021532646739081143
6971.8473456631655,0.02155460890839902
6971.848345435381,0.02157525685108464
6971.849345207596,0.02159455638567234
6971.850344979812,0.021612472963234423
6971.851344752026,0.021628971681203445
6971.852344524242,0.021644017297840698
6971.853344296457,0.021657574247352776
6971.854344068673,0.02166960665565724
6971.855343840887,0.021680078356797524
6971.856343613103,0.021688952910006453
6971.857343385318,0.02169619361741691
6971.858343157533,0.021701763542417412
6971.859342929749,0.021705625528649762
6971.860342701964,0.021707742219645304
6971.86134247418,0.02170807607909608
6971.862342246394,0.021706589411756516
6971.86334201861,0.02170324438497117
6971.864341790825,0.021698003050823603
6971.865341563041,0.021690827368901267
6971.866341335255,0.02168167922967085
6971.867341107471,0.021670520478458306
6971.868340879686,0.021657312940027384
6971.869340651901,0.02164201844374993
6971.870340424117,0.02162459884936099
6971.871340196332,0.0216050160732909
6971.872339968547,0.021583232115565933
6971.873339740762,0.021559209087268147
6971.874339512978,0.021532909238544107
6971.875339285193,0.02150429498715088
6971.876339057409,0.021473328947526467
6971.877338829623,0.02143997396037035
6971.878338601839,0.021404193122718216
6971.879338374054,0.02136594981849327
6971.880338146269,0.021325207749514588
6971.881337918485,0.021281930966940935
6971.8823376907,0.021236083903126098
6971.883337462915,0.021187631403859524
6971.88433723513,0.02113653876096326
6971.885337007346,0.02108277174521361
6971.886336779561,0.021026296639553067
6971.887336551777,0.0209670802725552
6971.888336323991,0.02090509005210223
6971.889336096207,0.020840293999231988
6971.890335868422,0.020772660782107984
6971.891335640637,0.0207021597500633
6971.892335412853,0.02062876096766599
6971.893335185068,0.020552435248750833
6971.894334957283,0.02047315419035968
6971.895334729498,0.020390890206530093
6971.896334501714,0.02030561656186995
6971.897334273929,0.020217307404853713
6971.898334046145,0.020125937800774707
6971.899333818359,0.020031483764286484
6971.900333590575,0.019933922291465775
6971.90133336279,0.01983323139132907
6971.902333135005,0.019729390116735003
6971.903332907221,0.019622378594605413
6971.904332679436,0.01951217805539908
6971.905332451651,0.019398770861773842
6971.906332223866,0.019282140536374805
6971.907331996082,0.019162271788688793
6971.908331768297,0.01903915054090763
6971.9093315405125,0.01891276395274549
6971.910331312727,0.0187831004451584
6971.911331084943,0.018650149722916943
6971.912330857158,0.018513902795986442
6971.913330629373,0.018374351999672443
6971.914330401589,0.018231491013492963
6971.915330173804,0.0180853148787429
6971.916329946019,0.01793582001471997
6971.917329718234,0.017783004233585687
6971.91832949045,0.01762686675383907
6971.919329262665,0.01746740821238495
6971.92032903488,0.017304630675182876
6971.921328807095,0.017138537646466608
6971.922328579311,0.016969134076528378
6971.923328351526,0.016796426368066043
6971.924328123741,0.01662042238109532
6971.925327895957,0.016441131436433484
6971.926327668172,0.016258564317764988
6971.927327440387,0.01607273327230356
6971.928327212602,0.01588365201006918
6971.929326984818,0.015691335701801895
6971.930326757033,0.015495800975537601
6971.931326529248,0.015297065911873499
6971.932326301463,0.015095150037953255
6971.933326073679,0.014890074320203667
6971.934325845894,0.014681861155856174
6971.935325618109,0.014470534363287676
6971.936325390325,0.01425611917121611
6971.937325162539,0.01403864220678697
6971.938324934755,0.013818131482587447
6971.93932470697,0.01359461638262532
6971.940324479186,0.013368127647310038
6971.941324251401,0.013138697357473644
6971.942324023616,0.01290635891746927
6971.943323795831,0.012671147037384955
6971.944323568047,0.012433097714410379
6971.945323340262,0.012192248213393856
6971.946323112477,0.011948637046626598
6971.947322884693,0.011702303952890819
6971.948322656907,0.011453289875807682
6971.949322429123,0.01120163694152057
6971.950322201338,0.01094738843574846
6971.951321973554,0.010690588780243534
6971.952321745769,0.010431283508686457
6971.953321517984,0.010169519242052021
6971.954321290199,0.009905343663477131
6971.955321062414,0.009638805492662526
6971.95632083463,0.009369954459838983
6971.957320606845,0.009098841279328312
6971.958320379061,0.008825517622728974
6971.959320151275,0.008550036091755822
6971.960319923491,0.008272450190763062
6971.961319695706,0.007992814298979103
6971.962319467922,0.007711183642481548
6971.963319240137,0.007427614265940023
6971.964319012352,0.007142163004153969
6971.965318784567,0.0068548874534118745
6971.966318556782,0.006565845942697765
6971.967318328998,0.006275097504770033
6971.968318101213,0.005982701847137002
6971.969317873429,0.0056887193229528355
6971.970317645643,0.005393210901856659
6971.971317417859,0.0050962381407768645
6971.972317190074,0.004797863154721693
6971.97331696229,0.004498148587576266
6971.974316734505,0.0041971575829253
6971.97531650672,0.0038949537549198715
6971.976316278935,0.003591601159205744
6971.97731605115,0.003287164263930133
6971.978315823366,0.002981707920843155
6971.979315595581,0.0026752973365097624
6971.980315367797,0.0023679980436475978
6971.981315140011,0.0020598758726058674
6971.982314912227,0.0017509969230000318
6971.983314684442,0.0014414275355168094
6971.984314456658,0.0011312342639036791
6971.985314228872,0.0008204838471567463
6971.986314001088,0.0005092431819205131
6971.987313773303,0.0001975792951127397
6971.988313545518,-0.00011444068321280687
6971.989313317734,-0.0004267495467533631
6971.990313089949,-0.000739280039582073
6971.991312862165,-0.0010519648824994618
6971.992312634379,-0.001364736799100757
6971.993312406595,-0.0016775285415489873
6971.99431217881,-0.0019902729160444907
6971.9953119510255,-0.002302902807982182
6971.99631172324,-0.0026153512067886224
6971.997311495456,-0.002927551230431569
6971.998311267671,-0.0032394361495952256
6971.999311039886,-0.0035509394115148547
6972.000310812102,-0.0038619946634647602
6972.001310584317,-0.004172535775893948
6972.002310356532,-0.004482496865203989
6972.003310128747,-0.0047918123161638645
6972.004309900963,-0.005100416803956776
6972.005309673178,-0.005408245315854195
6972.0063094453935,-0.005715233172512694
6972.007309217608,-0.006021316048889448
6972.008308989824,-0.006326429994772659
6972.009308762039,-0.0066305114549235385
6972.010308534254,-0.006933497288826847
6972.01130830647,-0.007235324790047492
6972.012308078685,-0.007535931705191044
6972.0133078509,-0.007835256252466555
6972.014307623115,-0.008133237139850497
6972.015307395331,-0.008429813582851074
6972.016307167546,-0.008724925321872516
6972.0173069397615,-0.009018512639179294
6972.018306711976,-0.009310516375460433
6972.019306484192,-0.009600877945994258
6972.020306256407,-0.009889539356414059
6972.021306028622,-0.01017644321807525
6972.022305800838,-0.010461532763024643
6972.023305573053,-0.01074475185857254
6972.024305345268,-0.011026045021468407
6972.025305117483,-0.011305357431680912
6972.026304889699,-0.011582634945783174
6972.027304661914,-0.01185782410994409
6972.0283044341295,-0.012130872172526714
6972.029304206344,-0.012401727096294817
6972.03030397856,-0.0126703375702289
6972.031303750775,-0.012936653020953258
6972.03230352299,-0.013200623623775977
6972.033303295206,-0.013462200313344129
6972.034303067421,-0.013721334793916708
6972.035302839636,-0.013977979549258253
6972.036302611851,-0.014232087852156254
6972.037302384067,-0.01448361377356569
6972.038302156282,-0.014732512191384092
6972.0393019284975,-0.014978738798860648
6972.040301700712,-0.015222250112642869
6972.041301472927,-0.015463003480464452
6972.042301245143,-0.01570095708847806
6972.043301017358,-0.015936069968236804
6972.044300789574,-0.016168302003328375
6972.045300561789,-0.016397613935665897
6972.046300334004,-0.01662396737143974
6972.047300106219,-0.016847324786734674
6972.048299878435,-0.01706764953281689
6972.04929965065,-0.017284905841095557
6972.050299422865,-0.017499058827763824
6972.05129919508,-0.017710074498124284
6972.052298967295,-0.01791791975060422
6972.053298739511,-0.018122562380466174
6972.054298511726,-0.01832397108321958
6972.055298283942,-0.018522115457739394
6972.056298056157,-0.01871696600909783
6972.057297828372,-0.01890849415111524
6972.058297600587,-0.019096672208636097
6972.059297372803,-0.01928147341953595
6972.060297145018,-0.019462871936464843
6972.0612969172325,-0.019640842828332512
6972.062296689448,-0.019815362081540385
6972.063296461663,-0.01998640660096506
6972.064296233879,-0.020153954210697683
6972.065296006094,-0.020317983654543185
6972.06629577831,-0.020478474596283165
6972.067295550524,-0.02063540761970584
6972.06829532274,-0.02078876422840636
6972.069295094955,-0.020938526845360638
6972.070294867171,-0.02108467881227589
6972.071294639386,-0.02122720438872106
6972.0722944116005,-0.02136608875104039
6972.073294183816,-0.021501317991053544
6972.074293956031,-0.02163287911454565
6972.075293728247,-0.02176076003955092
6972.076293500462,-0.021884949594433246
6972.077293272678,-0.022005437515767435
6972.078293044892,-0.02212221444602437
6972.079292817108,-0.02223527193106356
6972.080292589323,-0.02234460241743605
6972.0812923615385,-0.022450199249500667
6972.082292133754,-0.02255205666635619
6972.0832919059685,-0.022650169798591597
6972.084291678184,-0.02274453466485646
6972.085291450399,-0.022835148168252953
6972.086291222615,-0.022922008092550777
6972.08729099483,-0.023005113098225748
6972.088290767046,-0.02308446271832264
6972.08929053926,-0.023160057354142657
6972.090290311476,-0.02323189827075565
6972.091290083691,-0.02329998759233709
6972.0922898559065,-0.02336432829732976
6972.093289628122,-0.023424924213430218
6972.0942894003365,-0.02348178001239995
6972.095289172552,-0.023534901204701288
6972.096288944767,-0.023584294133957927
6972.097288716983,-0.023629965971240192
6972.098288489198,-0.023671924709175014
6972.099288261414,-0.02371017915588072
6972.100288033628,-0.02374473892872674
6972.101287805844,-0.023775614447918564
6972.102287578059,-0.023802816929908308
6972.1032873502745,-0.02382635838063126
6972.10428712249,-0.023846251588569015
6972.1052868947045,-0.023862510117639627
6972.10628666692,-0.02387514829991537
6972.107286439135,-0.02388418122816851
6972.108286211351,-0.023889624748245707
6972.109285983566,-0.02389149545127149
6972.110285755782,-0.023889810665681372
6972.111285527996,-0.023884588449085222
6972.112285300212,-0.023875847579961734
6972.113285072427,-0.023863607549185012
6972.1142848446425,-0.02384788855138449
6972.115284616857,-0.02382871147613975
6972.1162843890725,-0.023806097899011936
6972.117284161288,-0.02378007007241372
6972.118283933503,-0.023750650916320025
6972.119283705719,-0.023717864008821674
6972.120283477934,-0.023681733576524356
6972.12128325015,-0.023642284484795297
6972.122283022364,-0.02359954222786006
6972.12328279458,-0.023553532918751948
6972.124282566795,-0.023504283279116717
6972.1252823390105,-0.023451820628875325
6972.126282111225,-0.02339617287574777
6972.12728188344,-0.02333736850464117
6972.128281655656,-0.02327543656690554
6972.129281427871,-0.023210406669461007
6972.130281200087,-0.02314230896380044
6972.131280972302,-0.0230711741348718
6972.132280744517,-0.022997033389844965
6972.133280516732,-0.022919918446767988
6972.134280288948,-0.0228398615231184
6972.135280061163,-0.02275689532425539
6972.1362798333785,-0.022671053031779066
6972.137279605593,-0.022582368291803417
6972.138279377808,-0.022490875203149817
6972.139279150024,-0.0223966083054681
6972.140278922239,-0.022299602567292284
6972.141278694455,-0.022199893374038174
6972.14227846667,-0.022097516515949954
6972.143278238885,-0.021992508176002904
6972.1442780111,-0.021884904917769243
6972.145277783316,-0.021774743673254073
6972.146277555531,-0.021662061730708254
6972.147277327746,-0.02154689672242485
6972.148277099961,-0.021429286612525744
6972.149276872176,-0.021309269684744947
6972.150276644392,-0.021186884530214806
6972.151276416607,-0.02106217003526151
6972.152276188823,-0.020935165369216042
6972.153275961038,-0.020805909972246708
6972.154275733253,-0.02067444354321939
6972.155275505468,-0.02054080602759156
6972.156275277684,-0.020405037605345944
6972.157275049899,-0.020267178678969672
6972.158274822114,-0.02012726986148451
6972.159274594329,-0.019985351964533545
6972.160274366544,-0.01984146598652958
6972.16127413876,-0.019695653100870052
6972.162273910975,-0.019547954644223188
6972.163273683191,-0.019398412104889594
6972.164273455406,-0.01924706711124323
6972.165273227621,-0.019093961420255174
6972.166272999836,-0.018939136906103302
6972.167272772052,-0.018782635548870365
6972.168272544267,-0.018624499423332642
6972.169272316482,-0.018464770687840856
6972.170272088697,-0.018303491573294754
6972.171271860912,-0.01814070437221247
6972.172271633128,-0.017976451427895543
6972.173271405343,-0.017810775123690274
6972.174271177559,-0.017643717872346105
6972.175270949774,-0.017475322105471525
6972.176270721989,-0.017305630263087887
6972.177270494204,-0.01713468478328148
6972.17827026642,-0.01696252809195386
6972.179270038635,-0.016789202592670385
6972.1802698108495,-0.01661475065660664
6972.181269583065,-0.01643921461259228
6972.18226935528,-0.016262636737251594
6972.183269127496,-0.016085059245239904
6972.184268899711,-0.015906524279574567
6972.185268671927,-0.015727073902059206
6972.186268444142,-0.015546750083799491
6972.187268216357,-0.015365594695808633
6972.188267988572,-0.015183649499700583
6972.189267760788,-0.015000956138468895
6972.190267533003,-0.01481755612734923
6972.1912673052175,-0.014633490844763617
6972.192267077433,-0.014448801523344792
6972.193266849648,-0.014263529241039116
6972.194266621864,-0.014077714912286923
6972.195266394079,-0.013891399279279276
6972.196266166295,-0.013704622903290487
6972.197265938509,-0.013517426156085933
6972.198265710725,-0.013329849211404898
6972.19926548294,-0.013141932036518377
6972.200265255156,-0.012953714383861876
6972.201265027371,-0.012765235782743268
6972.2022647995855,-0.012576535531125836
6972.203264571801,-0.012387652687486565
6972.204264344016,-0.012198626062749728
6972.205264116232,-0.012009494212295788
6972.206263888447,-0.011820295428045656
6972.207263660663,-0.011631067730620323
6972.208263432877,-0.011441848861575963
6972.209263205093,-0.011252676275714704
6972.210262977308,-0.011063587133471407
6972.211262749524,-0.01087461829337693
6972.212262521739,-0.010685806304598573
6972.213262293953,-0.010497187399558702
6972.214262066169,-0.010308797486632751
6972.215261838384,-0.010120672142928135
6972.2162616106,-0.009932846607145905
6972.217261382815,-0.00974535577252725
6972.218261155031,-0.00955823417988716
6972.219260927245,-0.009371516010737728
6972.220260699461,-0.009185235080503642
6972.221260471676,-0.00899942483183245
6972.222260243892,-0.00881411832800215
6972.223260016107,-0.008629348246428595
6972.224259788321,-0.008445146872275261
6972.225259560537,-0.00826154609216782
6972.226259332752,-0.00807857738801598
6972.227259104968,-0.007896271830945047
6972.228258877183,-0.007714660075339624
6972.229258649399,-0.00753377235300192
6972.230258421613,-0.007353638467427134
6972.231258193829,-0.00717428778819848
6972.232257966044,-0.006995749245504472
6972.233257738259,-0.006818051324781267
6972.234257510475,-0.00664122206148293
6972.235257282689,-0.006465289035982572
6972.236257054905,-0.0062902793686074
6972.23725682712,-0.0061162197148106725
6972.238256599336,-0.005943136260483521
6972.239256371551,-0.0057710547174094845
6972.240256143767,-0.005600000318864452
6972.241255915981,-0.005429997815364504
6972.242255688197,-0.005261071470563939
6972.243255460412,-0.005093245057305586
6972.244255232627,-0.004926541853825269
6972.245255004842,-0.004760984640112162
6972.246254777057,-0.004596595694426589
6972.247254549273,-0.00443339678997662
6972.248254321488,-0.004271409191754732
6972.249254093704,-0.004110653653535639
6972.250253865919,-0.0039511504150362975
6972.251253638135,-0.0037929191992390776
6972.252253410349,-0.003635979209879045
6972.253253182565,-0.0034803491290963245
6972.25425295478,-0.0033260471152545745
6972.255252726995,-0.0031730908009266253
6972.25625249921,-0.003021497291048367
6972.257252271425,-0.0028712831612419266
6972.258252043641,-0.002722464456309068
6972.259251815856,-0.002575056688895552
6972.260251588072,-0.0024290748383269645
6972.261251360287,-0.002284533349616263
6972.262251132502,-0.002141446132643051
6972.263250904717,-0.0019998265615043874
6972.2642506769325,-0.001859687474036788
6972.265250449148,-0.0017210411715089607
6972.266250221363,-0.0015838994184847123
6972.267249993578,-0.0014482734428553864
6972.268249765793,-0.0013141739360411214
6972.269249538009,-0.0011816110533601864
6972.270249310224,-0.0010505944145656192
6972.27124908244,-0.0009211331045484089
6972.272248854655,-0.0007932356742065173
6972.27324862687,-0.0006669101414791478
6972.274248399085,-0.0005421639925458336
6972.2752481713005,-0.0004190041831901355
6972.276247943516,-0.00029743714032794296
6972.277247715731,-0.00017746876370056797
6972.278247487946,-5.910442773294779e-05
6972.279247260161,5.765101644265116e-05
6972.280247032377,0.00017279323879702894
6972.281246804592,0.00028631842804818184
6972.282246576808,0.0003982232891388624
6972.283246349023,0.0005085050405473387
6972.284246121238,0.0006171614114312079
6972.285245893453,0.0007241906386042183
6972.2862456656685,0.0008295914633461869
6972.287245437884,0.0009333631280462518
6972.288245210099,0.0010355053726798663
6972.289244982314,0.0011360184311201011
6972.290244754529,0.001234903027283957
6972.291244526745,0.0013321603711144863
6972.29224429896,0.0014277921543995578
6972.293244071176,0.0015218005464280632
6972.294243843391,0.00161418818948424
6972.295243615606,0.0017049581941805877
6972.296243387821,0.0017941141346295931
6972.2972431600365,0.0018816600434542227
6972.298242932252,0.0019676004066369137
6972.299242704467,0.0020519401582066205
6972.300242476682,0.0021346846747633762
6972.301242248897,0.0022158397698398176
6972.302242021113,0.002295411688099145
6972.303241793328,0.002373407099369112
6972.304241565544,0.0024498330925117736
6972.305241337759,0.002524697169128935
6972.306241109974,0.002598007237103445
6972.307240882189,0.002669771603976728
6972.3082406544045,0.0027399989701632245
6972.30924042662,0.0028086984220026794
6972.310240198834,0.0028758794246515436
6972.31123997105,0.0029415518148150576
6972.312239743265,0.0030057257933218846
6972.313239515481,0.0030684119175434675
6972.314239287696,0.0031296210936605133
6972.315239059912,0.0031893645687792443
6972.316238832127,0.0032476539229002307
6972.317238604342,0.0033045010607427824
6972.318238376557,0.003359918203428027
6972.3192381487725,0.0034139178800239407
6972.320237920988,0.0034665129189557784
6972.321237693202,0.0035177164392855478
6972.322237465418,0.0035675418418644436
6972.323237237633,0.003616002800362403
6972.324237009849,0.003663113252179265
6972.325236782064,0.0037088873892422883
6972.32623655428,0.0037533396486950565
6972.327236326494,0.003796484703483052
6972.32823609871,0.0038383374528414157
6972.329235870925,0.003878913012690601
6972.33023564314,0.00391822670594581
6972.331235415356,0.003956294052746255
6972.33223518757,0.003993130760610409
6972.333234959786,0.004028752714523493
6972.334234732001,0.004063175966963547
6972.335234504217,0.00409641672787247
6972.336234276432,0.004128491354578544
6972.337234048648,0.004159416341676974
6972.338233820862,0.004189208310875127
6972.339233593078,0.0042178840008092605
6972.340233365293,0.004245460256839694
6972.341233137508,0.004271954020831531
6972.342232909724,0.004297382320928266
6972.343232681938,0.004321762261325815
6972.344232454154,0.004345111012054715
6972.345232226369,0.004367445798778518
6972.346231998585,0.004388783892616551
6972.3472317708,0.004409142599999456
6972.348231543016,0.0044285392525659885
6972.34923131523,0.00444699119710965
6972.3502310874455,0.004464515785583689
6972.351230859661,0.004481130365172912
6972.352230631876,0.004496852268440559
6972.353230404092,0.004511698803558239
6972.354230176306,0.004525687244626615
6972.355229948522,0.004538834822094218
6972.356229720737,0.004551158713281467
6972.357229492953,0.004562676033016772
6972.358229265168,0.004573403824391411
6972.359229037384,0.004583359049639861
6972.360228809598,0.004592558581152207
6972.3612285818135,0.004601019192625316
6972.362228354029,0.004608757550359495
6972.363228126244,0.004615790204707351
6972.36422789846,0.004622133581681609
6972.365227670674,0.0046278039747285815
6972.36622744289,0.004632817536673985
6972.367227215105,0.004637190271847732
6972.368226987321,0.004640938028394267
6972.369226759536,0.00464407649077493
6972.370226531752,0.004646621172468755
6972.371226303966,0.004648587408877943
6972.3722260761815,0.004649990350444115
6972.373225848397,0.004650844955981245
6972.374225620612,0.004651165986230939
6972.375225392827,0.004650967997645546
6972.376225165042,0.004650265336404345
6972.377224937258,0.004649072132667866
6972.378224709473,0.004647402295075245
6972.379224481689,0.004645269505489332
6972.380224253904,0.004642687213994162
6972.38122402612,0.004639668634149256
6972.382223798334,0.004636226738505141
6972.3832235705495,0.004632374254384295
6972.384223342765,0.004628123659931554
6972.38522311498,0.004623487180437774
6972.386222887195,0.004618476784940228
6972.38722265941,0.004613104183102918
6972.388222431626,0.004607380822379585
6972.389222203841,0.004601317885461837
6972.390221976057,0.004594926288014349
6972.391221748272,0.004588216676698636
6972.392221520487,0.00458119942748635
6972.393221292702,0.00457388464426251
6972.3942210649175,0.0045662821577184655
6972.395220837133,0.004558401524533819
6972.396220609348,0.00455025202684597
6972.397220381563,0.004541842672005516
6972.398220153778,0.004533182192615342
6972.399219925994,0.0045242790468509615
6972.400219698209,0.004515141419059517
6972.401219470425,0.004505777220634733
6972.40221924264,0.004496194091165034
6972.403219014855,0.004486399399852047
6972.40421878707,0.004476400247196553
6972.4052185592855,0.004466203466949009
6972.406218331501,0.004455815628321617
6972.407218103716,0.004445243038458974
6972.408217875931,0.004434491745164275
6972.409217648146,0.0044235675398781
6972.410217420362,0.004412475960906799
6972.411217192577,0.004401222296897439
6972.412216964793,0.004389811590556118
6972.413216737008,0.004378248642606256
6972.414216509223,0.004366538015983141
6972.415216281438,0.004354684040260737
6972.416216053653,0.004342690816306351
6972.417215825869,0.004330562221158471
6972.418215598084,0.0043183019131227615
6972.419215370299,0.004305913337080958
6972.420215142514,0.004293399730007178
6972.42121491473,0.0042807641266859415
6972.422214686945,0.004268009365626105
6972.423214459161,0.004255138095164724
6972.424214231376,0.004242152779754852
6972.425214003591,0.004229055706431184
6972.426213775806,0.0042158489914474635
6972.427213548021,0.004202534587079493
6972.428213320237,0.0041891142885875105
6972.429213092452,0.0041755897413315885
6972.430212864667,0.004161962448033469
6972.431212636882,0.004148233776178054
6972.432212409098,0.0041344049655474575
6972.433212181313,0.004120477135880199
6972.434211953529,0.004106451294647848
6972.435211725744,0.004092328344941118
6972.436211497959,0.0040781090934571725
6972.437211270174,0.004063794258579753
6972.438211042389,0.004049384478543614
6972.439210814605,0.004034880319674734
6972.440210586819,0.004020282284697821
6972.441210359035,0.0040055908211026735
6972.44221013125,0.003990806329561033
6972.443209903466,0.003975929172385623
6972.444209675681,0.003960959682023118
6972.445209447897,0.003945898169572855
6972.446209220112,0.00393074493332317
6972.447208992327,0.0039155002672973775
6972.448208764542,0.0039001644698014575
6972.449208536757,0.003884737851965635
6972.450208308973,0.0038692207462720117
6972.451208081187,0.003853613515060389
6972.452207853403,0.003837916559004317
6972.453207625618,0.0038221303255492663
6972.454207397834,0.0038062553173046965
6972.455207170049,0.0037902921003816733
6972.4562069422645,0.003774241312667629
6972.457206714479,0.0037581036720298233
6972.458206486695,0.0037418799844390837
6972.45920625891,0.0037255711520054486
6972.460206031125,0.003709178180917401
6972.461205803341,0.0036927021892765146
6972.462205575555,0.0036761444148194957
6972.463205347771,0.003659506222519821
6972.464205119986,0.0036427891120614318
6972.465204892202,0.003625994725177161
6972.466204664417,0.0036091248528447896
6972.4672044366325,0.003592181442333739
6972.468204208847,0.0035751666040954653
6972.469203981063,0.0035580826184906217
6972.470203753278,0.003540931942345978
6972.471203525493,0.003523717215333988
6972.472203297709,0.0035064412661677752
6972.473203069923,0.003489107118604176
6972.474202842139,0.003471717997247381
6972.475202614354,0.0034542773331456677
6972.47620238657,0.003436788769173741
6972.477202158785,0.003419256165193318
6972.4782019310005,0.0034016836029848087
6972.479201703215,0.003384075390943242
6972.480201475431,0.00336643606853198
6972.481201247646,0.003348770410488164
6972.482201019861,0.003331083430774343
6972.483200792077,0.00331338038627124
6972.484200564291,0.0032956667802071698
6972.485200336507,0.0032779483653202204
6972.486200108722,0.0032602311467499097
6972.487199880938,0.0032425213846556467
6972.488199653153,0.0032248255965599093
6972.4891994253685,0.003207150559414562
6972.490199197583,0.003189503311389189
6972.491198969799,0.0031718911533806767
6972.492198742014,0.0031543216502435637
6972.493198514229,0.003136802631740876
6972.494198286445,0.003119342193215282
6972.495198058659,0.0031019486959804506
6972.496197830875,0.0030846307674325126
6972.49719760309,0.003067397300881543
6972.498197375306,0.0030502574551030046
6972.499197147521,0.003033220653609196
6972.5001969197365,0.0030162965836408664
6972.501196691951,0.0029994951948793293
6972.502196464166,0.0029828266978796114
6972.503196236382,0.0029663015622253923
6972.504196008597,0.0029499305144067263
6972.505195780812,0.0029337245354218063
6972.506195553027,0.0029176948581043265
6972.507195325243,0.0029018529641782805
6972.508195097458,0.0028862105810423273
6972.509194869674,0.0028707796782861256
6972.510194641889,0.002855572463941264
6972.5111944141045,0.0028406013804696153
6972.512194186319,0.0028258791004920937
6972.513193958534,0.002811418522260901
6972.51419373075,0.0027972327648784112
6972.515193502965,0.0027833351632659234
6972.51619327518,0.0027697392628855647
6972.517193047395,0.0027564588142187166
6972.518192819611,0.0027435077670044873
6972.519192591826,0.0027309002642419275
6972.520192364042,0.0027186506359599106
6972.521192136257,0.0027067733927588506
6972.522191908472,0.002695283219128691
6972.523191680687,0.002684194966547852
6972.524191452902,0.0026735236463680786
6972.525191225118,0.002663284422490381
6972.526190997333,0.002653492603837495
6972.527190769548,0.0026441636366285057
6972.528190541763,0.002635313096461516
6972.529190313979,0.002626956680210473
6972.530190086194,0.0026191101977424435
6972.53118985841,0.0026117895634618017
6972.532189630625,0.0026050107876879063
6972.53318940284,0.002598789967872894
6972.534189175055,0.0025931432796662207
6972.53518894727,0.0025880869678325267
6972.536188719486,0.002583637337029334
6972.537188491701,0.0025798107424509988
6972.538188263916,0.0025766235803452884
6972.539188036131,0.002574092278408937
6972.540187808347,0.0025722332860685596
6972.541187580562,0.0025710630646533436
6972.542187352778,0.0025705980774659914
6972.543187124993,0.0025708547797584427
6972.544186897208,0.002571849608618929
6972.545186669423,0.0025735989727769517
6972.546186441638,0.0025761192423327988
6972.547186213854,0.002579426738418249
6972.548185986069,0.0025835377227951426
6972.549185758284,0.002588468387398539
6972.550185530499,0.0025942348438311854
6972.551185302715,0.0026008531128159916
6972.55218507493,0.002608339113613133
6972.5531848471455,0.0026167086534082708
6972.554184619361,0.002625977416678214
6972.555184391576,0.002636160954540146
6972.556184163791,0.002647274674090319
6972.557183936006,0.002659333827737903
6972.558183708222,0.002672353502539476
6972.559183480437,0.002686348609539477
6972.560183252652,0.0027013338731217864
6972.561183024867,0.0027173238203774893
6972.562182797083,0.0027343327704937954
6972.563182569298,0.0027523748241690908
6972.5641823415135,0.0027714638530590783
6972.565182113729,0.002791613489259015
6972.566181885944,0.0028128371148270926
6972.567181658159,0.0028351478513540303
6972.568181430374,0.002858558549583967
6972.56918120259,0.0028830817790917456
6972.570180974804,0.002908729818021584
6972.57118074702,0.002935514642892007
6972.572180519235,0.002963447918471634
6972.573180291451,0.0029925409877300914
6972.574180063666,0.0030228048618679195
6972.5751798358815,0.0030542502104289582
6972.576179608097,0.003086887351498323
6972.577179380312,0.0031207262419887722
6972.578179152527,0.003155776468018011
6972.579178924742,0.00319204723537929
6972.580178696958,0.003229547360107502
6972.581178469172,0.0032682852591428666
6972.582178241388,0.003308268941094207
6972.583178013603,0.0033495059971037715
6972.584177785819,0.003392003591815518
6972.585177558034,0.00343576845444882
6972.5861773302495,0.0034808068699795887
6972.587177102464,0.003527124670430889
6972.588176874679,0.003574727226275218
6972.589176646895,0.003623619437950702
6972.59017641911,0.0036738057274935338
6972.591176191326,0.0037252900302889714
6972.59217596354,0.0037780757869431436
6972.593175735756,0.0038321659352777266
6972.594175507971,0.003887562902449397
6972.595175280187,0.003944268597195736
6972.596175052402,0.004002284402209123
6972.5971748246175,0.0040616111666400044
6972.598174596832,0.004122249198730819
6972.599174369047,0.004184198258581743
6972.600174141263,0.004247457551049418
6972.601173913478,0.004312025718779801
6972.602173685694,0.004377900835376343
6972.603173457908,0.004445080398704823
6972.604173230124,0.004513561324336227
6972.605173002339,0.004583339939129207
6972.606172774555,0.0046544119749537
6972.60717254677,0.00472677256255734
6972.608172318985,0.004800416225576324
6972.6091720912,0.004875336874692346
6972.610171863415,0.004951527801937125
6972.611171635631,0.005028981675145968
6972.612171407846,0.005107690532561664
6972.613171180062,0.005187645777589849
6972.614170952276,0.005268838173706821
6972.615170724492,0.005351257839520619
6972.616170496707,0.005434894243986055
6972.617170268923,0.0055197362017743576
6972.618170041138,0.0056057718687980915
6972.619169813353,0.005692988737892151
6972.620169585568,0.005781373634651786
6972.621169357783,0.005870912713428892
6972.622169129999,0.005961591453488081
6972.623168902214,0.0060533946553244025
6972.62416867443,0.0061463064371449555
6972.625168446644,0.0062403102315170605
6972.62616821886,0.006335388782186065
6972.627167991075,0.006431524141066287
6972.628167763291,0.006528697665409007
6972.629167535506,0.006626890015151756
6972.630167307721,0.006726081150453411
6972.631167079936,0.006826250329419785
6972.632166852151,0.006927376106024324
6972.633166624367,0.007029436328228523
6972.634166396582,0.007132408136306408
6972.635166168797,0.007236267961377271
6972.636165941012,0.00734099152415064
6972.637165713228,0.007446553833887242
6972.638165485443,0.007552929187579598
6972.6391652576585,0.007660091169355796
6972.640165029874,0.0077680126501099315
6972.641164802089,0.007876665787362751
6972.642164574304,0.007986022025356077
6972.643164346519,0.00809605209538474
6972.644164118735,0.00820672601636982
6972.64516389095,0.008318013095677236
6972.646163663165,0.008429881930185835
6972.64716343538,0.008542300407609425
6972.648163207596,0.008655235708077394
6972.649162979811,0.008768654305978816
6972.6501627520265,0.008882521972075204
6972.651162524242,0.008996803775887316
6972.6521622964565,0.009111464088361542
6972.653162068672,0.009226466584821598
6972.654161840887,0.009341774248211275
6972.655161613103,0.009457349372634037
6972.656161385318,0.009573153567195238
6972.657161157533,0.009689147760152705
6972.658160929748,0.009805292203381447
6972.659160701964,0.00992154647715824
6972.660160474179,0.010037869495271955
6972.6611602463945,0.010154219510465632
6972.66216001861,0.01027055412021643
6972.6631597908245,0.010386830272859773
6972.66415956304,0.01050300427406419
6972.665159335255,0.010619031793663507
6972.666159107471,0.010734867872853162
6972.667158879686,0.010850466931757457
6972.668158651901,0.01096578277737465
6972.669158424116,0.011080768611906636
6972.670158196332,0.011195377041480018
6972.671157968547,0.011309560085265114
6972.6721577407625,0.011423269184999382
6972.673157512978,0.011536455214921441
6972.674157285192,0.01164906849212164
6972.675157057408,0.011761058787314817
6972.676156829623,0.011872375336040608
6972.677156601839,0.011982966850296413
6972.678156374054,0.01209278153060794
6972.679156146269,0.012201767078541996
6972.680155918484,0.012309870709666122
6972.6811556907,0.012417039166959465
6972.682155462915,0.012523218734679183
6972.6831552351305,0.01262835525268649
6972.684155007346,0.012732394131236406
6972.68515477956,0.012835280366235016
6972.686154551776,0.012936958554967959
6972.687154323991,0.013037372912303702
6972.688154096207,0.013136467287374977
6972.689153868422,0.013234185180741617
6972.690153640637,0.013330469762037797
6972.691153412852,0.013425263888106486
6972.692153185068,0.013518510121623641
6972.693152957283,0.013610150750214408
6972.6941527294985,0.013700127806063283
6972.695152501714,0.013788383086019889
6972.696152273928,0.013874858172201611
6972.697152046144,0.013959494453094069
6972.698151818359,0.014042233145149978
6972.699151590575,0.01412301531488664
6972.70015136279,0.014201781901481893
6972.701151135005,0.014278473739868016
6972.70215090722,0.014353031584322804
6972.703150679436,0.01442539613255666
6972.704150451651,0.014495508050294382
6972.705150223866,0.01456330799635002
6972.706149996082,0.014628736648192892
6972.707149768296,0.0146917347280025
6972.708149540512,0.014752243029209725
6972.709149312727,0.014810202443521268
6972.710149084943,0.014865553988423775
6972.711148857157,0.014918238835163555
6972.712148629373,0.0149681983371972
6972.713148401588,0.015015374059107814
6972.714148173804,0.01505970780598093
6972.715147946019,0.01510114165323357
6972.716147718234,0.01513961797688933
6972.717147490449,0.015175079484291787
6972.718147262664,0.015207469245248035
6972.71914703488,0.015236730723593585
6972.720146807095,0.015262807809169367
6972.721146579311,0.015285644850201171
6972.722146351525,0.015305186686071287
6972.723146123741,0.015321378680471787
6972.724145895956,0.01533416675492847
6972.725145668172,0.015343497422684142
6972.726145440387,0.015349317822929476
6972.727145212602,0.015351575755369398
6972.728144984817,0.015350219715112409
6972.729144757032,0.0153451989278697
6972.730144529248,0.015336463385450281
6972.731144301463,0.015323963881537487
6972.732144073679,0.015307652047731372
6972.733143845893,0.015287480389840274
6972.734143618109,0.015263402324403645
6972.735143390324,0.015235372215426772
6972.73614316254,0.015203345411306392
6972.737142934755,0.015167278281924509
6972.73814270697,0.01512712825588573
6972.739142479185,0.015082853857871462
6972.7401422514,0.015034414746082034
6972.741142023616,0.014981771749735487
6972.742141795831,0.014924886906589278
6972.743141568047,0.014863723500448648
6972.744141340261,0.014798246098622798
6972.745141112477,0.014728420589287299
6972.746140884692,0.014654214218708482
6972.747140656908,0.014575595628282846
6972.748140429123,0.01449253489134162
6972.749140201338,0.014405003549668022
6972.750139973553,0.014312974649671843
6972.751139745768,0.014216422778163306
6972.752139517984,0.014115324097665584
6972.753139290199,0.014009656381202948
6972.754139062415,0.013899399046499296
6972.755138834629,0.013784533189519917
6972.756138606845,0.013665041617287856
6972.75713837906,0.013540908879905117
6972.758138151276,0.013412121301708303
6972.759137923491,0.013278667011488053
6972.760137695706,0.013140535971702092
6972.761137467921,0.012997720006612614
6972.762137240136,0.012850212829280115
6972.763137012352,0.012698010067347852
6972.764136784567,0.012541109287553457
6972.765136556783,0.012379510018906963
6972.766136328997,0.012213213774477474
6972.767136101213,0.012042224071733759
6972.768135873428,0.01186654645138731
6972.769135645644,0.01168618849468984
6972.770135417859,0.011501159839140693
6972.771135190074,0.011311472192563588
6972.772134962289,0.01111713934551618
6972.773134734504,0.010918177182000291
6972.77413450672,0.010714603688445064
6972.775134278935,0.01050643896093984
6972.77613405115,0.010293705210698103
6972.777133823365,0.010076426767738397
6972.778133595581,0.009854630082772438
6972.779133367796,0.009628343727295033
6972.780133140012,0.009397598391874573
6972.781132912227,0.009162426882647129
6972.782132684441,0.00892286411602136
6972.783132456657,0.00867894711160574
6972.784132228872,0.008430714983373827
6972.785132001088,0.008178208929087598
6972.786131773303,0.007921472218002979
6972.787131545518,0.0076605501768857165
6972.788131317733,0.007395490174369323
6972.789131089949,0.007126341603690154
6972.790130862164,0.0068531558638374145
6972.791130634379,0.006575986339158325
6972.792130406595,0.006294888377460597
6972.793130178809,0.006009919266655946
6972.794129951025,0.005721138209989556
6972.79512972324,0.005428606299901221
6972.796129495456,0.005132386490564536
6972.797129267671,0.0048325435691507915
6972.798129039886,0.0045291441258644895
6972.799128812101,0.0042222565227975515
6972.800128584317,0.003911950861649324
6972.801128356532,0.003598298950359528
6972.802128128747,0.003281374268701217
6972.803127900963,0.0029612519328806874
6972.804127673177,0.0026380086591910996
6972.805127445393,0.0023117227267662986
6972.806127217608,0.0019824739394810435
6972.807126989824,0.0016503435870435285
6972.808126762039,0.0013154144053256888
6972.809126534254,0.00097777053597638
6972.810126306469,0.0006374974853620055
6972.8111260786845,0.0002946820828786057
6972.8121258509,-5.058756132121744e-05
6972.813125623115,-0.00039822209914386597
6972.814125395331,-0.0007481309878708269
6972.815125167545,-0.0011002225339339653
6972.816124939761,-0.0014544039371093235
6972.817124711976,-0.0018105813350892356
6972.818124484192,-0.0021686598483930133
6972.819124256407,-0.0025285436255768684
6972.820124028622,-0.0028901358887041626
6972.821123800837,-0.0032533389790375075
6972.8221235730525,-0.003618054402914733
6972.823123345268,-0.003984182877771285
6972.824123117483,-0.004351624378272208
6972.825122889699,-0.004720278182517603
6972.826122661913,-0.005090042918286169
6972.827122434129,-0.005460816609282349
6972.828122206344,-0.005832496721353455
6972.82912197856,-0.006204980208644129
6972.830121750775,-0.006578163559656503
6972.83112152299,-0.006951942843185508
6972.832121295205,-0.0073262137540998995
6972.8331210674205,-0.007700871658940747
6972.834120839636,-0.008075811641310356
6972.835120611851,-0.008450928547025758
6972.836120384067,-0.008826117029012124
6972.837120156281,-0.009201271591912578
6972.838119928497,-0.009576286636392007
6972.839119700712,-0.009951056503113596
6972.840119472928,-0.010325475516367862
6972.841119245142,-0.010699438027334942
6972.842119017358,-0.01107283845696193
6972.843118789573,-0.011445571338438003
6972.8441185617885,-0.011817531359250932
6972.845118334004,-0.012188613402809448
6972.846118106219,-0.012558712589616652
6972.847117878434,-0.012927724317980343
6972.848117650649,-0.013295544304246834
6972.849117422865,-0.013662068622545478
6972.85011719508,-0.014027193744031868
6972.851116967296,-0.014390816575618382
6972.85211673951,-0.014752834498181586
6972.853116511726,-0.015113145404236873
6972.854116283941,-0.015471647735071635
6972.8551160561565,-0.015828240517329173
6972.856115828372,-0.016182823399036456
6972.857115600587,-0.016535296685069582
6972.858115372802,-0.016885561372051525
6972.859115145017,-0.017233519182677265
6972.860114917233,-0.017579072599461964
6972.861114689448,-0.01792212489790814
6972.862114461664,-0.018262580179088217
6972.863114233878,-0.018600343401638998
6972.864114006094,-0.018935320413164956
6972.865113778309,-0.019267417981047308
6972.8661135505245,-0.019596543822656194
6972.86711332274,-0.01992260663496335
6972.868113094955,-0.02024551612355289
6972.86911286717,-0.020565183031028035
6972.870112639385,-0.020881519164811953
6972.871112411601,-0.02119443742434115
6972.872112183816,-0.02150385182765038
6972.873111956032,-0.021809677537348564
6972.874111728246,-0.022111830885985687
6972.875111500462,-0.022410229400811218
6972.876111272677,-0.022704791827925168
6972.877111044892,-0.022995438155823264
6972.878110817108,-0.023282089638337986
6972.879110589323,-0.023564668816977614
6972.880110361538,-0.02384309954266557
6972.881110133753,-0.024117306996882318
6972.882109905969,-0.02438721771221232
6972.883109678184,-0.02465275959229826
6972.8841094504,-0.024913861931205
6972.885109222614,-0.025170455432195534
6972.88610899483,-0.025422472225921068
6972.887108767045,-0.02566984588802753
6972.88810853926,-0.02591251145618058
6972.889108311476,-0.026150405446511277
6972.890108083691,-0.026383465869484566
6972.891107855906,-0.02661163224519274
6972.892107628121,-0.026834845618076253
6972.893107400337,-0.027053048571074254
6972.894107172552,-0.027266185239207392
6972.895106944768,-0.02747420132259554
6972.896106716982,-0.02767704409891313
6972.8971064891975,-0.02787466243528479
6972.898106261413,-0.028067006799624025
6972.899106033628,-0.02825402927141741
6972.900105805844,-0.028435683551956747
6972.901105578059,-0.028611924974021607
6972.902105350274,-0.02878271051101421
6972.903105122489,-0.028947998785548688
6972.904104894705,-0.029107750077496355
6972.90510466692,-0.029261926331488712
6972.906104439135,-0.029410491163879435
6972.90710421135,-0.0295534098691667
6972.9081039835655,-0.029690649425876868
6972.909103755781,-0.029822178501910514
6972.910103527996,-0.029947967459351674
6972.911103300212,-0.030067988358741075
6972.912103072426,-0.030182214962814344
6972.913102844642,-0.030290622739706043
6972.914102616857,-0.03039318886562059
6972.915102389073,-0.030489892226971255
6972.916102161288,-0.030580713421988377
6972.917101933503,-0.0306656347617982
6972.918101705718,-0.03074464027097374
6972.9191014779335,-0.030817715687558984
6972.920101250149,-0.03088484846256781
6972.921101022364,-0.03094602775895877
6972.92210079458,-0.03100124445008669
6972.923100566794,-0.031050491117631977
6972.92410033901,-0.031093762049008117
6972.925100111225,-0.031131053234247873
6972.926099883441,-0.031162362362368287
6972.927099655656,-0.03118768881721464
6972.928099427871,-0.031207033672783435
6972.929099200086,-0.031220399688024557
6972.9300989723015,-0.031227791301123114
6972.931098744517,-0.031229214623261625
6972.932098516732,-0.031224677431863725
6972.933098288948,-0.031214189163320877
6972.934098061162,-0.031197760905204173
6972.935097833378,-0.03117540538796358
6972.936097605593,-0.03114713697611742
6972.937097377809,-0.031112971658935232
6972.938097150024,-0.03107292704061744
6972.939096922239,-0.03102702232997544
6972.940096694454,-0.030975278329616003
6972.9410964666695,-0.030917717424633867
6972.942096238885,-0.030854363570816556
6972.9430960111,-0.030785242282365365
6972.944095783316,-0.03071038061913657
6972.94509555553,-0.030629807173406815
6972.946095327746,-0.030543552056166705
6972.947095099961,-0.030451646882946493
6972.948094872177,-0.030354124759177918
6972.949094644392,-0.03025102026509632
6972.950094416607,-0.030142369440187337
6972.951094188822,-0.030028209767182807
6972.9520939610375,-0.029908580155610858
6972.953093733253,-0.029783520924905445
6972.954093505468,-0.02965307378708105
6972.955093277684,-0.029517281828978528
6972.956093049898,-0.029376189494088448
6972.957092822114,-0.029229842563958556
6972.958092594329,-0.029078288139191853
6972.959092366545,-0.028921574620042096
6972.96009213876,-0.02875975168661356
6972.961091910975,-0.028592870278671956
6972.96209168319,-0.028420982575073552
6972.963091455405,-0.02824414197281987
6972.964091227621,-0.02806240306574547
6972.965090999836,-0.02787582162284673
6972.966090772052,-0.02768445456625992
6972.967090544266,-0.0274883599488972
6972.968090316482,-0.027287596931749453
6972.969090088697,-0.02708222576086528
6972.970089860913,-0.026872307744015802
6972.971089633127,-0.026657905227055242
6972.972089405343,-0.026439081569987602
6972.973089177558,-0.026215901122750122
6972.974088949773,-0.025988429200724583
6972.975088721989,-0.02575673205998764
6972.976088494204,-0.02552087687231177
6972.977088266419,-0.025280931699928552
6972.978088038634,-0.025036965470066088
6972.97908781085,-0.024789047949272513
6972.980087583065,-0.024537249717537728
6972.981087355281,-0.024281642142225328
6972.982087127495,-0.02402229735182692
6972.983086899711,-0.023759288209550887
6972.984086671926,-0.02349268828675778
6972.985086444141,-0.023222571836254337
6972.986086216357,-0.022949013765458267
6972.987085988572,-0.02267208960944575
6972.988085760787,-0.022391875503893714
6972.989085533002,-0.022108448157928805
6972.990085305218,-0.021821884826894962
6972.991085077433,-0.021532263285051555
6972.992084849649,-0.021239661798214123
6972.993084621863,-0.02094415909634964
6972.994084394079,-0.02064583434613837
6972.995084166294,-0.0203447671235143
6972.996083938509,-0.020041037386196194
6972.997083710725,-0.019734725446221128
6972.99808348294,-0.019425911942492265
6972.999083255155,-0.01911467781335251
6973.00008302737,-0.01880110426919531
6973.001082799586,-0.01848527276512375
6973.002082571801,-0.018167264973668603
6973.003082344017,-0.01784716275757576
6973.004082116231,-0.017525048142673
6973.005081888447,-0.017201003290825745
6973.006081660662,-0.016875110472991072
6973.007081432877,-0.016547452042379007
6973.008081205093,-0.01621811040772972
6973.009080977308,-0.015887168006715035
6973.010080749523,-0.015554707279472405
6973.011080521738,-0.015220810642279353
6973.012080293954,-0.014885560461376287
6973.013080066169,-0.014549039026945494
6973.0140798383845,-0.014211328527254161
6973.015079610599,-0.013872511022969276
6973.016079382815,-0.013532668421652284
6973.01707915503,-0.013191882452441371
6973.018078927245,-0.012850234640929369
6973.019078699461,-0.012507806284245202
6973.020078471676,-0.012164678426346777
6973.021078243891,-0.011820931833533124
6973.022078016106,-0.011476646970183338
6973.023077788322,-0.011131903974729742
6973.024077560537,-0.010786782635872332
6973.0250773327525,-0.010441362369041302
6973.026077104967,-0.010095722193114142
6973.027076877183,-0.00974994070739346
6973.028076649398,-0.009404096068851462
6973.029076421613,-0.009058265969646784
6973.030076193829,-0.008712527614919238
6973.031075966044,-0.008366957700867882
6973.032075738259,-0.008021632393117841
6973.033075510474,-0.007676627305381219
6973.03407528269,-0.007332017478417458
6973.035075054905,-0.00698787735929849
6973.03607482712,-0.006644280780983947
6973.037074599335,-0.006301300942211619
6973.038074371551,-0.00595901038770822
6973.039074143766,-0.005617480988725352
6973.040073915981,-0.005276783923905299
6973.041073688197,-0.004936989660481025
6973.042073460411,-0.004598167935814396
6973.043073232627,-0.004260387739276343
6973.044073004842,-0.003923717294472361
6973.045072777058,-0.0035882240418164102
6973.046072549273,-0.003253974621456068
6973.047072321488,-0.002921034856551496
6973.048072093703,-0.002589469736910679
6973.049071865918,-0.0022593434029832254
6973.050071638134,-0.0019307191302150133
6973.051071410349,-0.001603659313765982
6973.052071182565,-0.0012782254535934636
6973.053070954779,-0.0009544781399035331
6973.054070726995,-0.0006324770389729994
6973.05507049921,-0.00031228087934476536
6973.056070271426,6.052561600586984e-06
6973.057070043641,0.00032246647069403896
6973.058069815856,0.0006369050116452008
6973.059069588071,0.0009493133373241931
6973.060069360286,0.001259637601655382
6973.061069132502,0.0015678249711200873
6973.062068904717,0.001873823635865492
6973.063068676933,0.0021775828204171053
6973.064068449147,0.002479052793992294
6973.065068221363,0.002778184880412542
6973.066067993578,0.00307493146761226
6973.067067765794,0.0033692460167421084
6973.068067538009,0.003661083070864901
6973.069067310224,0.003950398263242233
6973.070067082439,0.004237148325209948
6973.071066854654,0.0045212910936405
6973.07206662687,0.004802785517990088
6973.073066399085,0.005081591666928292
6973.074066171301,0.005357670734547714
6973.075065943515,0.005630985046150981
6973.076065715731,0.005901498063612328
6973.077065487946,0.006169174390310951
6973.078065260162,0.006433979775633389
6973.079065032377,0.006695881119042309
6973.080064804592,0.006954846473709334
6973.081064576807,0.007210845049709942
6973.082064349022,0.0074638472167788085
6973.083064121238,0.007713824506624413
6973.084063893453,0.007960749614802221
6973.085063665669,0.008204596402146144
6973.086063437883,0.008445339895758486
6973.087063210099,0.008682956289558985
6973.088062982314,0.008917422944394043
6973.08906275453,0.009148718387707597
6973.090062526745,0.009376822312775422
6973.09106229896,0.009601715577504938
6973.092062071175,0.00982338020280276
6973.09306184339,0.010041799370512302
6973.094061615606,0.010256957420923755
6973.095061387821,0.010468839849858788
6973.096061160037,0.01067743330533232
6973.097060932251,0.010882725583793775
6973.098060704467,0.01108470562595037
6973.099060476682,0.011283363512175239
6973.1000602488975,0.011478690457503425
6973.101060021112,0.011670678806219168
6973.102059793328,0.011859322026038269
6973.103059565543,0.012044614701889656
6973.104059337758,0.01222655252930068
6973.105059109974,0.01240513230739105
6973.106058882189,0.01258035193148065
6973.107058654404,0.01275221038531682
6973.108058426619,0.012920707732927058
6973.109058198835,0.0130858451101033
6973.11005797105,0.013247624715524292
6973.1110577432655,0.013406049801522608
6973.11205751548,0.01356112466450315
6973.113057287696,0.013712854635019861
6973.114057059911,0.013861246067517442
6973.115056832126,0.014006306329744719
6973.116056604342,0.014148043791846168
6973.117056376557,0.014286467815137977
6973.118056148772,0.014421588740574923
6973.119055920987,0.014553417876914264
6973.120055693203,0.014681967488582921
6973.121055465418,0.014807250783254235
6973.1220552376335,0.014929281899140702
6973.123055009848,0.015048075892009155
6973.124054782064,0.015163648721924914
6973.125054554279,0.015276017239731595
6973.126054326494,0.01538519917327331
6973.12705409871,0.0154912131133662
6973.128053870925,0.01559407849952628
6973.12905364314,0.015693815605460654
6973.130053415355,0.015790445524329275
6973.131053187571,0.015883990153784444
6973.132052959786,0.015974472180795216
6973.1330527320015,0.0160619150662639
6973.134052504216,0.016146343029441807
6973.135052276431,0.016227781032151337
6973.136052048647,0.016306254762821472
6973.137051820862,0.0163817906203438
6973.138051593078,0.016454415697756106
6973.139051365293,0.01652415776576071
6973.140051137508,0.01659104525608483
6973.141050909723,0.01665510724469036
6973.142050681939,0.016716373434840618
6973.143050454154,0.01677487414003183
6973.1440502263695,0.01683064026679734
6973.145049998584,0.0168837032973927
6973.146049770799,0.01693409527236992
6973.147049543015,0.01698184877304938
6973.14804931523,0.017026996903897827
6973.149049087446,0.017069573274821007
6973.150048859661,0.01710961198337922
6973.151048631876,0.017147147596934104
6973.152048404091,0.017182215134734655
6973.153048176307,0.017214850049950263
6973.154047948522,0.017245088211658342
6973.1550477207375,0.017272965886793747
6973.156047492952,0.017298519722067203
6973.157047265167,0.017321786725859708
6973.158047037383,0.017342804250099954
6973.159046809598,0.017361609972131785
6973.160046581814,0.01737824187657884
6973.161046354029,0.01739273823721359
6973.162046126244,0.017405137598838043
6973.163045898459,0.017415478759183374
6973.164045670675,0.01742380075083575
6973.16504544289,0.017430142823195622
6973.1660452151045,0.017434544424477706
6973.16704498732,0.017437045183758847
6973.168044759535,0.017437684893080885
6973.169044531751,0.01743650348961562
6973.170044303966,0.0174335410378987
6973.171044076182,0.01742883771213903
6973.172043848396,0.017422433778609955
6973.173043620612,0.017414369578127815
6973.174043392827,0.01740468550862316
6973.175043165043,0.01739342200780913
6973.176042937258,0.017380619535951138
6973.1770427094725,0.01736631855874156
6973.178042481688,0.01735055953028284
6973.179042253903,0.017333382876182316
6973.180042026119,0.01731482897676188
6973.181041798334,0.017294938150385613
6973.18204157055,0.017273750636908516
6973.183041342764,0.017251306581249574
6973.18404111498,0.017227646017092497
6973.185040887195,0.017202808850717784
6973.1860406594105,0.0171768348449699
6973.187040431626,0.017149763603363708
6973.1880402038405,0.01712163455433459
6973.189039976056,0.017092486935637037
6973.190039748271,0.01706235977889666
6973.191039520487,0.017031291894320812
6973.192039292702,0.01699932185557311
6973.193039064918,0.016966487984817143
6973.194038837132,0.016932828337934615
6973.195038609348,0.016898380689923092
6973.196038381563,0.01686318252047825
6973.1970381537785,0.01682727099976561
6973.198037925994,0.016790682974386593
6973.1990376982085,0.016753454953543804
6973.200037470424,0.016715623095410498
6973.201037242639,0.01667722319370964
6973.202037014855,0.016638290664508046
6973.20303678707,0.016598860533231573
6973.204036559286,0.016558967421907628
6973.2050363315,0.016518645536641396
6973.206036103716,0.01647792865533244
6973.207035875931,0.01643685011563823
6973.2080356481465,0.01639544280319113
6973.209035420362,0.016353739140075003
6973.2100351925765,0.016311771073567335
6973.211034964792,0.016269570065152214
6973.212034737007,0.01622716707980903
6973.213034509223,0.016184592575581285
6973.214034281438,0.016141876493429262
6973.215034053654,0.01609904824736998
6973.216033825868,0.016056136714907247
6973.217033598084,0.016013170227754357
6973.218033370299,0.015970176562851754
6973.2190331425145,0.015927182933681568
6973.22003291473,0.015884215981881004
6973.221032686944,0.015841301769156282
6973.22203245916,0.015798465769498726
6973.223032231375,0.015755732861704504
6973.224032003591,0.01571312732219939
6973.225031775806,0.015670672818169782
6973.226031548022,0.01562839240100113
6973.227031320236,0.015586308500024659
6973.228031092452,0.01554444291657325
6973.229030864667,0.015502816818347065
6973.2300306368825,0.015461450734089251
6973.231030409097,0.015420364548571765
6973.232030181312,0.015379577497891024
6973.233029953528,0.015339108165072729
6973.234029725743,0.015298974475984812
6973.235029497959,0.015259193695557116
6973.236029270174,0.015219782424306095
6973.237029042389,0.015180756595162562
6973.238028814604,0.015142131470600236
6973.23902858682,0.015103921640062742
6973.240028359035,0.015066141017686562
6973.2410281312505,0.015028802840317382
6973.242027903465,0.01499191966581733
6973.24302767568,0.014955503371660564
6973.244027447896,0.014919565153814865
6973.245027220111,0.01488411552590693
6973.246026992327,0.014849164318669228
6973.247026764542,0.014814720679666365
6973.248026536757,0.014780793073299025
6973.249026308972,0.014747389281083486
6973.250026081188,0.014714516402204694
6973.251025853403,0.014682180854340707
6973.252025625618,0.0146503883747561
6973.253025397833,0.014619144021661735
6973.254025170048,0.014588452175838016
6973.255024942264,0.014558316542518582
6973.256024714479,0.01452874015353119
6973.257024486695,0.014499725369692412
6973.25802425891,0.014471273883452792
6973.259024031125,0.014443386721789169
6973.26002380334,0.01441606424934112
6973.261023575556,0.014389306171788732
6973.262023347771,0.014363111539469292
6973.263023119986,0.014337478751230825
6973.264022892201,0.014312405558520768
6973.265022664416,0.014287889069708312
6973.266022436632,0.014263925754639225
6973.267022208847,0.014240511449422118
6973.268021981063,0.01421764136144523
6973.269021753278,0.014195310074622755
6973.270021525493,0.014173511554869747
6973.271021297708,0.014152239155804365
6973.272021069924,0.014131485624676171
6973.273020842139,0.014111243108518932
6973.274020614354,0.014091503160526197
6973.275020386569,0.01407225674664789
6973.276020158784,0.014053494252406077
6973.277019931,0.014035205489927987
6973.278019703215,0.014017379705194446
