Time,Filtered_ECG
6938.157021553038,0.009933297211476197
6938.158021325253,0.010116358573644376
6938.159021097468,0.01029916771186826
6938.160020869684,0.010481669892063181
6938.161020641899,0.010663809896298447
6938.1620204141145,0.010845532037411652
6938.16302018633,0.011026780173996928
6938.1640199585445,0.011207497725766844
6938.16501973076,0.011387627689287843
6938.166019502975,0.011567112654089178
6938.167019275191,0.011745894819145555
6938.168019047405,0.011923916009733637
6938.169018819621,0.012101117694662529
6938.170018591836,0.012277441003878042
6938.171018364052,0.012452826746440188
6938.172018136267,0.012627215428872686
6938.1730179084825,0.012800547273882617
6938.174017680697,0.012972762239447549
6938.1750174529125,0.01314380003826671
6938.176017225128,0.013313600157571985
6938.177016997343,0.013482101879293875
6938.178016769559,0.01364924430057698
6938.179016541773,0.013814966354639115
6938.180016313989,0.013979206831967874
6938.181016086204,0.01414190440184816
6938.18201585842,0.01430299763421413
6938.183015630635,0.014462425021818825
6938.1840154028505,0.014620125002714809
6938.185015175065,0.014776035983039289
6938.1860149472805,0.01493009636009745
6938.187014719496,0.015082244545738055
6938.188014491711,0.015232418990015706
6938.189014263927,0.0153805582051344
6938.190014036141,0.015526600789667153
6938.191013808357,0.01567048545304646
6938.192013580572,0.015812151040320167
6938.193013352788,0.015951536557167186
6938.194013125003,0.01608858119516713
6938.1950128972185,0.016223224357317694
6938.196012669433,0.016355405683793314
6938.197012441648,0.016485065077938284
6938.198012213864,0.01661214273248729
6938.199011986079,0.0167365791560059
6938.200011758295,0.016858315199543398
6938.201011530509,0.016977292083489942
6938.202011302725,0.01709345142463005
6938.20301107494,0.01720673526338424
6938.204010847156,0.017317086091230872
6938.205010619371,0.017424446878300436
6938.2060103915865,0.017528761101134976
6938.207010163801,0.017629972770605715
6938.208009936016,0.01772802645998228
6938.209009708232,0.01782286733314714
6938.210009480447,0.017914441172948943
6938.211009252663,0.018002694409688012
6938.212009024877,0.018087574149727136
6938.213008797093,0.01816902820422
6938.214008569308,0.018247005117949106
6938.215008341524,0.0183214541982644
6938.216008113739,0.018392325544113346
6938.217007885954,0.01845957007515267
6938.218007658169,0.01852313956093169
6938.219007430384,0.01858298665013687
6938.2200072026,0.01863906489988684
6938.221006974815,0.01869132880506696
6938.222006747031,0.018739733827692305
6938.223006519245,0.0187842364262877
6938.224006291461,0.018824794085273707
6938.225006063676,0.01886136534434744
6938.226005835892,0.018893909827847232
6938.227005608107,0.018922388274090384
6938.228005380322,0.018946762564673012
6938.229005152537,0.018966995753720718
6938.230004924752,0.018983052097078137
6938.231004696968,0.01899489708142439
6938.232004469183,0.0190024974533003
6938.233004241398,0.019005821248031744
6938.234004013613,0.019004837818532037
6938.235003785829,0.018999517863964605
6938.236003558044,0.018989833458245377
6938.23700333026,0.018975758078362603
6938.238003102475,0.018957266632489714
6938.23900287469,0.018934335487864752
6938.240002646905,0.018906942498407756
6938.24100241912,0.01887506703204526
6938.242002191336,0.018838689997708713
6938.243001963551,0.018797793871971457
6938.244001735766,0.018752362725286686
6938.245001507981,0.01870238224778672
6938.246001280197,0.01864783977460184
6938.247001052412,0.018588724310654916
6938.248000824628,0.018525026554886165
6938.249000596843,0.018456738923860346
6938.2500003690575,0.018383855574706804
6938.251000141273,0.01830637242734081
6938.251999913488,0.018224287185912662
6938.252999685704,0.018137599359429143
6938.253999457919,0.018046310281490376
6938.254999230134,0.017950423129083747
6938.255999002349,0.017849942940375715
6938.256998774565,0.01774487663144183
6938.25799854678,0.01763523301187534
6938.258998318996,0.01752102279921521
6938.259998091211,0.017402258632135292
6938.2609978634255,0.017278955082337937
6938.261997635641,0.017151128665096983
6938.262997407856,0.017018797848397625
6938.263997180072,0.016881983060623263
6938.264996952287,0.016740706696742623
6938.265996724502,0.01659499312295372
6938.266996496717,0.016444868679744786
6938.267996268933,0.016290361683335898
6938.268996041148,0.016131502425468857
6938.269995813364,0.015968323171517022
6938.270995585579,0.01580085815689107
6938.2719953577935,0.015629143581721367
6938.272995130009,0.015453217603802392
6938.273994902224,0.01527312032978959
6938.27499467444,0.01508889380464405
6938.275994446655,0.014900581999325323
6938.27699421887,0.014708230796737684
6938.277993991085,0.014511887975939839
6938.278993763301,0.01431160319463272
6938.279993535516,0.014107427969944417
6938.280993307732,0.01389941565753554
6938.281993079947,0.013687621429052492
6938.282992852161,0.01347210224796013
6938.283992624377,0.01325291684378934
6938.284992396592,0.013030125684838863
6938.285992168808,0.012803790949374368
6938.286991941023,0.012573976495371075
6938.287991713238,0.012340747828849061
6938.288991485453,0.012104172070852827
6938.289991257669,0.011864317923128498
6938.290991029884,0.011621255632553335
6938.2919908021,0.011375056954373144
6938.292990574315,0.011125795114303567
6938.293990346529,0.010873544769551399
6938.294990118745,0.010618381968811891
6938.29598989096,0.010360384111297598
6938.296989663176,0.010099629904853708
6938.29798943539,0.009836199323214145
6938.298989207606,0.009570173562451838
6938.299988979821,0.00930163499667564
6938.300988752037,0.009030667133025467
6938.301988524252,0.00875735456601625
6938.302988296467,0.008481782931280307
6938.303988068683,0.008204038858756877
6938.304987840897,0.007924209925376824
6938.305987613113,0.0076423846072897
6938.306987385328,0.007358652231679699
6938.307987157544,0.007073102928216235
6938.308986929758,0.006785827580183956
6938.309986701974,0.006496917775336017
6938.310986474189,0.00620646575651328
6938.311986246405,0.005914564372070916
6938.31298601862,0.005621307026152759
6938.313985790835,0.005326787628852578
6938.31498556305,0.00503110054630043
6938.315985335265,0.004734340550711221
6938.316985107481,0.004436602770431705
6938.317984879696,0.004137982640021254
6938.318984651912,0.003838575850400784
6938.319984424126,0.003538478299103397
6938.320984196342,0.003237786040659386
6938.321983968557,0.00293659523714749
6938.3229837407725,0.002635002108943561
6938.323983512988,0.002333102885697258
6938.324983285203,0.0020309937575669064
6938.325983057418,0.0017287708267422462
6938.326982829633,0.0014265300592843414
6938.327982601849,0.0011243672373114125
6938.328982374064,0.0008223779115586895
6938.32998214628,0.000520657354339616
6938.330981918494,0.00021930051293483688
6938.33198169071,-8.159803656553885e-05
6938.332981462925,-0.0003819441349418689
6938.3339812351405,-0.0006816440850234794
6938.334981007356,-0.0009806046963429385
6938.335980779571,-0.0012787333292440313
6938.336980551786,-0.0015759379384220156
6938.337980324001,-0.0018721271158753665
6938.338980096217,-0.002167210133248839
6938.339979868432,-0.002461096983548345
6938.340979640648,-0.0027536984222088635
6938.341979412862,-0.003044926007497354
6938.342979185078,-0.0033346921402333846
6938.343978957293,-0.0036229101028108727
6938.3449787295085,-0.003909494097504931
6938.345978501724,-0.0041943592840482935
6938.346978273939,-0.004477421816462293
6938.347978046154,-0.004758598879127825
6938.348977818369,-0.005037808722082329
6938.349977590585,-0.0053149706955294505
6938.3509773628,-0.005590005283548802
6938.351977135016,-0.005862834136994043
6938.35297690723,-0.006133380105568285
6938.353976679446,-0.006401567269066646
6938.354976451661,-0.00666732096777653
6938.3559762238765,-0.006930567832026953
6938.356975996092,-0.007191235810878937
6938.357975768307,-0.007449254199949705
6938.358975540522,-0.007704553668364068
6938.359975312737,-0.007957066284827095
6938.360975084953,-0.0082067255428128
6938.361974857168,-0.008453466384864208
6938.362974629383,-0.008697225226000704
6938.363974401598,-0.008937939976229057
6938.364974173814,-0.009175550062154895
6938.365973946029,-0.009409996447691726
6938.3669737182445,-0.009641221653864862
6938.36797349046,-0.009869169777707973
6938.368973262675,-0.010093786510250304
6938.36997303489,-0.010315019153593015
6938.370972807105,-0.010532816637073701
6938.371972579321,-0.01074712953251874
6938.372972351536,-0.010957910068583826
6938.373972123751,-0.011165112144183711
6938.374971895966,-0.011368691341012966
6938.375971668182,-0.011568604935160157
6938.376971440397,-0.011764811907818546
6938.3779712126125,-0.01195727295509701
6938.378970984828,-0.01214595049693546
6938.379970757042,-0.012330808685129528
6938.380970529258,-0.012511813410469835
6938.381970301473,-0.012688932309001501
6938.382970073689,-0.012862134767409798
6938.383969845904,-0.013031391927538145
6938.384969618119,-0.013196676690044649
6938.385969390334,-0.013357963717203419
6938.38696916255,-0.013515229434856902
6938.387968934765,-0.013668452033525475
6938.38896870698,-0.013817611468680643
6938.389968479196,-0.01396268946018841
6938.39096825141,-0.014103669490929656
6938.391968023626,-0.014240536804604745
6938.392967795841,-0.014373278402729998
6938.393967568057,-0.014501883040834163
6938.394967340272,-0.014626341223863517
6938.395967112487,-0.014746645200804674
6938.396966884702,-0.014862788958534648
6938.397966656918,-0.014974768214908145
6938.398966429133,-0.01508258041109237
6938.399966201348,-0.015186224703159966
6938.400965973564,-0.015285701952950932
6938.401965745778,-0.015381014718214571
6938.402965517994,-0.015472167242042674
6938.403965290209,-0.015559165441605112
6938.404965062425,-0.01564201689619906
6938.40596483464,-0.015720730834622974
6938.406964606855,-0.0157953181218863
6938.40796437907,-0.01586579124526586
6938.4089641512855,-0.015932164299719782
6938.409963923501,-0.015994452972670027
6938.410963695716,-0.01605267452816466
6938.411963467932,-0.01610684779043135
6938.412963240146,-0.016156993126833906
6938.413963012362,-0.016203132430244006
6938.414962784577,-0.0162452891008405
6938.415962556793,-0.016283488027349077
6938.416962329008,-0.016317755567735223
6938.417962101223,-0.016348119529363637
6938.418961873438,-0.01637460914863747
6938.4199616456535,-0.016397255070130776
6938.420961417869,-0.016416089325227708
6938.421961190084,-0.016431145310281912
6938.4229609623,-0.016442457764309543
6938.423960734514,-0.01645006274622913
6938.42496050673,-0.01645399761166125
6938.425960278945,-0.016454300989300633
6938.426960051161,-0.016451012756872826
6938.427959823375,-0.01644417401668731
6938.428959595591,-0.01643382707079852
6938.429959367806,-0.01642001539578606
6938.4309591400215,-0.016402783617165326
6938.431958912237,-0.01638217748343984
6938.432958684452,-0.016358243839806604
6938.433958456668,-0.016331030601526027
6938.434958228882,-0.01630058672696806
6938.435958001098,-0.016266962190346165
6938.436957773313,-0.01623020795415059
6938.437957545529,-0.016190375941292308
6938.438957317743,-0.01614751900696859
6938.439957089959,-0.01610169091026102
6938.440956862174,-0.016052946285476627
6938.4419566343895,-0.016001340613242675
6938.442956406605,-0.0159469301913657
6938.44395617882,-0.01588977210546527
6938.444955951035,-0.01582992419939291
6938.44595572325,-0.01576744504544653
6938.446955495466,-0.015702393914390527
6938.447955267681,-0.01563483074529172
6938.448955039897,-0.015564816115181212
6938.449954812111,-0.015492411208552418
6938.450954584327,-0.015417677786705646
6938.451954356542,-0.015340678156949955
6938.4529541287575,-0.01526147514167327
6938.453953900973,-0.0151801320472921
6938.454953673188,-0.015096712633092481
6938.455953445403,-0.015011281079974107
6938.456953217618,-0.01492390195910977
6938.457952989834,-0.01483464020053261
6938.458952762049,-0.014743561061663855
6938.459952534265,-0.014650730095794024
6938.460952306479,-0.014556213120530634
6938.461952078695,-0.014460076186225752
6938.46295185091,-0.01436238554439665
6938.4639516231255,-0.01426320761615286
6938.464951395341,-0.014162608960642765
6938.465951167556,-0.014060656243532596
6938.466950939771,-0.013957416205530553
6938.467950711986,-0.013852955630968557
6938.468950484202,-0.01374734131645411
6938.469950256417,-0.013640640039604735
6938.470950028633,-0.013532918527877816
6938.471949800847,-0.013424243427508862
6938.472949573063,-0.013314681272571748
6938.473949345278,-0.013204298454174875
6938.474949117493,-0.013093161189807528
6938.475948889709,-0.012981335492851069
6938.476948661924,-0.01286888714226971
6938.477948434139,-0.012755881652495731
6938.478948206354,-0.012642384243523964
6938.47994797857,-0.012528459811230358
6938.480947750785,-0.012414172897929364
6938.481947523001,-0.012299587663184881
6938.482947295215,-0.012184767854889422
6938.483947067431,-0.012069776780626066
6938.484946839646,-0.011954677279327463
6938.485946611861,-0.011839531693245902
6938.486946384077,-0.011724401840248179
6938.487946156292,-0.011609348986448605
6938.488945928507,-0.011494433819193411
6938.489945700722,-0.011379716420409608
6938.490945472938,-0.011265256240331381
6938.491945245153,-0.011151112071617102
6938.492945017368,-0.01103734202387016
6938.493944789583,-0.010924003498576767
6938.494944561799,-0.010811153164474068
6938.495944334014,-0.010698846933361695
6938.496944106229,-0.01058713993636985
6938.497943878445,-0.010476086500696839
6938.49894365066,-0.010365740126828662
6938.499943422875,-0.010256153466253084
6938.50094319509,-0.01014737829968024
6938.501942967306,-0.010039465515781472
6938.502942739521,-0.00993246509045758
6938.503942511736,-0.009826426066646986
6938.504942283951,-0.009721396534683565
6938.505942056167,-0.009617423613212966
6938.506941828382,-0.009514553430675405
6938.507941600597,-0.00941283110736211
6938.508941372813,-0.009312300738051978
6938.509941145027,-0.009213005375234465
6938.510940917243,-0.00911498701292439
6938.511940689458,-0.009018286571074051
6938.512940461674,-0.008922943880587812
6938.513940233889,-0.008828997668944155
6938.514940006104,-0.008736485546429933
6938.515939778319,-0.008645443992991317
6938.516939550535,-0.008555908345705625
6938.51793932275,-0.008467912786877826
6938.518939094965,-0.008381490332765182
6938.519938867181,-0.008296672822933046
6938.520938639395,-0.00821349091024443
6938.521938411611,-0.008131974051485477
6938.522938183826,-0.008052150498628428
6938.523937956042,-0.007974047290732986
6938.524937728257,-0.007897690246486143
6938.525937500472,-0.007823103957379608
6938.526937272687,-0.007750311781523113
6938.527937044903,-0.007679335838091007
6938.528936817118,-0.007610197002398853
6938.529936589333,-0.007542914901606213
6938.530936361549,-0.00747750791104138
6938.531936133763,-0.007413993151143506
6938.532935905979,-0.0073523864850173915
6938.533935678194,-0.007292702516595969
6938.53493545041,-0.0072349545894054125
6938.535935222625,-0.0071791547859276095
6938.53693499484,-0.007125313927554564
6938.537934767055,-0.0070734415751290735
6938.538934539271,-0.007023546030065736
6938.539934311486,-0.006975634336046043
6938.540934083701,-0.006929712281280965
6938.541933855917,-0.006885784401334045
6938.542933628131,-0.0068438539824976176
6938.543933400347,-0.00680392306571423
6938.544933172562,-0.006765992451034794
6938.545932944778,-0.006730061702604387
6938.546932716993,-0.006696129154165973
6938.547932489208,-0.0066641919150717335
6938.548932261423,-0.006634245876791207
6938.549932033639,-0.00660628571990507
6938.550931805854,-0.00658030492157325
6938.551931578069,-0.006556295763466048
6938.552931350285,-0.006534249340147094
6938.553931122499,-0.006514155567897145
6938.554930894715,-0.006496003193967909
6938.55593066693,-0.006479779806255254
6938.556930439146,-0.006465471843381176
6938.55793021136,-0.006453064605173952
6938.558929983576,-0.006442542263535916
6938.559929755791,-0.006433887873688283
6938.560929528006,-0.00642708338578251
6938.561929300222,-0.0064221096568676875
6938.562929072437,-0.00641894646320347
6938.563928844653,-0.0064175725129079885
6938.564928616867,-0.006417965458930005
6938.565928389083,-0.006420101912334423
6938.566928161298,-0.006423957455889991
6938.567927933514,-0.006429506657947931
6938.568927705728,-0.006436723086600202
6938.569927477944,-0.006445579324106254
6938.570927250159,-0.00645604698157755
6938.571927022374,-0.006468096713909683
6938.57292679459,-0.00648169823495258
6938.573926566805,-0.006496820332910076
6938.57492633902,-0.006513430885960793
6938.575926111235,-0.0065314968780929485
6938.576925883451,-0.006550984415146192
6938.577925655666,-0.006571858741054053
6938.578925427882,-0.006594084254280932
6938.579925200096,-0.006617624524447894
6938.580924972312,-0.006642442309141768
6938.581924744527,-0.0066684995709022496
6938.582924516742,-0.006695757494381689
6938.583924288958,-0.006724176503672144
6938.584924061173,-0.006753716279794023
6938.585923833388,-0.0067843357783402775
6938.586923605603,-0.0068159932472697474
6938.587923377819,-0.006848646244842992
6938.588923150034,-0.006882251657693814
6938.58992292225,-0.00691676571902979
6938.590922694464,-0.006952144026955429
6938.59192246668,-0.0069883415629122215
6938.592922238895,-0.007025312710230469
6938.59392201111,-0.007063011272788611
6938.594921783326,-0.0071013904937765335
6938.595921555541,-0.007140403074559989
6938.596921327756,-0.007180001193643916
6938.597921099971,-0.007220136525732822
6938.598920872187,-0.007260760260886817
6938.599920644402,-0.0073018231237720835
6938.600920416618,-0.007343275393004761
6938.601920188832,-0.007385066920587254
6938.602919961048,-0.007427147151435952
6938.603919733263,-0.007469465142999167
6938.604919505478,-0.007511969584963823
6938.605919277694,-0.0075546088190490334
6938.606919049909,-0.0075973308588842825
6938.607918822124,-0.007640083409969515
6938.608918594339,-0.007682813889714035
6938.609918366555,-0.007725469447550888
6938.61091813877,-0.0077679969851231654
6938.6119179109855,-0.007810343176538664
6938.6129176832,-0.007852454488689316
6938.613917455416,-0.007894277201631899
6938.614917227631,-0.007935757429026597
6938.615916999846,-0.007976841138630132
6938.616916772062,-0.00801747417284014
6938.617916544277,-0.008057602269287542
6938.618916316492,-0.008097171081473621
6938.619916088707,-0.008136126199448462
6938.620915860923,-0.008174413170527375
6938.621915633138,-0.008211977520041793
6938.622915405353,-0.008248764772120972
6938.623915177568,-0.00828472047050051
6938.624914949784,-0.008319790199353335
6938.625914721999,-0.008353919604138215
6938.626914494214,-0.008387054412460395
6938.62791426643,-0.008419140454938325
6938.628914038645,-0.008450123686069977
6938.62991381086,-0.008479950205091864
6938.630913583075,-0.008508566276823585
6938.631913355291,-0.00853591835249066
6938.632913127506,-0.008561953090518451
6938.633912899721,-0.008586617377290192
6938.634912671936,-0.008609858347862378
6938.635912444152,-0.008631623406631105
6938.636912216367,-0.008651860247943208
6938.637911988582,-0.008670516876646333
6938.638911760798,-0.008687541628572272
6938.639911533012,-0.008702883190948033
6938.640911305228,-0.008716490622729185
6938.641911077443,-0.008728313374850031
6938.642910849659,-0.008738301310385044
6938.643910621874,-0.008746404724615825
6938.644910394089,-0.008752574364997495
6938.645910166304,-0.008756761451018105
6938.64690993852,-0.008758917693944305
6938.647909710735,-0.008758995316446224
6938.64890948295,-0.008756947072094295
6938.649909255166,-0.008752726264720739
6938.65090902738,-0.00874628676763844
6938.651908799596,-0.008737583042710108
6938.652908571811,-0.008726570159260831
6938.653908344027,-0.008713203812827346
6938.654908116242,-0.008697440343737638
6938.655907888457,-0.008679236755514755
6938.656907660672,-0.008658550733098982
6938.657907432887,-0.008635340660882807
6938.658907205103,-0.008609565640553336
6938.659906977318,-0.00858118550873703
6938.660906749534,-0.008550160854441791
6938.661906521748,-0.008516453036291474
6938.662906293964,-0.008480024199547858
6938.663906066179,-0.008440837292914977
6938.664905838395,-0.008398856085120284
6938.66590561061,-0.00835404518126673
6938.666905382825,-0.00830637003894935
6938.66790515504,-0.008255796984129498
6938.668904927255,-0.008202293226759598
6938.669904699471,-0.008145826876151119
6938.670904471686,-0.008086366956078601
6938.671904243902,-0.008023883419612682
6938.672904016116,-0.007958347163675304
6938.673903788332,-0.007889730043310571
6938.674903560547,-0.007818004885665045
6938.675903332763,-0.007743145503671442
6938.676903104978,-0.007665126709430011
6938.6779028771925,-0.0075839243272820146
6938.678902649408,-0.00749951520656996
6938.679902421623,-0.007411877234079329
6938.680902193839,-0.007320989346156767
6938.681901966054,-0.0072268315404998415
6938.68290173827,-0.007129384887613618
6938.683901510484,-0.007028631541929385
6938.6849012827,-0.006924554752580858
6938.685901054915,-0.006817138873833201
6938.686900827131,-0.006706369375160086
6938.687900599345,-0.006592232850964101
6938.6889003715605,-0.0064747170299358
6938.689900143776,-0.006353810784046923
6938.690899915991,-0.006229504137173541
6938.691899688207,-0.006101788273345239
6938.692899460422,-0.00597065554461692
6938.693899232638,-0.005836099478560214
6938.694899004852,-0.005698114785372001
6938.695898777068,-0.0055566973645979345
6938.696898549283,-0.005411844311469258
6938.6978983214985,-0.005263553922851396
6938.698898093713,-0.005111825702803029
6938.6998978659285,-0.004956660367744494
6938.700897638144,-0.00479805985123443
6938.701897410359,-0.004636027308353735
6938.702897182575,-0.004470567119695941
6938.70389695479,-0.004301684894963113
6938.704896727005,-0.004129387476166326
6938.70589649922,-0.003953682940429552
6938.706896271436,-0.003774580602395653
6938.707896043651,-0.003592091016233024
6938.7088958158665,-0.0034062259772414285
6938.709895588081,-0.0032169985230556457
6938.7108953602965,-0.003024422934445832
6938.711895132512,-0.00282851473571386
6938.712894904727,-0.002629290694685372
6938.713894676943,-0.0024267688222978194
6938.714894449158,-0.0022209683717852764
6938.715894221373,-0.002011909837461326
6938.716893993588,-0.0017996149531017654
6938.717893765804,-0.0015841066899292945
6938.718893538019,-0.0013654092542027035
6938.7198933102345,-0.0011435480844134125
6938.720893082449,-0.000918549848092514
6938.7218928546645,-0.0006904424382317143
6938.72289262688,-0.0004592549693217391
6938.723892399095,-0.0002250177730118483
6938.724892171311,1.2237606605899687e-05
6938.725891943526,0.00025247841808405527
6938.726891715741,0.000495670708075359
6938.727891487956,0.000741779327153055
6938.728891260172,0.0009907679359924954
6938.729891032387,0.0012425990119105123
6938.7308908046025,0.0014972338557588574
6938.731890576817,0.0017546325991677533
6938.7328903490325,0.0020147542121352986
6938.733890121248,0.0022775565109581335
6938.734889893463,0.002542996166498482
6938.735889665679,0.0028110287127824265
6938.736889437894,0.0030816085559240932
6938.737889210109,0.00335468898337034
6938.738888982324,0.003630222173460496
6938.73988875454,0.003908159205295736
6938.740888526755,0.004188450068912734
6938.7418882989705,0.004471043675756353
6938.742888071185,0.004755887869446281
6938.7438878434,0.005042929436832781
6938.744887615616,0.005332114119337116
6938.745887387831,0.005623386624572662
6938.746887160047,0.00591669063824323
6938.747886932262,0.006211968836315631
6938.748886704477,0.006509162897463939
6938.749886476692,0.00680821351578318
6938.750886248908,0.007109060413770386
6938.751886021123,0.007411642355570959
6938.752885793338,0.007715897160488156
6938.753885565553,0.008021761716753392
6938.754885337768,0.008329171995554864
6938.755885109984,0.008638063065321834
6938.756884882199,0.008948369106261836
6938.757884654415,0.009260023425148024
6938.75888442663,0.009572958470353884
6938.759884198845,0.009887105847132543
6938.76088397106,0.010202396333138023
6938.761883743276,0.010518759894185865
6938.762883515491,0.010836125700250766
6938.7638832877055,0.01115442214169912
6938.764883059921,0.011473576845754733
6938.765882832136,0.011793516693196244
6938.766882604352,0.01211416783528519
6938.767882376567,0.012435455710923799
6938.768882148783,0.012757305064041664
6938.769881920997,0.013079639961210388
6938.770881693213,0.013402383809484882
6938.771881465428,0.013725459374469713
6938.772881237644,0.014048788798608347
6938.773881009859,0.014372293619692764
6938.7748807820735,0.014695894789590458
6938.775880554289,0.01501951269318566
6938.776880326504,0.01534306716753131
6938.77788009872,0.01566647752120833
6938.778879870935,0.01598966255388864
6938.779879643151,0.01631254057609844
6938.780879415365,0.016635029429178275
6938.781879187581,0.01695704650543649
6938.782878959796,0.017278508768492743
6938.783878732012,0.017599332773808464
6938.784878504227,0.017919434689401395
6938.7858782764415,0.018238730316741586
6938.786878048657,0.018557135111826602
6938.787877820872,0.01887456420643397
6938.788877593088,0.019190932429549112
6938.789877365303,0.01950615432896702
6938.790877137519,0.019820144193066033
6938.791876909733,0.020132816072751716
6938.792876681949,0.02044408380356864
6938.793876454164,0.02075386102797745
6938.79487622638,0.02106206121779425
6938.795875998595,0.021368597696789077
6938.7968757708095,0.021673383663439717
6938.797875543025,0.02197633221383713
6938.79887531524,0.022277356364738408
6938.799875087456,0.02257636907676324
6938.800874859671,0.022873283277729833
6938.801874631887,0.023168011886126414
6938.802874404101,0.023460467834714564
6938.803874176317,0.023750564094260955
6938.804873948532,0.024038213697394235
6938.805873720748,0.02432332976258422
6938.806873492963,0.02460582551824073
6938.8078732651775,0.02488561432692972
6938.808873037393,0.02516260970970446
6938.809872809608,0.025436725370549685
6938.810872581824,0.025707875220936635
6938.811872354039,0.025975973404486697
6938.812872126255,0.026240934321741103
6938.813871898469,0.02650267265503384
6938.814871670685,0.026761103393464502
6938.8158714429,0.027016141857967507
6938.816871215116,0.027267703726473788
6938.81787098733,0.027515705059160567
6938.8188707595455,0.027760062323784664
6938.819870531761,0.02800069242109443
6938.820870303976,0.028237512710315174
6938.821870076192,0.0284704410347026
6938.822869848407,0.028699395747158695
6938.823869620623,0.02892429573590429
6938.824869392837,0.029145060450202407
6938.825869165053,0.02936160992612629
6938.826868937268,0.02957386481236589
6938.827868709484,0.02978174639606639
6938.828868481698,0.029985176628692066
6938.829868253913,0.03018407815190843
6938.830868026129,0.03037837432347494
6938.831867798344,0.030567989243140234
6938.83286757056,0.03075284777853106
6938.833867342775,0.030932875591025623
6938.83486711499,0.03110799916160144
6938.835866887205,0.03127814581664738
6938.836866659421,0.031443243753729234
6938.837866431636,0.03160322206729768
6938.838866203852,0.031758010774327286
6938.839865976066,0.03190754083987491
6938.840865748281,0.03205174420254561
6938.841865520497,0.03219055379985382
6938.842865292712,0.03232390359346756
6938.843865064928,0.032451728594323305
6938.844864837143,0.03257396488759894
6938.845864609358,0.03269054965753283
6938.846864381573,0.032801421212076604
6938.847864153789,0.03290651900736947
6938.848863926004,0.03300578367202182
6938.849863698219,0.03309915703119539
6938.850863470434,0.03318658213046696
6938.851863242649,0.03326800325946207
6938.852863014865,0.033343365975244794
6938.85386278708,0.033412617125449115
6938.854862559296,0.0334757048711369
6938.855862331511,0.03353257870936749
6938.856862103726,0.03358318949546339
6938.857861875941,0.03362748946495689
6938.858861648157,0.03366543225520223
6938.859861420372,0.03369697292663853
6938.860861192587,0.03372206798368854
6938.861860964802,0.03374067539527896
6938.862860737017,0.03375275461496828
6938.863860509233,0.033758266600668614
6938.864860281448,0.033757173833948474
6938.865860053664,0.03374944033890397
6938.866859825879,0.03373503170058643
6938.867859598094,0.03371391508297492
6938.868859370309,0.03368605924648267
6938.869859142525,0.03365143456498637
6938.87085891474,0.03361001304236797
6938.871858686955,0.033561768328558485
6938.87285845917,0.03350667573507349
6938.873858231385,0.0334447122500304
6938.874858003601,0.033375856552637535
6938.875857775816,0.03330008902714541
6938.876857548032,0.03321739177625108
6938.877857320247,0.03312774863394655
6938.878857092462,0.03303114517780257
6938.879856864677,0.03292756874068
6938.8808566368925,0.03281700842186068
6938.881856409108,0.03269945509759071
6938.8828561813225,0.03257490143102926
6938.883855953538,0.03244334188159659
6938.884855725753,0.03230477271371559
6938.885855497969,0.032159192004941516
6938.886855270184,0.03200659965347525
6938.8878550424,0.03184699738505575
6938.888854814615,0.03168038875922775
6938.88985458683,0.03150677917498081
6938.890854359045,0.03132617587575635
6938.8918541312605,0.031138587953818776
6938.892853903476,0.030944026353987557
6938.8938536756905,0.03074250387672639
6938.894853447906,0.030534035180586297
6938.895853220121,0.030318636783999226
6938.896852992337,0.03009632706641895
6938.897852764552,0.02986712626880626
6938.898852536768,0.029631056493455675
6938.899852308982,0.029388141703160994
6938.900852081198,0.029138407719717183
6938.901851853413,0.028881882221756507
6938.9028516256285,0.028618594741917153
6938.903851397844,0.028348576663343
6938.9048511700585,0.028071861215513718
6938.905850942274,0.027788483469405316
6938.906850714489,0.027498480331981653
6938.907850486705,0.027201890540018564
6938.90885025892,0.026898754653262708
6938.909850031136,0.026589115046927868
6938.91084980335,0.026273015903532062
6938.911849575566,0.025950503204079132
6938.912849347781,0.025621624718588615
6938.9138491199965,0.02528642999597825
6938.914848892212,0.024944970353303467
6938.915848664426,0.02459729886435852
6938.916848436642,0.024243470347644364
6938.917848208857,0.0238835413537084
6938.918847981073,0.023517570151861743
6938.919847753288,0.023145616716279956
6938.920847525504,0.02276774271149345
6938.921847297718,0.022384011477274195
6938.922847069934,0.02199448801292581
6938.923846842149,0.021599238960984656
6938.9248466143645,0.021198332590340055
6938.92584638658,0.020791838778782473
6938.926846158794,0.020379828994989194
6938.92784593101,0.01996237627995771
6938.928845703225,0.01953955522789754
6938.929845475441,0.019111441966591713
6938.930845247656,0.018678114137239462
6938.931845019872,0.01823965087379201
6938.932844792086,0.01779613278179324
6938.933844564302,0.017347641916737103
6938.934844336517,0.016894261761953466
6938.935844108732,0.016436077206033847
6938.936843880948,0.015973174519808328
6938.937843653162,0.015505641332884719
6938.938843425378,0.015033566609760823
6938.939843197593,0.014557040625520578
6938.940842969809,0.014076154941124767
6938.941842742024,0.01359100237830695
6938.94284251424,0.013101676994085308
6938.943842286454,0.012608274054901307
6938.94484205867,0.012110890010396301
6938.945841830885,0.011609622466837647
6938.9468416031,0.011104570160206259
6938.947841375315,0.010595832928958018
6938.94884114753,0.010083511686471808
6938.949840919746,0.00956770839319724
6938.950840691961,0.009048526028515315
6938.951840464177,0.008526068562325448
6938.952840236392,0.00800044092637226
6938.953840008608,0.007471748985325566
6938.954839780822,0.006940099507626912
6938.955839553038,0.0064056001361158426
6938.956839325253,0.005868359358448993
6938.957839097468,0.005328486477324852
6938.958838869683,0.0047860915805269175
6938.959838641898,0.004241285510797819
6938.960838414114,0.0036941798355568487
6938.961838186329,0.003144886816473311
6938.962837958545,0.0025935193789081126
6938.96383773076,0.00204019108123612
6938.964837502975,0.0014850160840619903
6938.96583727519,0.0009281091193423988
6938.9668370474055,0.0003695854594277138
6938.967836819621,-0.0001904391139637748
6938.968836591836,-0.000751848340826041
6938.969836364051,-0.0013145255139870922
6938.970836136266,-0.0018783535102597953
6938.971835908482,-0.0024432148216096145
6938.972835680697,-0.0030089915863275554
6938.973835452913,-0.0035755656201970423
6938.974835225128,-0.004142818447643917
6938.975834997343,-0.004710631332859153
6938.976834769558,-0.005278885310884327
6938.9778345417735,-0.005847461218650296
6938.978834313989,-0.006416239725960021
6938.979834086204,-0.006985101366406899
6938.980833858419,-0.00755392656822048
6938.981833630634,-0.00812259568503184
6938.98283340285,-0.00869098902655127
6938.983833175065,-0.00925898688915122
6938.984832947281,-0.009826469586347555
6938.985832719496,-0.010393317479172264
6938.986832491711,-0.010959411006430738
6938.987832263926,-0.011524630714836729
6938.9888320361415,-0.012088857289018049
6938.989831808357,-0.012651971581386166
6938.990831580572,-0.01321385464186293
6938.991831352787,-0.01377438774745783
6938.992831125002,-0.014333452431689413
6938.993830897218,-0.014890930513844623
6938.994830669433,-0.015446704128070147
6938.995830441649,-0.016000655752289997
6938.996830213864,-0.016552668236943822
6938.997829986079,-0.017102624833540667
6938.998829758294,-0.01765040922302309
6938.9998295305095,-0.018195905543936745
6939.000829302725,-0.018738998420400815
6939.00182907494,-0.019279572989874705
6939.002828847155,-0.019817514930716585
6939.00382861937,-0.020352710489529288
6939.004828391586,-0.020885046508288953
6939.005828163801,-0.021414410451251573
6939.006827936017,-0.021940690431632163
6939.007827708232,-0.02246377523805096
6939.008827480447,-0.022983554360740618
6939.009827252662,-0.023499918017508108
6939.0108270248775,-0.0240127571794447
6939.011826797093,-0.024521963596377292
6939.012826569307,-0.025027429822054165
6939.013826341523,-0.02552904923905819
6939.014826113738,-0.0260267160834405
6939.015825885954,-0.026520325469067636
6939.016825658169,-0.02700977341167544
6939.017825430385,-0.02749495685262298
6939.0188252026,-0.027975773682340364
6939.019824974815,-0.0284521227634643
6939.02082474703,-0.02892390395365574
6939.0218245192455,-0.029391018128094137
6939.022824291461,-0.02985336720164289
6939.023824063675,-0.030310854150680668
6939.024823835891,-0.030763383034593347
6939.025823608106,-0.031210859016920927
6939.026823380322,-0.03165318838615379
6939.027823152537,-0.0320902785761725
6939.028822924753,-0.03252203818632516
6939.029822696967,-0.03294837700113652
6939.030822469183,-0.03336920600964296
6939.031822241398,-0.03378443742434772
6939.032822013613,-0.03419398469979098
6939.033821785829,-0.034597762550729556
6939.034821558043,-0.03499568696992124
6939.035821330259,-0.03538767524550893
6939.036821102474,-0.03577364597799997
6939.03782087469,-0.03615351909683595
6939.038820646905,-0.0365272158765487
6939.039820419121,-0.036894658952498105
6939.040820191335,-0.03725577233618744
6939.041819963551,-0.037610481430152234
6939.042819735766,-0.037958713042418345
6939.043819507981,-0.03830039540052516
6939.044819280197,-0.03863545816510974
6939.045819052411,-0.03896383244304735
6939.046818824627,-0.0392854508001441
6939.047818596842,-0.03960024727337716
6939.048818369058,-0.03990815738267804
6939.049818141273,-0.04020911814225491
6939.050817913489,-0.0405030680714497
6939.051817685703,-0.040789947205126506
6939.052817457919,-0.041069697103588085
6939.053817230134,-0.04134226086201752
6939.054817002349,-0.04160758311944286
6939.055816774565,-0.04186561006722285
6939.056816546779,-0.04211628945705221
6939.057816318995,-0.04235957060848572
6939.05881609121,-0.04259540441598025
6939.059815863426,-0.042823743355454635
6939.060815635641,-0.043044541490367384
6939.061815407857,-0.04325775447731258
6939.062815180071,-0.04346333957113486
6939.063814952287,-0.04366125562956442
6939.064814724502,-0.04385146311737327
6939.065814496717,-0.04403392411005415
6939.066814268933,-0.04420860229702385
6939.067814041147,-0.044375462984352944
6939.068813813363,-0.04453447309702427
6939.069813585578,-0.044685601180722866
6939.070813357794,-0.044828817403160734
6939.071813130009,-0.04496409355494005
6939.0728129022245,-0.04509140304995943
6939.073812674439,-0.045210720925368174
6939.074812446655,-0.04532202384107405
6939.07581221887,-0.04542529007881069
6939.076811991085,-0.0455204995407711
6939.0778117633,-0.045607633747813875
6939.078811535515,-0.04568667583724907
6939.079811307731,-0.04575761056021052
6939.080811079946,-0.04582042427862155
6939.081810852162,-0.04587510496176108
6939.082810624377,-0.04592164218243686
6939.0838103965925,-0.04596002711277271
6939.084810168807,-0.04599025251961666
6939.085809941023,-0.04601231275957687
6939.086809713238,-0.04602620377369217
6939.087809485453,-0.046031923081744176
6939.088809257668,-0.04602946977621866
6939.089809029883,-0.04601884451592367
6939.090808802099,-0.04600004951927273
6939.091808574314,-0.04597308855724202
6939.09280834653,-0.04593796694601032
6939.093808118745,-0.04589469153929162
6939.09480789096,-0.04584327072036994
6939.095807663175,-0.04578371439384674
6939.096807435391,-0.04571603397711082
6939.097807207606,-0.04564024239154106
6939.098806979821,-0.045556354053452104
6939.099806752036,-0.045464384864792706
6939.100806524251,-0.045364352203606614
6939.101806296467,-0.04525627491426499
6939.102806068682,-0.04514017329747919
6939.103805840898,-0.045016069100102175
6939.104805613113,-0.04488398550472603
6939.105805385328,-0.04474394711908268
6939.106805157543,-0.04459597996525395
6939.107804929759,-0.044440111468696974
6939.108804701974,-0.04427637044709033
6939.109804474189,-0.044104787099006004
6939.110804246404,-0.04392539299241191
6939.111804018619,-0.04373822105300999
6939.112803790835,-0.04354330555241437
6939.11380356305,-0.04334068209617395
6939.114803335266,-0.043130387611644186
6939.115803107481,-0.04291246033571246
6939.116802879696,-0.042686939802381293
6939.117802651911,-0.04245386683021383
6939.118802424126,-0.042213283509645566
6939.119802196342,-0.041965233190166484
6939.120801968557,-0.04170976046737724
6939.121801740772,-0.0414469111699231
6939.122801512987,-0.041176732346308934
6939.123801285203,-0.04089927225159837
6939.124801057418,-0.04061458033399998
6939.125800829634,-0.04032270722134301
6939.126800601849,-0.040023704707444936
6939.127800374064,-0.03971762573837283
6939.128800146279,-0.039404524398600455
6939.129799918494,-0.03908445589706248
6939.13079969071,-0.038757476553107136
6939.131799462925,-0.03842364378234855
6939.13279923514,-0.038083016082419555
6939.133799007355,-0.037735653018625984
6939.134798779571,-0.03738161520950313
6939.135798551786,-0.037020964312275154
6939.136798324002,-0.036653763008217946
6939.137798096217,-0.03628007498792604
6939.138797868432,-0.03589996493648402
6939.139797640647,-0.035513498518542845
6939.140797412862,-0.03512074236330117
6939.141797185078,-0.03472176404939175
6939.142796957292,-0.0343166320896727
6939.143796729508,-0.033905415915923144
6939.144796501723,-0.03348818586344247
6939.145796273939,-0.03306501315555211
6939.146796046154,-0.03263596988799857
6939.14779581837,-0.03220112901325599
6939.148795590585,-0.03176056432472667
6939.1497953628,-0.03131435044083745
6939.150795135015,-0.030862562789029983
6939.15179490723,-0.03040527758964269
6939.152794679446,-0.02994257183968201
6939.15379445166,-0.029474523296480395
6939.154794223876,-0.02900121046123821
6939.155793996091,-0.0285227125624465
6939.156793768307,-0.028039109539187368
6939.157793540522,-0.0275504820243084
6939.1587933127375,-0.02705691132746728
6939.159793084952,-0.026558479418042538
6939.160792857168,-0.026055268907905976
6939.161792629383,-0.025547363034052105
6939.162792401598,-0.02503484564107972
6939.163792173814,-0.02451780116352043
6939.164791946028,-0.023996314608008676
6939.165791718244,-0.023470471535287793
6939.166791490459,-0.022940358042046194
6939.167791262675,-0.02240606074257806
6939.16879103489,-0.02186766675026274
6939.1697908071055,-0.021325263658857598
6939.17079057932,-0.02077893952359938
6939.171790351536,-0.020228782842110098
6939.172790123751,-0.01967488253510434
6939.173789895966,-0.0191173279268963
6939.174789668182,-0.018556208725706298
6939.175789440396,-0.017991615003768252
6939.176789212612,-0.0174236371772414
6939.177788984827,-0.016852365985931744
6939.178788757043,-0.016277892472830752
6939.179788529258,-0.01570030796348131
6939.1807883014735,-0.015119704045183336
6939.181788073688,-0.014536172546054268
6939.182787845904,-0.013949805513962148
6939.183787618119,-0.013360695195352112
6939.184787390334,-0.012768934013989727
6939.18578716255,-0.012174614549647555
6939.186786934764,-0.011577829516764148
6939.18778670698,-0.010978671743107456
6939.188786479195,-0.010377234148477426
6939.189786251411,-0.009773609723485316
6939.190786023626,-0.009167891508449919
6939.1917857958415,-0.008560172572453327
6939.192785568056,-0.007950545992601244
6939.193785340272,-0.007339104833534835
6939.194785112487,-0.006725942127243042
6939.195784884702,-0.006111150853225668
6939.196784656918,-0.005494823919058715
6939.197784429132,-0.004877054141414201
6939.198784201348,-0.0042579342275870175
6939.199783973563,-0.0036375567575812878
6939.200783745779,-0.0030160141668082144
6939.201783517994,-0.002393398729446463
6939.2027832902095,-0.0017698025425148046
6939.203783062424,-0.0011453175107050584
6939.204782834639,-0.0005200353320213621
6939.205782606855,0.00010595251573046908
6939.20678237907,0.0007325547875621797
6939.207782151286,0.001359680482992182
6939.2087819235,0.0019872388567685143
6939.209781695716,0.002615139428592497
6939.210781467931,0.0032432919918130277
6939.211781240147,0.003871606621064818
6939.212781012362,0.004499993678827549
6939.2137807845775,0.005128363820886846
6939.214780556792,0.005756628000682145
6939.215780329007,0.00638469747253079
6939.216780101223,0.007012483793722034
6939.217779873438,0.007639898825478961
6939.218779645653,0.008266854732790575
6939.219779417868,0.00889326398312051
6939.220779190084,0.009519039344002772
6939.221778962299,0.010144093879538886
6939.222778734515,0.010768340945814593
6939.22377850673,0.011391694185258018
6939.2247782789445,0.012014067519964896
6939.22577805116,0.012635375144019998
6939.226777823375,0.0132555315148473
6939.227777595591,0.013874451343624458
6939.228777367806,0.014492049584800066
6939.229777140021,0.015108241424754613
6939.230776912236,0.01572294226964835
6939.231776684452,0.01633606773250104
6939.232776456667,0.016947533619550374
6939.233776228883,0.01755725591593708
6939.234776001098,0.01816515077076606
6939.2357757733125,0.018771134481593503
6939.236775545528,0.01937512347839083
6939.237775317743,0.019977034307036595
6939.238775089959,0.02057678361238783
6939.239774862174,0.02117428812098252
6939.240774634389,0.021769464623424814
6939.241774406604,0.022362229956504588
6939.24277417882,0.02295250098510267
6939.243773951035,0.02354019458393276
6939.244773723251,0.024125227619170773
6939.245773495466,0.024707516930021704
6939.2467732676805,0.025286979310273676
6939.247773039896,0.025863531489888108
6939.248772812111,0.02643709011667421
6939.249772584327,0.027007571738095256
6939.250772356542,0.027574892783253216
6939.251772128757,0.02813896954509731
6939.252771900972,0.028699718162901216
6939.253771673188,0.029257054605052582
6939.254771445403,0.029810894652197516
6939.2557712176185,0.03036115388078178
6939.256770989834,0.03090774764702936
6939.2577707620485,0.031450591071398186
6939.258770534264,0.03198959902355168
6939.259770306479,0.03252468610788378
6939.260770078695,0.033055766649634104
6939.26176985091,0.03358275468162888
6939.262769623125,0.03410556393168213
6939.26376939534,0.034624107810690474
6939.264769167556,0.0351382994014538
6939.265768939771,0.03564805144825317
6939.2667687119865,0.036153276347215824
6939.267768484202,0.036653886137496386
6939.2687682564165,0.0371497924933021
6939.269768028632,0.037640906716788616
6939.270767800847,0.03812713973185175
6939.271767573063,0.03860840207883934
6939.272767345278,0.03908460391020608
6939.273767117493,0.039555654987132954
6939.274766889708,0.0400214646771318
6939.275766661924,0.04048194195265448
6939.276766434139,0.040936995390725005
6939.2777662063545,0.04138653317361211
6939.27876597857,0.041830463090558725
6939.2797657507845,0.042268692540584234
6939.280765523,0.0427011285363743
6939.281765295215,0.04312767770927257
6939.282765067431,0.04354824631538783
6939.283764839645,0.04396274024282964
6939.284764611861,0.044371065020084845
6939.285764384076,0.04477312582554697
6939.286764156292,0.04516882749820977
6939.287763928507,0.04555807454953578
6939.2887637007225,0.0459407711765099
6939.289763472937,0.04631682127588716
6939.290763245152,0.04668612845964316
6939.291763017368,0.047048596071634384
6939.292762789583,0.04740412720547456
6939.293762561799,0.047752624723632085
6939.294762334013,0.04809399127775215
6939.295762106229,0.048428129330205724
6939.296761878444,0.0487549411768665
6939.29776165066,0.04907432897111516
6939.298761422875,0.04938619474906905
6939.2997611950905,0.04969044045603394
6939.300760967305,0.049986967974173374
6939.30176073952,0.05027567915138965
6939.302760511736,0.05055647583140927
6939.303760283951,0.0508292598850645
6939.304760056167,0.051093933242761534
6939.305759828381,0.05135039792812451
6939.306759600597,0.05159855609280357
6939.307759372812,0.05183831005243395
6939.308759145028,0.05206956232373209
6939.309758917243,0.05229221566271367
6939.310758689458,0.05250617310401729
6939.311758461673,0.05271133800131655
6939.312758233888,0.05290761406880217
6939.313758006104,0.05309490542371471
6939.314757778319,0.05327311662990751
6939.315757550535,0.05344215274241837
6939.316757322749,0.053601919353027605
6939.317757094965,0.05375232263677931
6939.31875686718,0.05389326939944143
6939.319756639396,0.054024667125879604
6939.320756411611,0.054146424029318505
6939.321756183826,0.05425844910146383
6939.322755956041,0.05436065216345672
6939.323755728256,0.05445294391763175
6939.324755500472,0.05453523600004865
6939.325755272687,0.05460744103376706
6939.326755044903,0.05466947268283288
6939.327754817117,0.054721245706944185
6939.328754589333,0.05476267601676407
6939.329754361548,0.05479368072984722
6939.330754133764,0.05481417822714622
6939.331753905979,0.05482408821006303
6939.332753678194,0.05482333175801002
6939.333753450409,0.05481183138644389
6939.334753222624,0.054789511105334664
6939.33575299484,0.05475629647803059
6939.336752767055,0.05471211468047863
6939.337752539271,0.054656894560758694
6939.338752311485,0.054590566698888766
6939.339752083701,0.05451306346685656
6939.340751855916,0.05442431908883252
6939.341751628132,0.05432426970151775
6939.342751400347,0.05421285341457952
6939.343751172562,0.05409001037112644
6939.344750944777,0.05395568280817436
6939.345750716992,0.053809815117053704
6939.346750489208,0.053652353903708656
6939.347750261423,0.053483248048837764
6939.348750033638,0.05330244876782583
6939.349749805853,0.05310990967041611
6939.350749578069,0.05290558682007214
6939.351749350284,0.05268943879297845
6939.3527491225,0.05246142673662919
6939.353748894715,0.052221514427954085
6939.3547486669295,0.05196966833093142
6939.355748439145,0.051705857653637805
6939.35674821136,0.05143005440468505
6939.357747983576,0.051142233448994795
6939.358747755791,0.05084237256286198
6939.359747528006,0.0505304524882587
6939.360747300221,0.050206456986330146
6939.361747072437,0.049870372890035326
6939.362746844652,0.04952219015588523
6939.363746616868,0.04916190191473198
6939.364746389083,0.048789504521562894
6939.3657461612975,0.04840499760425431
6939.366745933513,0.048008384111240615
6939.367745705728,0.047599670358054784
6939.368745477944,0.047178866072697244
6939.369745250159,0.0467459844397908
6939.370745022374,0.046301042143480034
6939.371744794589,0.04584405940903469
6939.372744566805,0.04537506004311683
6939.37374433902,0.04489407147267267
6939.374744111236,0.04440112478241088
6939.375743883451,0.043896254750829554
6939.376743655665,0.04337949988475538
6939.377743427881,0.042850902452358675
6939.378743200096,0.04231050851460934
6939.379742972312,0.04175836795513941
6939.380742744527,0.04119453450847888
6939.381742516742,0.040619065786632595
6939.382742288957,0.04003202330396717
6939.383742061173,0.03943347250037827
6939.384741833388,0.03882348276270974
6939.385741605604,0.03820212744439754
6939.386741377819,0.037569483883312924
6939.387741150033,0.03692563341778049
6939.388740922249,0.036270661400748375
6939.389740694464,0.03560465721208889
6939.39074046668,0.0349277142690094
6939.391740238895,0.03423993003455434
6939.39274001111,0.03354140602418091
6939.393739783325,0.03283224781039173
6939.394739555541,0.0321125650254095
6939.395739327756,0.031382471361879785
6939.396739099972,0.030642084571589238
6939.397738872187,0.029891526462187765
6939.398738644401,0.029130922891904377
6939.399738416617,0.02836040376224731
6939.400738188832,0.02758010300868012
6939.401737961048,0.026790158589266363
6939.402737733263,0.025990712471276288
6939.403737505478,0.025181910615749963
6939.404737277693,0.024363902960012108
6939.405737049909,0.02353684339813499
6939.406736822124,0.022700889759346754
6939.407736594339,0.021856203784383722
6939.408736366555,0.02100295109978625
6939.409736138769,0.020141301190139224
6939.410735910985,0.01927142736825942
6939.4117356832,0.018393506743333444
6939.412735455416,0.01750772018701143
6939.41373522763,0.016614252297463186
6939.414734999846,0.015713291361404744
6939.415734772061,0.014805029314104734
6939.416734544277,0.013889661697381074
6939.417734316492,0.012967387615599884
6939.418734088707,0.012038409689689744
6939.419733860922,0.01110293400918578
6939.420733633137,0.01016117008231947
6939.421733405353,0.009213330784171588
6939.422733177568,0.008259632302907303
6939.423732949784,0.00730029408411389
6939.424732721998,0.006335538773263145
6939.425732494214,0.005365592156322007
6939.426732266429,0.00439068309853631
6939.4277320386445,0.00341104348141392
6939.42873181086,0.0024269081379348113
6939.429731583075,0.0014385147860168416
6939.43073135529,0.00044610396026721963
6939.431731127505,-0.0005500810579491892
6939.432730899721,-0.001549794312092455
6939.433730671936,-0.002552787243647726
6939.434730444152,-0.003558808766908536
6939.435730216366,-0.004567605345307881
6939.436729988582,-0.005578921069260731
6939.437729760797,-0.006592497735480743
6939.4387295330125,-0.007608074927733127
6939.439729305228,-0.008625390098984954
6939.440729077443,-0.009644178654913566
6939.441728849658,-0.010664174038733293
6939.442728621873,-0.01168510781730042
6939.443728394089,-0.012706709768456106
6939.444728166304,-0.013728707969566909
6939.44572793852,-0.01475082888722261
6939.446727710734,-0.015772797468051138
6939.44772748295,-0.01679433723061065
6939.448727255165,-0.017815170358319046
6939.4497270273805,-0.018835017793381554
6939.450726799596,-0.019853599331677393
6939.451726571811,-0.020870633718566744
6939.452726344026,-0.021885838745579568
6939.453726116241,-0.022898931347948237
6939.454725888457,-0.02390962770294598
6939.455725660672,-0.0249176433289935
6939.456725432888,-0.025922693185496268
6939.457725205102,-0.02692449177337508
6939.458724977318,-0.027922753236252575
6939.459724749533,-0.028917191462258306
6939.4607245217485,-0.029907520186414883
6939.461724293964,-0.030893453093567433
6939.462724066179,-0.0318747039218183
6939.463723838394,-0.03285098656642831
6939.464723610609,-0.03382201518414559
6939.465723382825,-0.0347875042979221
6939.46672315504,-0.03574716890197751
6939.467722927256,-0.03670072456716949
6939.46872269947,-0.03764788754662856
6939.469722471686,-0.03858837488161541
6939.470722243901,-0.039521904507557784
6939.4717220161165,-0.04044819536022376
6939.472721788332,-0.041366967481987406
6939.473721560547,-0.042277942128142655
6939.474721332762,-0.04318084187322042
6939.475721104977,-0.04407539071726348
6939.476720877193,-0.044961314192013095
6939.477720649408,-0.045838339466960566
6939.478720421623,-0.04670619545521647
6939.479720193838,-0.04756461291914961
6939.480719966054,-0.04841332457574709
6939.481719738269,-0.04925206520164609
6939.4827195104845,-0.05008057173778739
6939.4837192827,-0.05089858339363973
6939.484719054914,-0.0517058417509434
6939.48571882713,-0.05250209086692054
6939.486718599345,-0.05328707737689885
6939.487718371561,-0.05406055059629504
6939.488718143776,-0.054822262621903484
6939.489717915991,-0.05557196843243561
6939.490717688206,-0.05630942598825522
6939.491717460422,-0.057034396330255296
6939.492717232637,-0.057746643677821397
6939.493717004852,-0.05844593552582758
6939.494716777068,-0.05913204274061055
6939.495716549282,-0.05980473965486807
6939.496716321498,-0.0604638041614281
6939.497716093713,-0.06110901780583492
6939.498715865929,-0.06174016587769897
6939.499715638144,-0.06235703750075732
6939.500715410359,-0.06295942572159194
6939.501715182574,-0.06354712759695326
6939.50271495479,-0.0641199442796371
6939.503714727005,-0.06467768110286333
6939.50471449922,-0.06522014766310519
6939.505714271436,-0.06574715790131878
6939.50671404365,-0.06625853018252262
6939.507713815866,-0.06675408737367805
6939.508713588081,-0.06723365691982207
6939.509713360297,-0.06769707091840492
6939.510713132512,-0.06814416619178615
6939.511712904727,-0.06857478435784377
6939.512712676942,-0.0689887718986524
6939.5137124491575,-0.0693859802271877
6939.514712221373,-0.06976626575201543
6939.515711993588,-0.07012948993992557
6939.516711765804,-0.07047551937647271
6939.517711538018,-0.07080422582438614
6939.518711310234,-0.07111548627981427
6939.519711082449,-0.07140918302637027
6939.520710854665,-0.07168520368694695
6939.52171062688,-0.07194344127327149
6939.522710399095,-0.07218379423317171
6939.52371017131,-0.07240616649552817
6939.5247099435255,-0.07261046751288755
6939.525709715741,-0.07279661230171551
6939.526709487956,-0.07296452148026854
6939.527709260172,-0.07311412130406676
6939.528709032386,-0.07324534369895153
6939.529708804602,-0.07335812629171382
6939.530708576817,-0.07345241243828185
6939.531708349033,-0.07352815124945843
6939.532708121248,-0.07358529761420145
6939.533707893463,-0.07362381222044354
6939.534707665678,-0.07364366157344918
6939.5357074378935,-0.07364481801171072
6939.536707210109,-0.07362725972038733
6939.537706982324,-0.07359097074229351
6939.53870675454,-0.07353594098644636
6939.539706526754,-0.07346216623418332
6939.54070629897,-0.07336964814286409
6939.541706071185,-0.073258394247173
6939.542705843401,-0.07312841795803998
6939.543705615615,-0.07297973855920005
6939.544705387831,-0.07281238120141327
6939.545705160046,-0.07262637689436892
6939.5467049322615,-0.07242176249629871
6939.547704704477,-0.07219858070132552
6939.548704476692,-0.07195688002457498
6939.549704248907,-0.07169671478507843
6939.550704021122,-0.07141814508649635
6939.551703793338,-0.071121236795692
6939.552703565553,-0.07080606151918502
6939.553703337769,-0.07047269657751543
6939.554703109983,-0.07012122497754814
6939.555702882199,-0.06975173538274829
6939.556702654414,-0.06936432208145707
6939.5577024266295,-0.06895908495319797
6939.558702198845,-0.0685361294330426
6939.55970197106,-0.06809556647406478
6939.560701743275,-0.06763751250791145
6939.56170151549,-0.06716208940351787
6939.562701287706,-0.06666942442399439
6939.563701059921,-0.0661596501817108
6939.564700832137,-0.06563290459160405
6939.565700604351,-0.06508933082273363
6939.566700376567,-0.06452907724810848
6939.567700148782,-0.06395229739280801
6939.5686999209975,-0.06335914988041913
6939.569699693213,-0.06274979837781013
6939.570699465428,-0.06212441153826157
6939.571699237643,-0.061483162942973575
6939.572699009858,-0.060826231040968536
6939.573698782074,-0.060153799087408005
6939.574698554289,-0.05946605508034232
6939.575698326505,-0.058763191695911716
6939.576698098719,-0.05804540622201789
6939.577697870935,-0.0573129004904849
6939.57869764315,-0.0565658808077287
6939.579697415365,-0.055804557883954574
6939.580697187581,-0.055029146760902176
6939.581696959796,-0.05423986673815772
6939.582696732011,-0.05343694129805325
6939.583696504226,-0.05262059802917287
6939.584696276442,-0.051791068548486016
6939.585696048657,-0.0509485884221283
6939.586695820873,-0.0500933970848505
6939.587695593087,-0.049225737758156606
6939.588695365303,-0.04834585736715255
6939.589695137518,-0.04745400645612745
6939.590694909733,-0.04655043910288999
6939.591694681949,-0.04563541283188316
6939.592694454164,-0.04470918852610118
6939.593694226379,-0.04377203033783317
6939.594693998594,-0.04282420559825895
6939.59569377081,-0.04186598472592317
6939.596693543025,-0.0408976411341145
6939.597693315241,-0.03991945113717773
6939.598693087455,-0.038931693855787215
6939.599692859671,-0.03793465112121124
6939.600692631886,-0.036928607378597704
6939.601692404101,-0.03591384958931263
6939.602692176317,-0.03489066713236422
6939.603691948532,-0.033859351704946035
6939.604691720747,-0.0328201972221343
6939.605691492962,-0.03177349971577501
6939.606691265178,-0.030719557232597887
6939.607691037393,-0.029658669731594877
6939.608690809608,-0.02859113898070208
6939.609690581823,-0.027517268452824744
6939.610690354039,-0.026437363221246013
6939.611690126254,-0.025351729854461033
6939.612689898469,-0.024260676310478783
6939.613689670685,-0.02316451183063496
6939.614689442899,-0.022063546832959864
6939.615689215115,-0.020958092805146003
6939.61668898733,-0.019848462197160636
6939.617688759546,-0.018734968313549167
6939.618688531761,-0.01761792520547571
6939.619688303976,-0.01649764756254773
6939.620688076191,-0.015374450604472253
6939.621687848407,-0.014248649972591529
6939.622687620622,-0.013120561621346817
6939.623687392837,-0.011990501709719317
6939.624687165053,-0.01085878649269806
6939.625686937267,-0.009725732212825048
6939.626686709483,-0.008591654991868466
6939.627686481698,-0.007456870722675378
6939.628686253914,-0.006321694961255735
6939.629686026129,-0.005186442819149911
6939.630685798344,-0.004051428856132312
6939.631685570559,-0.0029169669733038086
6939.632685342775,-0.0017833703066258476
6939.63368511499,-0.0006509511209490072
6939.634684887205,0.00047997929541135316
6939.635684659421,0.0016091107354999498
6939.636684431635,0.0027361341778948754
6939.637684203851,0.0038607418901776894
6939.638683976066,0.004982627531649132
6939.639683748282,0.0061014862552398515
6939.640683520497,0.007217014808566168
6939.641683292712,0.008328911634081568
6939.642683064927,0.009436876968275412
6939.643682837143,0.010540612939871146
6939.644682609358,0.011639823666977194
6939.645682381573,0.012734215353144661
6939.646682153789,0.013823496382286953
6939.647681926003,0.014907377412417521
6939.648681698219,0.015985571468163123
6939.649681470434,0.01705779403201123
6939.65068124265,0.018123763134251694
6939.651681014865,0.019183199441574282
6939.65268078708,0.02023582634428549
6939.653680559295,0.02128137004210962
6939.654680331511,0.02231955962854116
6939.655680103726,0.023350127173717296
6939.656679875941,0.024372807805781205
6939.657679648157,0.025387339790708754
6939.658679420371,0.02639346461057292
6939.659679192587,0.027390927040222047
6939.660678964802,0.02837947522234969
6939.661678737018,0.029358860740935556
6939.662678509233,0.0303288386930386
6939.663678281448,0.03128916775892499
6939.664678053663,0.03223961027051544
6939.665677825878,0.03317993227813776
6939.666677598094,0.03410990361557222
6939.667677370309,0.03502929796337852
6939.668677142525,0.03593789291049458
6939.669676914739,0.036835470014098926
6939.670676686955,0.03772181485772911
6939.67167645917,0.0385967171076505
6939.672676231386,0.03945997056747064
6939.6736760036,0.04031137323099577
6939.674675775816,0.04115072733332766
6939.675675548031,0.04197783940019972
6939.676675320246,0.04279252029555308
6939.677675092462,0.043594585267354484
6939.678674864677,0.04438385399165876
6939.679674636892,0.045160150614920146
6939.680674409107,0.04592330379455724
6939.681674181323,0.04667314673777769
6939.682673953538,0.04740951723866904
6939.683673725754,0.04813225771356289
6939.684673497968,0.048841215234680074
6939.685673270184,0.0495362415620646
6939.686673042399,0.05021719317381442
6939.687672814614,0.05088393129461689
6939.68867258683,0.05153632192259664
6939.689672359045,0.05217423585448343
6939.69067213126,0.05279754870910694
6939.691671903475,0.0534061409492255
6939.692671675691,0.053999897901694925
6939.693671447906,0.05457870977598351
6939.694671220122,0.05514247168103861
6939.695670992336,0.05569108364050964
6939.696670764552,0.05622445060633185
6939.697670536767,0.05674248247067454
6939.698670308982,0.05724509407625675
6939.699670081198,0.057732205225032876
6939.700669853413,0.058203740685250104
6939.701669625628,0.05865963019687926
6939.702669397843,0.05909980847542024
6939.703669170059,0.059524215214083166
6939.704668942274,0.05993279508434642
6939.70566871449,0.06032549773489277
6939.706668486704,0.06070227778892516
6939.70766825892,0.061063094839864246
6939.708668031135,0.06140791344543015
6939.70966780335,0.06173670312011179
6939.710667575566,0.062049438326027696
6939.711667347781,0.062346098462183204
6939.712667119996,0.06262666785212975
6939.713666892211,0.06289113573003305
6939.714666664427,0.06313949622515788
6939.715666436642,0.06337174834477821
6939.7166662088575,0.0635878959555224
6939.717665981072,0.06378794776316407
6939.718665753288,0.0639719172908696
6939.719665525503,0.06413982285591424
6939.720665297718,0.06429168754487921
6939.721665069934,0.06442753918734237
6939.722664842149,0.06454741032807584
6939.723664614364,0.0646513381977641
6939.724664386579,0.06473936468225619
6939.725664158795,0.06481153629036643
6939.72666393101,0.06486790412023784
6939.7276637032255,0.0649085238242831
6939.72866347544,0.06493345557271789
6939.729663247656,0.06494276401570176
6939.730663019871,0.06493651824410204
6939.731662792086,0.06491479174889658
6939.732662564302,0.06487766237923175
6939.733662336517,0.06482521229915277
6939.734662108732,0.06475752794302392
6939.735661880947,0.06467469996965715
6939.736661653163,0.06457682321516865
6939.737661425378,0.06446399664458384
6939.738661197593,0.06433632330221237
6939.739660969808,0.06419391026081578
6939.740660742024,0.06403686856959158
6939.741660514239,0.06386531320099853
6939.742660286454,0.0636793629964489
6939.74366005867,0.06347914061089456
6939.744659830884,0.06326477245633466
6939.7456596031,0.06303638864427327
6939.746659375315,0.06279412292715629
6939.747659147531,0.06253811263881744
6939.748658919746,0.062268498633964026
6939.749658691961,0.06198542522673351
6939.750658464176,0.0616890401283524
6939.751658236391,0.0613794943839296
6939.752658008607,0.06105694230841656
6939.753657780822,0.06072154142176697
6939.754657553038,0.060373452383328904
6939.755657325252,0.06001283892550242
6939.756657097468,0.059639867786695576
6939.757656869683,0.05925470864361185
6939.758656641899,0.05885753404290166
6939.759656414114,0.05844851933221084
6939.760656186329,0.05802784259065817
6939.761655958544,0.05759568455877417
6939.762655730759,0.057152228567932624
6939.763655502975,0.056697660469305876
6939.76465527519,0.05623216856237453
6939.765655047406,0.055755943523021316
6939.76665481962,0.05526917833123823
6939.767654591836,0.05477206819847532
6939.768654364051,0.054264810494658526
6939.769654136267,0.05374760467490346
6939.770653908482,0.053220652205951104
6939.7716536806965,0.052684156492350996
6939.772653452912,0.05213832280241665
6939.773653225127,0.05158335819397783
6939.774652997343,0.05101947143995365
6939.775652769558,0.05044687295377011
6939.776652541774,0.04986577471464571
6939.777652313988,0.04927639019276817
6939.778652086204,0.048678934274385466
6939.779651858419,0.048073623186833864
6939.780651630635,0.04746067442352593
6939.78165140285,0.04684030666892088
6939.7826511750645,0.046212739723499846
6939.78365094728,0.04557819442876866
6939.784650719495,0.044936892592310616
6939.785650491711,0.04428905691291147
6939.786650263926,0.04363491090577918
6939.787650036142,0.04297467882788045
6939.788649808356,0.04230858560341615
6939.789649580572,0.04163685674945767
6939.790649352787,0.04095971830176578
6939.791649125003,0.04027739674081375
6939.792648897218,0.03959011891803586
6939.7936486694325,0.038898111982322375
6939.794648441648,0.03820160330678162
6939.795648213863,0.0375008204157896
6939.796647986079,0.03679599091234705
6939.797647758294,0.03608734240576363
6939.79864753051,0.035375102439688694
6939.799647302724,0.03465949842050773
6939.80064707494,0.033940757546123385
6939.801646847155,0.033219106735139864
6939.8026466193705,0.032494772556469584
6939.803646391585,0.03176798115938083
6939.8046461638005,0.031038958204005335
6939.805645936016,0.030307928792324818
6939.806645708231,0.029575117399655525
6939.807645480447,0.02884074780664984
6939.808645252662,0.02810504303183398
6939.809645024877,0.027368225264700653
6939.810644797092,0.026630515799375386
6939.811644569308,0.025892134968875113
6939.812644341523,0.0251533020799775
6939.8136441137385,0.024414235348719355
6939.814643885953,0.023675151836542438
6939.8156436581685,0.02293626738710492
6939.816643430384,0.022197796563776757
6939.817643202599,0.02145995258783716
6939.818642974815,0.020722947277392385
6939.81964274703,0.019986990987032025
6939.820642519245,0.01925229254824188
6939.82164229146,0.018519059210591403
6939.822642063676,0.017787496583713633
6939.823641835891,0.01705780858009547
6939.8246416081065,0.016330197358696046
6939.825641380321,0.015604863269410922
6939.8266411525365,0.014882004798399571
6939.827640924752,0.014161818514293519
6939.828640696967,0.013444499015302142
6939.829640469183,0.012730238877232795
6939.830640241398,0.012019228602441527
6939.831640013613,0.011311656569730278
6939.832639785828,0.010607708985206092
6939.833639558044,0.009907569834117476
6939.834639330259,0.009211420833682647
6939.8356391024745,0.008519441386924087
6939.836638874689,0.007831808537523344
6939.837638646904,0.007148696925709612
6939.83863841912,0.0064702787451951255
6939.839638191335,0.0057967237011699
6939.840637963551,0.0051281989693678235
6939.841637735766,0.004464869156215547
6939.842637507981,0.003806896260075139
6939.843637280196,0.0031544396335908844
6939.844637052412,0.002507655947150156
6939.845636824627,0.0018666991534677638
6939.8466365968425,0.0012317204533026514
6939.847636369057,0.0006028682623152881
6939.848636141272,-1.971182092646488e-05
6939.849635913488,-0.0006358770457857833
6939.850635685703,-0.0012454875392329233
6939.851635457919,-0.0018484063343526915
6939.852635230134,-0.002444499397677613
6939.853635002349,-0.00303363565534146
6939.854634774564,-0.003615687018048159
6939.85563454678,-0.004190528404851403
6939.856634318995,-0.004758037765740574
6939.8576340912105,-0.0053180961030288645
6939.858633863425,-0.0058705874915397855
6939.85963363564,-0.00641539909758853
6939.860633407856,-0.0069524211967550015
6939.861633180071,-0.007481547190445667
6939.862632952287,-0.008002673621241758
6939.863632724502,-0.008515700187031777
6939.864632496717,-0.009020529753926742
6939.865632268932,-0.009517068367957154
6939.866632041148,-0.010005225265551254
6939.867631813363,-0.010484912882794857
6939.8686315855775,-0.010956046863473826
6939.869631357793,-0.011418546065901036
6939.870631130008,-0.011872332568530543
6939.871630902224,-0.012317331674362513
6939.872630674439,-0.01275347191414323
6939.873630446655,-0.013180685048365313
6939.874630218869,-0.01359890606807395
6939.875629991085,-0.014008073194485703
6939.8766297633,-0.014408127877427165
6939.877629535516,-0.014799014792601381
6939.878629307731,-0.015180681837690703
6939.8796290799455,-0.015553080127305411
6939.880628852161,-0.015916163986788176
6939.881628624376,-0.01626989094488515
6939.882628396592,-0.016614221725295232
6939.883628168807,-0.016949120237109806
6939.884627941023,-0.01727455356415593
6939.885627713237,-0.017590491953256612
6939.886627485453,-0.017896908801422615
6939.887627257668,-0.01819378064199085
6939.888627029884,-0.018481087129725203
6939.889626802099,-0.018758811024896346
6939.8906265743135,-0.019026938176357797
6939.891626346529,-0.019285457503636305
6939.892626118744,-0.019534360978055144
6939.89362589096,-0.019773643602909445
6939.894625663175,-0.020003303392713192
6939.895625435391,-0.020223341351537735
6939.896625207605,-0.02043376145046196
6939.897624979821,-0.020634570604154485
6939.898624752036,-0.020825778646608385
6939.899624524252,-0.021007398306049144
6939.900624296467,-0.02117944517903665
6939.9016240686815,-0.02134193770378227
6939.902623840897,-0.021494897132702147
6939.903623613112,-0.0216383475042282
6939.904623385328,-0.021772315613898408
6939.905623157543,-0.021896830984748383
6939.906622929759,-0.02201192583702641
6939.907622701973,-0.022117635057254576
6939.908622474189,-0.02221399616665893
6939.909622246404,-0.02230104928899206
6939.91062201862,-0.022378837117771694
6939.911621790835,-0.022447404882959363
6939.9126215630495,-0.02250680031710343
6939.913621335265,-0.022557073620970952
6939.91462110748,-0.022598277428692987
6939.915620879696,-0.02263046677244831
6939.916620651911,-0.022653699046710326
6939.917620424127,-0.022668033972082082
6939.918620196341,-0.02267353355874399
6939.919619968557,-0.022670262069538812
6939.920619740772,-0.02265828598271821
6939.921619512988,-0.022637673954374875
6939.922619285203,-0.022608496780583978
6939.923619057417,-0.022570827359277495
6939.924618829633,-0.02252474065187477
6939.925618601848,-0.02247031364469247
6939.926618374064,-0.022407625310156835
6939.927618146279,-0.022336756567841246
6939.928617918495,-0.02225779024535182
6939.929617690709,-0.02217081103908374
6939.930617462925,-0.022075905474870847
6939.93161723514,-0.021973161868550858
6939.932617007356,-0.021862670286468117
6939.93361677957,-0.021744522505935702
6939.934616551785,-0.021618811975677964
6939.935616324001,-0.02148563377627425
6939.936616096216,-0.021345084580623973
6939.937615868432,-0.02119726261445274
6939.938615640647,-0.02104226761687861
6939.939615412863,-0.020880200801057083
6939.940615185077,-0.020711164814922862
6939.941614957293,-0.02053526370204601
6939.942614729508,-0.020352602862619598
6939.943614501724,-0.020163289014595576
6939.944614273938,-0.01996743015498512
6939.945614046153,-0.019765135521339294
6939.946613818369,-0.01955651555342544
6939.947613590584,-0.019341681855114232
6939.9486133628,-0.01912074715649184
6939.949613135015,-0.01889382527621119
6939.95061290723,-0.01866103108409581
6939.951612679445,-0.018422480464009374
6939.952612451661,-0.018178290277003288
6939.953612223876,-0.017928578324754404
6939.954611996091,-0.017673463313303984
6939.955611768306,-0.017413064817108515
6939.956611540521,-0.017147503243412212
6939.957611312737,-0.016876899796950208
6939.958611084952,-0.01660137644499077
6939.959610857168,-0.016321055882724145
6939.960610629383,-0.016036061499004883
6939.961610401598,-0.015746517342453994
6939.962610173813,-0.015452548087926423
6939.963609946029,-0.01515427900334893
6939.964609718244,-0.01485183591693264
6939.965609490459,-0.014545345184764044
6939.966609262674,-0.014234933658777612
6939.967609034889,-0.013920728655112654
6939.968608807105,-0.013602857922856548
6939.96960857932,-0.013281449613176047
6939.970608351536,-0.012956632248837821
6939.971608123751,-0.012628534694118943
6939.972607895966,-0.012297286125107512
6939.973607668181,-0.011963016000392967
6939.9746074403965,-0.01162585403214502
6939.975607212612,-0.01128593015757952
6939.976606984827,-0.010943374510808832
6939.977606757042,-0.010598317395073754
6939.978606529257,-0.010250889255353375
6939.979606301473,-0.009901220651348701
6939.980606073688,-0.009549442230835486
6939.981605845904,-0.009195684703381116
6939.982605618119,-0.008840078814420069
6939.983605390334,-0.008482755319682008
6939.984605162549,-0.00812384495996626
6939.9856049347645,-0.007763478436256111
6939.98660470698,-0.007401786385166109
6939.987604479195,-0.007038899354715436
6939.98860425141,-0.006674947780420232
6939.989604023625,-0.0063100619616977575
6939.990603795841,-0.005944372038575203
6939.991603568056,-0.005578007968695906
6939.992603340272,-0.005211099504615646
6939.993603112487,-0.004843776171381576
6939.994602884702,-0.004476167244386192
6939.995602656917,-0.004108401727488565
6939.9966024291325,-0.0037406083313947717
6939.997602201348,-0.00337291545228922
6939.9986019735625,-0.0030054511507082555
6939.999601745778,-0.0026383431306470826
6940.000601517993,-0.002271718718890722
6940.001601290209,-0.0019057048445593667
6940.002601062424,-0.0015404280188581494
6940.00360083464,-0.0011760143150209696
6940.004600606855,-0.0008125893484376862
6940.00560037907,-0.00045027825695363315
6940.006600151285,-8.920568133013287e-05
6940.0075999235005,0.00027050425414557006
6940.008599695716,0.0006287279609127269
6940.0095994679305,0.00098534240526376
6940.010599240146,0.0013402251273571754
6940.011599012361,0.0016932542601287182
6940.012598784577,0.0020443085481127716
6940.013598556792,0.0023932673661859892
6940.014598329008,0.0027400107382451327
6940.015598101222,0.0030844193558310865
6940.016597873438,0.003426374596711019
6940.017597645653,0.0037657585434306712
6940.0185974178685,0.0041024540018487566
6940.019597190084,0.004436344519665451
6940.020596962298,0.004767314404956946
6940.021596734514,0.005095248744727998
6940.022596506729,0.0054200334234943874
6940.023596278945,0.005741555141907116
6940.02459605116,0.00605970143543007
6940.025595823376,0.0063743606930827205
6940.02659559559,0.006685422176259209
6940.027595367806,0.006992776037634873
6940.028595140021,0.007296313340170901
6940.0295949122365,0.007595926076227462
6940.030594684452,0.007891507186795196
6940.031594456666,0.008182950580854545
6940.032594228882,0.008470151154871989
6940.033594001097,0.008753004812441864
6940.034593773313,0.009031408484082007
6940.035593545528,0.009305260147191146
6940.036593317744,0.009574458846175554
6940.037593089958,0.009838904712752066
6940.038592862174,0.010098498986434137
6940.039592634389,0.010353144035207198
6940.040592406604,0.010602743376399144
6940.04159217882,0.010847201697751293
6940.042591951034,0.011086424878694717
6940.04359172325,0.01132032001183629
6940.044591495465,0.011548795424658304
6940.045591267681,0.011771760701434729
6940.046591039896,0.011989126705366667
6940.047590812112,0.012200805600938718
6940.048590584326,0.0124067108764973
6940.049590356542,0.012606757367051184
6940.050590128757,0.012800861277293777
6940.051589900972,0.012988940204846006
6940.052589673188,0.013170913163717997
6940.053589445402,0.013346700607987092
6940.054589217618,0.013516224455689214
6940.055588989833,0.013679408112920134
6940.056588762049,0.013836176498142724
6940.057588534264,0.013986456066695952
6940.05858830648,0.014130174835500971
6940.059588078694,0.014267262407959272
6940.0605878509095,0.0143976499990374
6940.061587623125,0.014521270460532299
6940.06258739534,0.014638058306510649
6940.063587167555,0.014747949738914905
6940.06458693977,0.0148508826733279
6940.065586711986,0.014946796764886862
6940.066586484201,0.015035633434336552
6940.067586256417,0.015117335894209799
6940.068586028632,0.015191849175121999
6940.069585800848,0.015259120152164289
6940.070585573062,0.01531909757137783
6940.0715853452775,0.015371732076289318
6940.072585117493,0.015416976234485178
6940.073584889708,0.015454784564199355
6940.074584661923,0.015485113560886707
6940.075584434138,0.015507921723751393
6940.076584206354,0.015523169582196817
6940.077583978569,0.015530819722160982
6940.078583750785,0.015530836812298478
6940.079583523,0.015523187629967627
6940.080583295215,0.015507841086978818
6940.08158306743,0.015484768255057563
6940.0825828396455,0.015453942390973398
6940.083582611861,0.015415338961283505
6940.084582384076,0.015368935666637995
6940.085582156291,0.015314712465591913
6940.086581928506,0.015252651597867496
6940.087581700722,0.015182737607008943
6940.088581472937,0.01510495736237108
6940.089581245153,0.015019300080382735
6940.090581017368,0.014925757345025591
6940.091580789583,0.014824323127469684
6940.092580561798,0.014714993804807583
6940.0935803340135,0.014597768177830634
6940.094580106229,0.014472647487792421
6940.095579878444,0.01433963543210666
6940.096579650659,0.014198738178929162
6940.097579422874,0.014049964380575933
6940.09857919509,0.013893325185732277
6940.099578967305,0.01372883425041072
6940.100578739521,0.013556507747618827
6940.101578511736,0.01337636437570157
6940.102578283951,0.0131884253653268
6940.103578056166,0.012992714485086359
6940.1045778283815,0.012789258045689582
6940.105577600597,0.012578084902729984
6940.106577372812,0.01235922645801005
6940.107577145027,0.012132716659412816
6940.108576917242,0.011898591999312699
6940.109576689458,0.011656891511521501
6940.110576461673,0.011407656766769081
6940.111576233889,0.011150931866721479
6940.112576006104,0.010886763436542768
6940.113575778319,0.010615200616010343
6940.114575550534,0.010336295049196875
6940.1155753227495,0.010050100872735612
6940.116575094965,0.009756674702689153
6940.11757486718,0.009456075620044871
6940.118574639395,0.009148365154863112
6940.11957441161,0.00883360726910674
6940.120574183826,0.00851186833818281
6940.121573956041,0.008183217131228935
6940.122573728257,0.007847724790178404
6940.123573500472,0.007505464807639273
6940.124573272687,0.007156513003623617
6940.125573044902,0.006800947501163764
6940.126572817117,0.006438848700852856
6940.127572589333,0.006070299254347274
6940.128572361547,0.0056953840368685294
6940.129572133763,0.0053141901187421054
6940.130571905978,0.00492680673601037
6940.131571678194,0.004533325260156225
6940.132571450409,0.00413383916697347
6940.133571222625,0.003728444004619148
6940.13457099484,0.0033172373608822726
6940.135570767055,0.00290031882970248
6940.13657053927,0.002477789976971212
6940.137570311485,0.0020497543056471165
6940.138570083701,0.0016163172202164416
6940.139569855915,0.0011775859905283376
6940.140569628131,0.0007336697150341845
6940.141569400346,0.0002846792834592788
6940.142569172562,-0.00016927266106550584
6940.143568944777,-0.0006280717603851758
6940.144568716993,-0.0010916019801889489
6940.145568489207,-0.0015597456493398672
6940.146568261423,-0.002032383499640741
6940.147568033638,-0.0025093947060121184
6940.148567805853,-0.002990656927058638
6940.149567578069,-0.0034760463460008157
6940.150567350283,-0.0039654377119500124
6940.151567122499,-0.00445870438150504
6940.152566894714,-0.004955718360649525
6940.15356666693,-0.005456350346929816
6940.154566439145,-0.005960469771893843
6940.155566211361,-0.006467944843771891
6940.156565983575,-0.006978642590380795
6940.157565755791,-0.007492428902233571
6940.158565528006,-0.008009168575836962
6940.159565300221,-0.008528725357159855
6940.160565072437,-0.009050961985256014
6940.161564844651,-0.009575740236025
6940.162564616867,-0.010102920966095549
6940.163564389082,-0.010632364156816078
6940.164564161298,-0.011163928958337252
6940.165563933513,-0.011697473733771913
6940.166563705729,-0.012232856103417912
6940.167563477943,-0.012769932989029743
6940.168563250159,-0.013308560658125192
6940.169563022374,-0.013848594768313544
6940.170562794589,-0.014389890411632248
6940.171562566805,-0.014932302158879257
6940.172562339019,-0.015475684103928529
6940.173562111235,-0.01601988990801639
6940.17456188345,-0.01656477284398666
6940.175561655666,-0.017110185840482604
6940.176561427881,-0.017655981526073915
6940.1775612000965,-0.01820201227330712
6940.178560972311,-0.01874813024266798
6940.179560744527,-0.01929418742644471
6940.180560516742,-0.01984003569248108
6940.181560288957,-0.020385526827808777
6940.182560061173,-0.020930512582148727
6940.183559833387,-0.021474844711271365
6940.184559605603,-0.022018375020206357
6940.185559377818,-0.022560955406292514
6940.186559150034,-0.023102437902059184
6940.187558922249,-0.02364267471793081
6940.1885586944645,-0.024181518284746812
6940.189558466679,-0.024718821296089464
6940.190558238895,-0.02525443675041279
6940.19155801111,-0.025788217992965795
6940.192557783325,-0.026320018757503675
6940.19355755554,-0.02684969320778078
6940.194557327755,-0.027377095978819144
6940.195557099971,-0.02790208221794643
6940.196556872186,-0.028424507625597124
6940.197556644402,-0.02894422849587085
6940.198556416617,-0.029461101756841464
6940.1995561888325,-0.029974985010610758
6940.200555961047,-0.030485736573100327
6940.201555733263,-0.03099321551357508
6940.202555505478,-0.03149728169389173
6940.203555277693,-0.031997795807465264
6940.204555049908,-0.03249461941794611
6940.205554822123,-0.03298761499760056
6940.206554594339,-0.033476645965386576
6940.207554366554,-0.03396157672471691
6940.20855413877,-0.0344422727009014
6940.209553910985,-0.03491860037825983
6940.2105536832,-0.035390427336896776
6940.211553455415,-0.035857622289129844
6940.21255322763,-0.03632005511556219
6940.213552999846,-0.03677759690079046
6940.214552772061,-0.03723011996873907
6940.215552544276,-0.03767749791761167
6940.216552316491,-0.03811960565445067
6940.217552088707,-0.03855631942929545
6940.218551860922,-0.038987516868930074
6940.219551633138,-0.03941307701021093
6940.220551405353,-0.03983288033296484
6940.221551177568,-0.04024680879244787
6940.222550949783,-0.04065474585135502
6940.223550721998,-0.041056576511370825
6940.224550494214,-0.041452187344251025
6940.225550266429,-0.041841466522425284
6940.226550038644,-0.042224303849111224
6940.227549810859,-0.04260059078793015
6940.228549583075,-0.04297022049201498
6940.22954935529,-0.04333308783260126
6940.230549127506,-0.0436890894270921
6940.231548899721,-0.0440381236665881
6940.232548671936,-0.044380090742873704
6940.233548444151,-0.044714892674850897
6940.234548216366,-0.04504243333441172
6940.235547988582,-0.04536261847174075
6940.236547760797,-0.04567535574003864
6940.237547533012,-0.045980554719657875
6940.238547305227,-0.04627812694164185
6940.239547077443,-0.04656798591065831
6940.240546849658,-0.046850047127318245
6940.241546621874,-0.04712422810987133
6940.242546394089,-0.04739044841526917
6940.243546166304,-0.04764862965958757
6940.244545938519,-0.047898695537799435
6940.245545710734,-0.04814057184288988
6940.24654548295,-0.04837418648430573
6940.247545255165,-0.048599469505731574
6940.24854502738,-0.048816353102185406
6940.249544799595,-0.049024771636426885
6940.250544571811,-0.04922466165467187
6940.251544344026,-0.04941596190160717
6940.252544116242,-0.049598613334699976
6940.253543888457,-0.04977255913779638
6940.254543660672,-0.04993774473400398
6940.255543432887,-0.050094117797853575
6940.256543205102,-0.05024162826673526
6940.257542977318,-0.050380228351604474
6940.258542749532,-0.050509872546953744
6940.259542521748,-0.0506305176400464
6940.260542293963,-0.050742122719408714
6940.261542066179,-0.05084464918257751
6940.262541838394,-0.05093806074310059
6940.2635416106095,-0.05102232343678818
6940.264541382825,-0.05109740562721374
6940.26554115504,-0.051163278010463074
6940.266540927255,-0.05121991361913131
6940.26754069947,-0.05126728782556742
6940.268540471686,-0.051305378344367006
6940.2695402439,-0.05133416523411411
6940.270540016116,-0.051353630898373706
6940.271539788331,-0.05136376008593691
6940.272539560547,-0.05136453989032139
6940.273539332762,-0.05135595974852984
6940.2745391049775,-0.051338011439070116
6940.275538877192,-0.05131068907924014
6940.276538649408,-0.05127398912168183
6940.277538421623,-0.051227910350207816
6940.278538193838,-0.05117245387490493
6940.279537966054,-0.051107623126518856
6940.280537738268,-0.05103342385012408
6940.281537510484,-0.050949864098083636
6940.282537282699,-0.0508569542223033
6940.283537054915,-0.050754706865784975
6940.28453682713,-0.05064313695348471
6940.2855365993455,-0.05052226168248073
6940.28653637156,-0.050392100511457635
6940.287536143776,-0.050252675149513495
6940.288535915991,-0.05010400954429663
6940.289535688206,-0.049946129869479675
6940.290535460422,-0.04977906451157874
6940.291535232636,-0.0496028440561259
6940.292535004852,-0.04941750127320356
6940.293534777067,-0.04922307110234968
6940.294534549283,-0.04901959063684312
6940.295534321498,-0.04880709910737881
6940.2965340937135,-0.04858563786514273
6940.297533865928,-0.04835525036429711
6940.298533638143,-0.04811598214388648
6940.299533410359,-0.04786788080917569
6940.300533182574,-0.047610996012431045
6940.30153295479,-0.0473453794331561
6940.302532727004,-0.04707108475779369
6940.30353249922,-0.046788167658905845
6940.304532271435,-0.046496685773843936
6940.305532043651,-0.046196698682920985
6940.306531815866,-0.045888267887098745
6940.3075315880815,-0.04557145678520234
6940.308531360296,-0.04524633065067558
6940.309531132511,-0.04491295660789058
6940.310530904727,-0.0445714036080255
6940.311530676942,-0.044221742404524596
6940.312530449158,-0.04386404552815506
6940.313530221372,-0.04349838726167504
6940.314529993588,-0.043124843614127745
6940.315529765803,-0.04274349229477593
6940.316529538019,-0.04235441268669181
6940.317529310234,-0.04195768582001683
6940.3185290824495,-0.0415533943449058
6940.319528854664,-0.04114162250416983
6940.320528626879,-0.040722456105632146
6940.321528399095,-0.04029598249421079
6940.32252817131,-0.03986229052374173
6940.323527943525,-0.039421470528556
6940.32452771574,-0.038973614294823905
6940.325527487956,-0.03851881503167925
6940.326527260171,-0.03805716734213613
6940.327527032387,-0.037588767193811004
6940.328526804602,-0.0371137118894623
6940.329526576817,-0.036632100037359935
6940.330526349032,-0.036144031521496756
6940.331526121247,-0.03564960747165388
6940.332525893463,-0.035148930233331724
6940.333525665678,-0.03464210333755801
6940.334525437893,-0.03412923147058407
6940.335525210108,-0.03361042044348021
6940.336524982324,-0.033085777161640795
6940.337524754539,-0.0325554095942091
6940.338524526755,-0.03201942674343204
6940.33952429897,-0.03147793861395423
6940.3405240711845,-0.0309310561820606
6940.3415238434,-0.03037889136487651
6940.342523615615,-0.029821556989533936
6940.343523387831,-0.02925916676231211
6940.344523160046,-0.028691835237760678
6940.345522932261,-0.028119677787813564
6940.346522704476,-0.027542810570901324
6940.347522476692,-0.02696135050106998
6940.348522248907,-0.02637541521711407
6940.3495220211225,-0.02578512305173158
6940.350521793338,-0.02519059300070831
6940.3515215655525,-0.02459194469213901
6940.352521337768,-0.023989298355692464
6940.353521109983,-0.023382774791927356
6940.354520882199,-0.022772495341665724
6940.355520654414,-0.02215858185543022
6940.356520426629,-0.021541156662951227
6940.357520198844,-0.02092034254274932
6940.35851997106,-0.020296262691798198
6940.359519743275,-0.019669040695272654
6940.3605195154905,-0.01903880049638552
6940.361519287706,-0.018405666366317006
6940.3625190599205,-0.017769762874239207
6940.363518832136,-0.017131214857438026
6940.364518604351,-0.016490147391534198
6940.365518376567,-0.015846685760804627
6940.366518148782,-0.015200955428604912
6940.367517920997,-0.014553082007893714
6940.368517693212,-0.01390319123185935
6940.369517465428,-0.013251408924649065
6940.370517237643,-0.01259786097220127
6940.3715170098585,-0.011942673293181032
6940.372516782074,-0.01128597181001911
6940.3735165542885,-0.010627882420054751
6940.374516326504,-0.009968530966782468
6940.375516098719,-0.009308043211202866
6940.376515870935,-0.008646544803277685
6940.37751564315,-0.007984161253489065
6940.378515415365,-0.007321017904503074
6940.37951518758,-0.006657239902937467
6940.380514959796,-0.005992952171233638
6940.381514732011,-0.0053282793796328035
6940.3825145042265,-0.004663345918256513
6940.383514276442,-0.003998275869291772
6940.3845140486565,-0.003333192979281413
6940.385513820872,-0.002668220631520697
6940.386513593087,-0.0020034818185616717
6940.387513365303,-0.0013390991148273653
6940.388513137517,-0.0006751946493385548
6940.389512909733,-1.1890078556522955e-05
6940.390512681948,0.0006506934406540532
6940.391512454164,0.0013124352779372117
6940.392512226379,0.001973215356227216
6940.3935119985945,0.002632914178393194
6940.39451177081,0.0032914128537399993
6940.395511543024,0.003948593124357826
6940.39651131524,0.004604337391312621
6940.397511087455,0.005258528740668887
6940.398510859671,0.0059110509693361376
6940.399510631885,0.006561788610729924
6940.400510404101,0.007210626960238066
6940.401510176316,0.007857452100482474
6940.402509948532,0.008502150926366716
6940.403509720747,0.009144611169899257
6940.4045094929625,0.009784721424782043
6940.405509265177,0.01042237117075388
6940.406509037392,0.01105745079767783
6940.407508809608,0.011689851629361639
6940.408508581823,0.012319465947099997
6940.409508354039,0.012946187012927317
6940.410508126253,0.013569909092569462
6940.411507898469,0.014190527478082924
6940.412507670684,0.014807938510169762
6940.4135074429,0.015422039600156652
6940.414507215115,0.016032729251626465
6940.41550698733,0.01663990708169091
6940.416506759545,0.017243473841892898
6940.41750653176,0.017843331438727492
6940.418506303976,0.018439382953770588
6940.419506076191,0.0190315326634047
6940.420505848407,0.01961968605813152
6940.421505620621,0.02020374986146132
6940.422505392837,0.020783632048369458
6940.423505165052,0.021359241863310802
6940.424504937268,0.021930489837783174
6940.425504709483,0.022497287807431314
6940.426504481698,0.023059548928683407
6940.427504253913,0.023617187694912407
6940.428504026128,0.02417011995211486
6940.429503798344,0.024718262914100106
6940.430503570559,0.02526153517718296
6940.431503342775,0.025799856734373215
6940.432503114989,0.026333148989055356
6940.433502887205,0.02686133476815212
6940.43450265942,0.02738433833476567
6940.435502431636,0.02790208540029048
6940.436502203851,0.028414503135992395
6940.437501976066,0.028921520184048914
6940.438501748281,0.029423066668046102
6940.439501520496,0.029919074202928216
6940.440501292712,0.03040947590439687
6940.441501064927,0.030894206397757227
6940.442500837143,0.03137320182620936
6940.443500609357,0.03184639985858361
6940.444500381573,0.032313739696519406
6940.445500153788,0.03277516208108755
6940.446499926004,0.0332306092988565
6940.447499698219,0.03368002518740347
6940.448499470434,0.03412335514027146
6940.449499242649,0.034560546111373554
6940.450499014864,0.034991546618845834
6940.45149878708,0.035416306748350695
6940.452498559295,0.035834778155832116
6940.45349833151,0.03624691406972494
6940.454498103725,0.03665266929262024
6940.455497875941,0.03705200020238917
6940.456497648156,0.03744486475276801
6940.457497420372,0.03783122247340738
6940.458497192587,0.03821103446938896
6940.459496964802,0.03858426342021328
6940.460496737017,0.03895087357826253
6940.461496509232,0.039310830766742536
6940.462496281448,0.03966410237710836
6940.463496053663,0.04001065736597845
6940.464495825878,0.04035046625154226
6940.465495598093,0.040683501109467
6940.466495370309,0.04100973556830927
6940.467495142524,0.041329144804437834
6940.46849491474,0.041641705536474186
6940.469494686955,0.04194739601925781
6940.4704944591695,0.04224619603734325
6940.471494231385,0.042538086898036634
6940.4724940036,0.042823051423979
6940.473493775816,0.04310107394528418
6940.474493548031,0.0433721402912389
6940.475493320246,0.04363623778157275
6940.476493092461,0.043893355217306106
6940.477492864677,0.044143482871183755
6940.478492636892,0.04438661247770261
6940.479492409108,0.04462273722274177
6940.480492181323,0.04485185173280359
6940.481491953537,0.04507395206387454
6940.482491725753,0.04528903568991478
6940.483491497968,0.045497101490985785
6940.484491270184,0.04569814974102506
6940.485491042399,0.045892182095277505
6940.486490814614,0.0460792015773925
6940.487490586829,0.046259212566196244
6940.488490359045,0.046432220782148315
6940.48949013126,0.04659823327349164
6940.490489903476,0.04675725840210515
6940.491489675691,0.046909305829068285
6940.492489447905,0.047054386499946754
6940.493489220121,0.04719251262980916
6940.494488992336,0.04732369768798442
6940.495488764552,0.04744795638257014
6940.496488536767,0.0475653046447026
6940.497488308982,0.047675759612599046
6940.498488081197,0.047779339615383505
6940.499487853413,0.04787606415670721
6940.500487625628,0.04796595389817508
6940.501487397843,0.04804903064258952
6940.502487170059,0.048125317317022805
6940.503486942273,0.048194837955729104
6940.504486714489,0.04825761768290726
6940.505486486704,0.048313682695324885
6940.50648625892,0.048363060244814376
6940.507486031135,0.04840577862065111
6940.50848580335,0.04844186713182353
6940.509485575565,0.04847135608920492
6940.510485347781,0.048494276787635765
6940.511485119996,0.048510661487925585
6940.512484892211,0.048520543398782666
6940.513484664427,0.04852395665867967
6940.514484436641,0.04852093631766315
6940.515484208857,0.0485115183191144
6940.516483981072,0.04849573948146925
6940.517483753288,0.04847363747990422
6940.518483525502,0.0484452508279963
6940.519483297718,0.048410618859363846
6940.520483069933,0.048369781709295796
6940.5214828421485,0.04832278029637659
6940.522482614364,0.04826965630411406
6940.523482386579,0.04821045216257751
6940.524482158795,0.048145211030052995
6940.525481931009,0.04807397677472288
6940.526481703225,0.04799679395637609
6940.52748147544,0.047913707808155376
6940.528481247656,0.04782476421834749
6940.52948101987,0.04773000971222166
6940.530480792086,0.04762949143392121
6940.531480564301,0.047523257128413106
6940.5324803365165,0.047411355123499574
6940.533480108732,0.047293834311895495
6940.534479880947,0.04717074413337549
6940.535479653162,0.047042134556993846
6940.536479425377,0.04690805606338067
6940.537479197593,0.04676855962711734
6940.538478969808,0.04662369669919435
6940.539478742024,0.046473519189554696
6940.540478514238,0.04631807944972569
6940.541478286454,0.04615743025554247
6940.542478058669,0.04599162478996627
6940.5434778308845,0.04582071662600077
6940.5444776031,0.04564475970970989
6940.545477375315,0.04546380834334045
6940.54647714753,0.04527791716855337
6940.547476919745,0.045087141149767036
6940.548476691961,0.044891535557616366
6940.549476464176,0.04469115595253112
6940.550476236392,0.044486058168436954
6940.551476008606,0.044276298296582486
6940.552475780822,0.04406193266949543
6940.553475553037,0.043843017845070276
6940.5544753252525,0.043619610590790205
6940.555475097468,0.04339176786808526
6940.556474869683,0.04315954681682876
6940.557474641898,0.04292300473997362
6940.558474414113,0.042682199088330215
6940.559474186329,0.0424371874454873
6940.560473958544,0.04218802751287756
6940.56147373076,0.041934777094989294
6940.562473502974,0.04167749408472573
6940.56347327519,0.04141623644891388
6940.564473047405,0.041151062213964515
6940.5654728196205,0.04088202945168502
6940.566472591836,0.04060919626524691
6940.567472364051,0.04033262077530946
6940.568472136266,0.04005236110630113
6940.569471908481,0.039768475372859914
6940.570471680697,0.03948102166643411
6940.571471452912,0.039190058042044354
6940.572471225128,0.03889564250520801
6940.573470997342,0.0385978329990266
6940.574470769558,0.038296687391437316
6940.575470541773,0.03799226346262924
6940.5764703139885,0.03768461889262515
6940.577470086204,0.0373738112490299
6940.578469858419,0.037059897974946535
6940.579469630634,0.03674293637706145
6940.580469402849,0.03642298361390009
6940.581469175065,0.03610009668425496
6940.58246894728,0.035774332415787945
6940.583468719495,0.035445747453809046
6940.58446849171,0.035114398250234186
6940.585468263926,0.03478034105272469
6940.586468036141,0.03444363189401151
6940.587467808356,0.03410432658140741
6940.588467580572,0.03376248068651059
6940.589467352787,0.033418149535103324
6940.590467125002,0.033071388197249384
6940.591466897217,0.03272225147759401
6940.592466669433,0.03237079390587034
6940.593466441648,0.03201706972761643
6940.594466213863,0.03166113289510687
6940.595465986078,0.03130303705850336
6940.596465758294,0.03094283555722844
6940.597465530509,0.030580581411566884
6940.598465302724,0.03021632731449906
6940.59946507494,0.02985012562377045
6940.600464847154,0.029482028354201557
6940.60146461937,0.02911208717024222
6940.602464391585,0.028740353378774442
6940.603464163801,0.028366877922167875
6940.604463936016,0.027991711371592277
6940.605463708231,0.027614903920591446
6940.606463480446,0.02723650537892348
6940.607463252662,0.0268565651666723
6940.608463024877,0.026475132308635733
6940.609462797092,0.026092255428995438
6940.610462569308,0.025707982746273967
6940.611462341522,0.025322362068584226
6940.612462113738,0.02493544078917634
6940.613461885953,0.02454726588228664
6940.614461658169,0.02415788389929339
6940.615461430384,0.023767340965183355
6940.616461202599,0.023375682775333206
6940.617460974814,0.02298295459260939
6940.6184607470295,0.022589201244789865
6940.619460519245,0.02219446712231106
6940.62046029146,0.021798796176343022
6940.621460063676,0.02140223191719585
6940.62245983589,0.02100481741306016
6940.623459608106,0.020606595289084345
6940.624459380321,0.02020760772679104
6940.625459152537,0.019807896463835198
6940.626458924752,0.019407502794105868
6940.627458696967,0.019006467568173535
6940.628458469182,0.018604831194084563
6940.6294582413975,0.018202633638503867
6940.630458013613,0.017799914428206543
6940.631457785828,0.017396712651918732
6940.632457558044,0.01699306696250745
6940.633457330258,0.01658901557951869
6940.634457102474,0.01618459629206246
6940.635456874689,0.015779846462042963
6940.636456646905,0.015374803027731379
6940.63745641912,0.014969502507678372
6940.638456191335,0.014563981004962662
6940.63945596355,0.014158274211771547
6940.6404557357655,0.013752417414308632
6940.641455507981,0.013346445498023546
6940.642455280196,0.0129403929531579
6940.643455052412,0.012534293880601285
6940.644454824626,0.012128181998050545
6940.645454596842,0.011722090646465188
6940.646454369057,0.011316052796811317
6940.647454141273,0.010910101057086043
6940.648453913487,0.010504267679613927
6940.649453685703,0.010098584568606598
6940.650453457918,0.009693083287976386
6940.6514532301335,0.00928779506939446
6940.652453002349,0.008882750820583681
6940.653452774564,0.008477981133836018
6940.65445254678,0.008073516294744142
6940.655452318994,0.007669386291136475
6940.65645209121,0.0072656208222047925
6940.657451863425,0.006862249307813237
6940.658451635641,0.006459300897977491
6940.659451407855,0.006056804482502723
6940.660451180071,0.00565478870076887
6940.661450952286,0.005253281951651742
6940.6624507245015,0.004852312403568433
6940.663450496717,0.004451908004635443
6940.664450268932,0.0040520964929279014
6940.665450041147,0.0036529054068282383
6940.666449813362,0.003254362095452625
6940.667449585578,0.0028564937291434512
6940.668449357793,0.002459327310016061
6940.669449130009,0.0020628896825478785
6940.670448902223,0.0016672075441979278
6940.671448674439,0.0012723074560446008
6940.672448446654,0.0008782158534293793
6940.673448218869,0.00048495905659404415
6940.674447991085,9.256328129875336e-05
6940.6754477633,-0.00029894535059176895
6940.676447535515,-0.0006895408005667833
6940.67744730773,-0.0010791971029856968
6940.678447079946,-0.0014678883546646426
6940.679446852161,-0.0018555887045461278
6940.680446624377,-0.0022422723434641807
6940.681446396591,-0.0026279134940171544
6940.682446168807,-0.0030124864005600617
6940.683445941022,-0.003395965319328046
6940.684445713237,-0.00377832450870233
6940.685445485453,-0.0041595382196297275
6940.686445257668,-0.004539580686206594
6940.687445029883,-0.004918426116437806
6940.688444802098,-0.005296048683181157
6940.689444574314,-0.005672422515287267
6940.690444346529,-0.0060475216889448345
6940.691444118745,-0.006421320219240755
6940.692443890959,-0.006793792051944269
6940.693443663175,-0.007164911055523982
6940.69444343539,-0.00753465101340622
6940.695443207605,-0.007902985616482859
6940.696442979821,-0.008269888455876383
6940.697442752036,-0.008635333015969677
6940.698442524251,-0.008999292667707697
6940.699442296466,-0.009361740662177917
6940.700442068682,-0.009722650124476078
6940.701441840897,-0.01008199404786354
6940.702441613113,-0.010439745288222092
6940.703441385327,-0.010795876558811706
6940.704441157543,-0.011150360425336233
6940.705440929758,-0.011503169301321536
6940.706440701973,-0.01185427544381003
6940.707440474189,-0.012203650949375
6940.708440246404,-0.012551267750457581
6940.709440018619,-0.012897097612028735
6940.710439790834,-0.01324111212857818
6940.71143956305,-0.0135832827214318
6940.712439335265,-0.013923580636398765
6940.71343910748,-0.01426197694174937
6940.714438879695,-0.014598442526524294
6940.715438651911,-0.014932948099175804
6940.716438424126,-0.015265464186541138
6940.717438196341,-0.015595961133148097
6940.718437968557,-0.015924409100852657
6940.719437740772,-0.016250778068808275
6940.720437512987,-0.016575037833766473
6940.721437285202,-0.016897158010708103
6940.722437057418,-0.01721710803380459
6940.723436829633,-0.017534857157708153
6940.724436601848,-0.017850374459169947
6940.725436374063,-0.0181636288389847
6940.726436146279,-0.01847458902426039
6940.727435918494,-0.018783223571011334
6940.728435690709,-0.019089500867073016
6940.729435462925,-0.01939338913533684
6940.730435235139,-0.01969485643730307
6940.731435007355,-0.019993870676950003
6940.73243477957,-0.020290399604917228
6940.733434551786,-0.020584410823000575
6940.734434324001,-0.020875871788955946
6940.735434096216,-0.02116474982160871
6940.736433868431,-0.021451012106264784
6940.737433640647,-0.021734625700418925
6940.738433412862,-0.022015557539755197
6940.739433185077,-0.022293774444433746
6940.740432957293,-0.022569243125657674
6940.741432729507,-0.0228419301925131
6940.742432501723,-0.023111802159074976
6940.743432273938,-0.023378825451770772
6940.744432046154,-0.023642966416993816
6940.745431818369,-0.02390419132895748
6940.746431590584,-0.024162466397781166
6940.747431362799,-0.02441775777779841
6940.748431135015,-0.02467003157607731
6940.74943090723,-0.024919253861143003
6940.750430679445,-0.025165390671891975
6940.751430451661,-0.025408408026687677
6940.752430223875,-0.025648271932627153
6940.753429996091,-0.025884948394968525
6940.754429768306,-0.026118403426709326
6940.755429540522,-0.0263486030583059
6940.756429312737,-0.026575513347524234
6940.757429084952,-0.026799100389412855
6940.758428857167,-0.02701933032638838
6940.759428629383,-0.027236169358424565
6940.760428401598,-0.027449583753335796
6940.761428173813,-0.027659539857146077
6940.762427946029,-0.027866004104534724
6940.763427718243,-0.028068943029349962
6940.764427490459,-0.02826832327518169
6940.765427262674,-0.028464111605984898
6940.76642703489,-0.028656274916745206
6940.767426807105,-0.028844780244178247
6940.76842657932,-0.029029594777454745
6940.769426351535,-0.029210685868943476
6940.77042612375,-0.029388021044964536
6940.771425895966,-0.029561568016545726
6940.772425668181,-0.029731294690175228
6940.773425440397,-0.029897169178544056
6940.774425212611,-0.03005915981127212
6940.775424984827,-0.030217235145611976
6940.776424757042,-0.030371363977124522
6940.777424529258,-0.030521515350321174
6940.778424301472,-0.0306676585692672
6940.779424073688,-0.030809763208141088
6940.780423845903,-0.030947799121744987
6940.781423618118,-0.03108173645596153
6940.782423390334,-0.03121154565815253
6940.783423162549,-0.03133719748749523
6940.784422934765,-0.03145866302525218
6940.785422706979,-0.031575913684971035
6940.786422479195,-0.03168892122261092
6940.78742225141,-0.031797657746592385
6940.788422023626,-0.03190209572776845
6940.78942179584,-0.03200220800931444
6940.790421568056,-0.03209796781653496
6940.791421340271,-0.0321893487665864
6940.792421112486,-0.03227632487811396
6940.793420884702,-0.03235887058080261
6940.794420656917,-0.03243696072484146
6940.795420429132,-0.03251057059030168
6940.796420201347,-0.032579675896428406
6940.797419973563,-0.03264425281084716
6940.798419745778,-0.03270427795868589
6940.799419517994,-0.03275972843161384
6940.800419290208,-0.032810581796798716
6940.801419062424,-0.03285681610578405
6940.802418834639,-0.03289840990328848
6940.803418606854,-0.03293534223592907
6940.80441837907,-0.03296759266087087
6940.805418151285,-0.03299514125440495
6940.8064179235,-0.03301796862045716
6940.807417695715,-0.03303605589903022
6940.808417467931,-0.033049384774581636
6940.809417240146,-0.03305793748434035
6940.8104170123615,-0.03306169682656526
6940.811416784576,-0.03306064616874878
6940.812416556792,-0.033054769455768934
6940.813416329007,-0.0330440512179938
6940.814416101222,-0.03302847657934196
6940.815415873438,-0.03300803126530286
6940.816415645653,-0.03298270161092091
6940.817415417868,-0.03295247456874683
6940.818415190083,-0.032917337716759885
6940.819414962299,-0.032877279266263854
6940.820414734514,-0.032832288069759616
6940.8214145067295,-0.03278235362879655
6940.822414278944,-0.03272746610180445
6940.82341405116,-0.032667616311907226
6940.824413823375,-0.03260279575471911
6940.82541359559,-0.03253299660612355
6940.826413367806,-0.03245821173003456
6940.827413140021,-0.03237843468614002
6940.828412912236,-0.032293659737626004
6940.829412684451,-0.03220388185888122
6940.830412456667,-0.03210909674318023
6940.831412228882,-0.032009300810344296
6940.8324120010975,-0.03190449121437831
6940.833411773312,-0.03179466585108211
6940.834411545528,-0.03167982336563444
6940.835411317743,-0.03155996316014743
6940.836411089958,-0.031435085401189285
6940.837410862174,-0.031305191027272763
6940.838410634389,-0.031170281756306775
6940.839410406604,-0.03103036009300817
6940.840410178819,-0.030885429336270715
6940.841409951035,-0.030735493586488312
6940.84240972325,-0.03058055775282927
6940.843409495465,-0.03042062756045847
6940.84440926768,-0.030255709557704135
6940.845409039896,-0.030085811123165863
6940.846408812111,-0.029910940472760404
6940.847408584326,-0.02973110666670155
6940.848408356542,-0.029546319616410507
6940.849408128757,-0.029356590091353135
6940.850407900972,-0.02916192972580036
6940.851407673187,-0.028962351025508478
6940.852407445403,-0.028757867374316192
6940.853407217618,-0.02854849304065558
6940.854406989833,-0.02833424318397443
6940.855406762048,-0.028115133861067832
6940.856406534263,-0.027891182032316903
6940.857406306479,-0.027662405567832934
6940.858406078694,-0.027428823253505354
6940.85940585091,-0.027190454796951986
6940.860405623124,-0.02694732083337039
6940.86140539534,-0.026699442931289074
6940.862405167555,-0.026446843598217522
6940.863404939771,-0.026189546286194035
6940.864404711986,-0.025927575397230302
6940.865404484201,-0.025660956288651556
6940.866404256416,-0.025389715278330924
6940.867404028631,-0.02511387964981651
6940.868403800847,-0.024833477657349494
6940.869403573062,-0.024548538530771505
6940.870403345278,-0.024259092480319305
6940.871403117492,-0.02396517070130496
6940.872402889708,-0.023666805378679483
6940.873402661923,-0.02336402969147807
6940.874402434139,-0.023056877817144827
6940.875402206354,-0.022745384935734896
6940.8764019785685,-0.022429587233991705
6940.877401750784,-0.022109521909296936
6940.878401522999,-0.02178522717349049
6940.879401295215,-0.021456742256557394
6940.88040106743,-0.021124107410178273
6940.881400839646,-0.020787363911139476
6940.88240061186,-0.0204465540645985
6940.883400384076,-0.02010172120719965
6940.884400156291,-0.019752909710034475
6940.885399928507,-0.019400164981441013
6940.886399700722,-0.019043533469635446
6940.8873994729365,-0.018683062665169545
6940.888399245152,-0.018318801103207168
6940.889399017367,-0.01795079836561295
6940.890398789583,-0.017579105082846498
6940.891398561798,-0.017203772935655382
6940.892398334014,-0.01682485465656032
6940.893398106228,-0.01644240403112598
6940.894397878444,-0.01605647589901084
6940.895397650659,-0.015667126154789417
6940.8963974228745,-0.015274411748540254
6940.89739719509,-0.014878390686192754
6940.8983969673045,-0.014479122029626068
6940.89939673952,-0.014076665896513
6940.900396511735,-0.013671083459901812
6940.901396283951,-0.013262436947528676
6940.902396056166,-0.012850789640853264
6940.903395828382,-0.012436205873809777
6940.904395600596,-0.012018751031265327
6940.905395372812,-0.011598491547177263
6940.906395145027,-0.011175494902440764
6940.9073949172425,-0.010749829622417564
6940.908394689458,-0.010321565274136501
6940.9093944616725,-0.009890772463156382
6940.910394233888,-0.009457522830081463
6940.911394006103,-0.009021889046719751
6940.912393778319,-0.008583944811874225
6940.913393550534,-0.008143764846756987
6940.91439332275,-0.007701424890016254
6940.915393094964,-0.007257001692365982
6940.91639286718,-0.006810573010807766
6940.917392639395,-0.006362217602434614
6940.9183924116105,-0.005912015217806053
6940.919392183825,-0.005460046593883925
6940.9203919560405,-0.00500639344651819
6940.921391728256,-0.004551138462471934
6940.922391500471,-0.004094365290974719
6940.923391272687,-0.00363615853479343
6940.924391044902,-0.003176603740809838
6940.925390817117,-0.00271578739009436
6940.926390589332,-0.0022537968874657777
6940.927390361548,-0.001790720550527145
6940.928390133763,-0.0013266475981686032
6940.9293899059785,-0.0008616681385284049
6940.930389678193,-0.0003958731564040397
6940.9313894504085,7.064549989404929e-05
6940.932389222624,0.0005377951322531337
6940.933388994839,0.001005482207039759
6940.934388767055,0.0014736123699583257
6940.93538853927,0.001942090461492531
6940.936388311485,0.002410820532935308
6940.9373880837,0.002879705863012742
6940.938387855916,0.0033486489751073482
6940.939387628131,0.0038175516550860017
6940.9403874003465,0.004286314969737772
6940.941387172561,0.004754839285826869
6940.942386944776,0.005223024289765859
6940.943386716992,0.005690769007914279
6940.944386489207,0.0061579718275077255
6940.945386261423,0.006624530518222346
6940.946386033638,0.007090342254379515
6940.947385805853,0.00755530363779526
6940.948385578068,0.008019310721278754
6940.949385350284,0.008482259032783995
6940.950385122499,0.008944043600218585
6940.9513848947145,0.00940455897691336
6940.952384666929,0.009863699267756473
6940.953384439144,0.010321358155995433
6940.95438421136,0.010777428930710374
6940.955383983575,0.011231804514961743
6940.956383755791,0.011684377494615338
6940.957383528006,0.012135040147847302
6940.958383300221,0.012583684475331309
6940.959383072436,0.013030202231109646
6940.960382844652,0.013474484954149324
6940.961382616867,0.013916424000583617
6940.962382389082,0.014355910576638726
6940.963382161297,0.014792835772244465
6940.964381933512,0.01522709059532715
6940.965381705728,0.01565856600678217
6940.966381477943,0.016087152956123
6940.967381250159,0.016512742417802668
6940.968381022374,0.016935225428202996
6940.969380794589,0.017354493123286137
6940.970380566804,0.017770436776902175
6940.97138033902,0.01818294783974578
6940.972380111235,0.01859191797895418
6940.97337988345,0.018997239118337936
6940.974379655665,0.01939880347923543
6940.97537942788,0.019796503621981272
6940.976379200096,0.020190232487978292
6940.977378972311,0.02057988344236218
6940.978378744527,0.020965350317247416
6940.979378516742,0.021346527455542493
6940.980378288957,0.021723309755321822
6940.981378061172,0.022095592714741274
6940.982377833388,0.022463272477483427
6940.983377605603,0.02282624587871825
6940.9843773778175,0.023184410491563993
6940.985377150033,0.023537664674032635
6940.986376922248,0.023885907616443183
6940.987376694464,0.024229039389285258
6940.988376466679,0.024566960991514262
6940.989376238895,0.024899574399257895
6940.990376011109,0.025226782614912135
6940.991375783325,0.025548489716603
6940.99237555554,0.025864600907988464
6940.993375327756,0.026175022568372657
6940.994375099971,0.0264796623031023
6940.9953748721855,0.02677842899421278
6940.996374644401,0.027071232851288828
6940.997374416616,0.02735798546250199
6940.998374188832,0.02763859984578428
6940.999373961047,0.027912990500094475
6941.000373733263,0.028181073456730578
6941.001373505477,0.028442766330638882
6941.002373277693,0.028697988371667024
6941.003373049908,0.02894666051570551
6941.004372822124,0.02918870543565907
6941.005372594339,0.029424047592186312
6941.0063723665535,0.029652613284143176
6941.007372138769,0.029874330698663173
6941.008371910984,0.03008912996080484
6941.0093716832,0.030296943182694543
6941.010371455415,0.030497704512091016
6941.011371227631,0.030691350180296277
6941.012370999845,0.03087781854933654
6941.013370772061,0.031057050158335753
6941.014370544276,0.031228987769004065
6941.015370316492,0.031393576410163396
6941.016370088707,0.03155076342123258
6941.0173698609215,0.03170049849459531
6941.018369633137,0.03184273371677522
6941.019369405352,0.03197742360834397
6941.020369177568,0.03210452516248996
6941.021368949783,0.03222399788217774
6941.022368721999,0.032335803815830684
6941.023368494213,0.03243990759147226
6941.024368266429,0.032536276449264295
6941.025368038644,0.0326248802723843
6941.02636781086,0.032705691616187124
6941.027367583075,0.03277868573560072
6941.028367355289,0.03284384061070973
6941.029367127505,0.03290113697048556
6941.03036689972,0.032950558314625955
6941.031366671936,0.032992090933472294
6941.032366444151,0.0330257239259774
6941.033366216367,0.03305144921570185
6941.034365988581,0.033069261564821616
6941.035365760797,0.033079158586134895
6941.036365533012,0.03308114075306095
6941.037365305228,0.0330752114076286
6941.038365077443,0.03306137676645694
6941.039364849657,0.033039645924735524
6941.040364621873,0.03301003085821594
6941.041364394088,0.03297254642323138
6941.042364166304,0.032927210354764654
6941.043363938519,0.03287404326258913
6941.044363710735,0.032813068625510325
6941.045363482949,0.032744312783738884
6941.046363255165,0.032667804929428265
6941.04736302738,0.0325835770954127
6941.048362799595,0.03249166414218286
6941.04936257181,0.03239210374313849
6941.050362344025,0.0322849363681584
6941.051362116241,0.03217020526552937
6941.052361888456,0.032047956442276086
6941.053361660672,0.031918238642934756
6941.054361432887,0.03178110332681308
6941.055361205102,0.03163660464377936
6941.056360977317,0.031484799408623435
6941.057360749533,0.031325747074031775
6941.058360521748,0.03115950970221902
6941.059360293963,0.030986151935257694
6941.060360066178,0.03080574096414765
6941.061359838393,0.030618346496666244
6941.062359610609,0.030424040724039883
6941.063359382824,0.03022289828647707
6941.06435915504,0.03001499623760269
6941.065358927255,0.029800414007832655
6941.06635869947,0.029579233366727485
6941.067358471685,0.029351538384362722
6941.068358243901,0.029117415391753384
6941.069358016116,0.028876952940368857
6941.070357788331,0.028630241760773903
6941.071357560546,0.028377374720430584
6941.072357332761,0.02811844678069491
6941.073357104977,0.027853554953041443
6941.074356877192,0.027582798254548024
6941.075356649408,0.02730627766267219
6941.076356421623,0.027024096069350037
6941.077356193838,0.026736358234447696
6941.078355966053,0.0264431707385949
6941.0793557382685,0.02614464193542981
6941.080355510484,0.025840881903283548
6941.081355282699,0.025532002396332486
6941.082355054914,0.0252181167952459
6941.083354827129,0.024899340057356254
6941.084354599345,0.024575788666379092
6941.08535437156,0.02424758058170915
6941.086354143776,0.023914835187319097
6941.087353915991,0.023577673240287023
6941.088353688206,0.023236216818978243
6941.089353460421,0.022890589270906824
6941.0903532326365,0.022540915160301687
6941.091353004852,0.022187320215401915
6941.092352777067,0.02182993127550555
6941.093352549282,0.021468876237795968
6941.094352321497,0.021104284003969926
6941.095352093713,0.020736284426691207
6941.096351865928,0.020365008255893817
6941.097351638144,0.019990587084958617
6941.098351410359,0.01961315329678721
6941.099351182574,0.019232840009796883
6941.100350954789,0.018849781023860406
6941.1013507270045,0.018464110766214674
6941.10235049922,0.01807596423736231
6941.103350271435,0.01768547695699069
6941.10435004365,0.01729278490993314
6941.105349815865,0.016898024492197412
6941.106349588081,0.01650133245708663
6941.107349360296,0.01610284586143798
6941.108349132512,0.01570270201200406
6941.109348904727,0.01530103841200129
6941.110348676942,0.014897992707849224
6941.111348449157,0.014493702636123628
6941.1123482213725,0.014088305970745469
6941.113347993588,0.01368194047042706
6941.114347765802,0.013274743826395732
6941.115347538018,0.012866853610414675
6941.116347310233,0.012458407223119843
6941.117347082449,0.012049541842691087
6941.118346854664,0.011640394373875004
6941.11934662688,0.01123110139737636
6941.120346399094,0.010821799119634183
6941.12134617131,0.010412623322998056
6941.122345943525,0.01000370931631953
6941.1233457157405,0.009595191885972994
6941.124345487956,0.009187205247319924
6941.12534526017,0.008779882996629976
6941.126345032386,0.008373358063472041
6941.127344804601,0.007967762663588009
6941.128344576817,0.007563228252261648
6941.129344349032,0.007159885478194556
6941.130344121248,0.006757864137900758
6941.131343893462,0.0063572931306310415
6941.132343665678,0.005958300413837775
6941.133343437893,0.005561012959190566
6941.134343210108,0.005165556709152829
6941.135342982324,0.004772056534129101
6941.136342754538,0.0043806361901927
6941.137342526754,0.0039914182774031725
6941.138342298969,0.0036045241987228143
6941.139342071185,0.0032200741195414265
6941.1403418434,0.0028381869278183906
6941.141341615616,0.0024589801948510705
6941.14234138783,0.002082570136678539
6941.143341160046,0.0017090715761296559
6941.144340932261,0.001338597905524601
6941.145340704476,0.000971261050039064
6941.146340476692,0.0006071714317404217
6941.147340248906,0.0002464379343052778
6941.148340021122,-0.00011083213157225439
6941.149339793337,-0.0004645330620722294
6941.150339565553,-0.0008145607934313631
6941.151339337768,-0.0011608129344073995
6941.152339109984,-0.001503188798016646
6941.153338882198,-0.0018415894325362384
6941.154338654414,-0.002175917651762971
6941.155338426629,-0.0025060780645208085
6941.156338198844,-0.002831977103409506
6941.15733797106,-0.003153523052787088
6941.158337743274,-0.003470626075979279
6941.15933751549,-0.0037831982417093147
6941.160337287705,-0.004091153549741883
6941.161337059921,-0.004394407955735217
6941.162336832136,-0.004692879395295597
6941.163336604352,-0.004986487807228731
6941.164336376566,-0.005275155155982617
6941.1653361487815,-0.005558805453276668
6941.166335920997,-0.0058373647789120246
6941.167335693212,-0.00611076130075816
6941.168335465428,-0.006378925293911149
6941.169335237642,-0.006641789159019332
6941.170335009858,-0.0068992874397725
6941.171334782073,-0.007151356839551222
6941.172334554289,-0.007397936237233393
6941.173334326504,-0.0076389667021555165
6941.17433409872,-0.007874391508226592
6941.175333870934,-0.008104156147192773
6941.1763336431495,-0.008328208341051297
6941.177333415365,-0.008546498053612395
6941.17833318758,-0.008758977501208206
6941.179332959795,-0.008965601162547878
6941.18033273201,-0.009166325787718322
6941.181332504226,-0.009361110406330338
6941.182332276441,-0.009549916334810097
6941.183332048657,-0.00973270718283625
6941.184331820872,-0.009909448858923304
6941.185331593087,-0.010080109575152173
6941.186331365302,-0.010244659851049262
6941.1873311375175,-0.010403072516615788
6941.188330909733,-0.010555322714509563
6941.189330681948,-0.010701387901381932
6941.190330454163,-0.01084124784837302
6941.191330226378,-0.010974884640768907
6941.192329998594,-0.011102282676824766
6941.193329770809,-0.011223428665758322
6941.194329543025,-0.011338311624918291
6941.19532931524,-0.011446922876132803
6941.196329087455,-0.011549256041243114
6941.19732885967,-0.011645307036828343
6941.1983286318855,-0.011735074068127332
6941.199328404101,-0.011818557622164135
6941.200328176316,-0.011895760460084118
6941.201327948531,-0.011966687608707914
6941.202327720746,-0.012031346351310718
6941.203327492962,-0.01208974621763468
6941.204327265177,-0.012141898973142214
6941.205327037393,-0.012187818607518212
6941.206326809608,-0.012227521322429193
6941.207326581823,-0.012261025518547606
6941.208326354038,-0.012288351781849678
6941.2093261262535,-0.01230952286919543
6941.210325898469,-0.012324563693199894
6941.211325670684,-0.012333501306404938
6941.212325442899,-0.012336364884761655
6941.213325215114,-0.012333185710433736
6941.21432498733,-0.012323997153932762
6941.215324759545,-0.01230883465559677
6941.216324531761,-0.012287735706423846
6941.217324303976,-0.012260739828272733
6941.218324076191,-0.01222788855344274
6941.219323848406,-0.012189225403645289
6941.2203236206215,-0.012144795868379679
6941.221323392837,-0.01209464738272571
6941.222323165052,-0.012038829304565832
6941.223322937267,-0.011977392891249626
