Time,Filtered_EMG_Bicep,Filtered_EMG_Tricep
6448.942881029413,0.002136903060301553,0.001530193404823959
6448.9438808013365,0.0022098508662326943,0.001598155238066797
6448.944880573259,0.0022832708560473302,0.001666812576627712
6448.945880345182,0.0023566383583524743,0.001735766777611417
6448.946880117104,0.0024294186326073827,0.0018046188036826198
6448.947879889027,0.0025010737542609613,0.0018729748683433258
6448.94887966095,0.00257106954260259,0.0019404516907738862
6448.949879432873,0.002638882402723804,0.0020066811959143825
6448.950879204796,0.0027040059802318746,0.0020713145738014012
6448.951878976718,0.0027659575519710117,0.0021340256909022524
6448.952878748641,0.0028242840794560527,0.0021945138891081048
6448.953878520563,0.00287856783704237,0.0022525062138982676
6448.954878292487,0.0029284315161251405,0.0023077591137548605
6448.955878064409,0.0029735427177404283,0.002360059669096457
6448.956877836332,0.0030136177723924895,0.00240922643151925
6448.957877608254,0.0030484248455737144,0.002455109966585078
6448.958877380177,0.003077786291384843,0.002497593188040973
6448.9598771521005,0.0031015802169076733,0.002536591544937855
6448.960876924023,0.003119741232132059,0.0025720530812320236
6448.961876695946,0.003132260392149725,0.0026039583494132696
6448.962876467868,0.0031391843848137023,0.0026323201424237447
6448.963876239791,0.003140614057616545,0.002657183007864976
6448.964876011714,0.0031367023904702272,0.0026786225046489696
6448.965875783637,0.003127651998825097,0.0026967441388272275
6448.966875555559,0.003113712201399458,0.002711681880789572
6448.967875327482,0.003095175631408894,0.0027235961484389564
6448.968875099405,0.0030723743429089934,0.00273267115861731
6448.969874871327,0.003045675382587323,0.0027391115938434738
6448.970874643251,0.003015475845607728,0.002743138581298581
6448.971874415173,0.0029821974809742164,0.002744985019766206
6448.972874187096,0.0029462809460797834,0.002744890322128186
6448.973873959018,0.0029081798425687503,0.002743094689551979
6448.974873730941,0.0028683547024468017,0.0027398331136577678
6448.9758735028645,0.0028272671214253035,0.0027353293960793875
6448.976873274787,0.0027853742356456356,0.0027297905410836425
6448.97787304671,0.0027431236993893564,0.002723401889415868
6448.978872818632,0.00270094925649419,0.0027163233219277554
6448.979872590555,0.0026592669290139833,0.002708686784460523
6448.980872362478,0.002618471789417084,0.002700595281227587
6448.981872134401,0.0025789352479904893,0.002692123362536301
6448.982871906323,0.0025410027831044386,0.0026833190113191513
6448.983871678246,0.0025049920618756155,0.00267420673194472
6448.984871450169,0.0024711914222643578,0.0026647915803318387
6448.985871222092,0.0024398586996068066,0.00265506385148045
6448.986870994015,0.0024112203741278003,0.0026450041499963594
6448.987870765937,0.002385470989772356,0.002634588595536895
6448.98887053786,0.002362772765535134,0.0026237939439634787
6448.989870309782,0.002343255321025535,0.002612602425525147
6448.990870081705,0.0023270154837046336,0.0026010061151009157
6448.9918698536285,0.0023141172136864553,0.002589010673920505
6448.992869625551,0.002304591734342499,0.002576638351051363
6448.993869397474,0.0022984379701354364,0.002563930194322612
6448.994869169396,0.002295623367003846,0.0025509474685399937
6448.995868941319,0.0022960851170786395,0.002537772308353338
6448.996868713242,0.0022997317463573654,0.002524507660450395
6448.997868485165,0.002306444974595867,0.0025112765967290557
6448.998868257087,0.0023160817425611673,0.0024982210846943337
6448.99986802901,0.00232847632789272,0.0024855002761664108
6449.000867800933,0.0023434425196377073,0.0024732883451860053
6449.001867572856,0.0023607758646492284,0.0024617718955381577
6449.002867344779,0.002380256016088053,0.0024511469709268827
6449.003867116701,0.00240164920276552,0.0024416157295473104
6449.004866888624,0.00242471080841515,0.0024333828761214818
6449.005866660546,0.002449188015473936,0.002426651957803422
6449.006866432469,0.0024748224396497773,0.0024216216190561853
6449.0078662043925,0.0025013526682967488,0.002418481893390889
6449.008865976315,0.002528516628444047,0.002417410604546422
6449.009865748238,0.0025560537591343873,0.0024185699511191225
6449.01086552016,0.0025837070356960526,0.002422103345906888
6449.011865292083,0.0026112249520179264,0.0024281325747016534
6449.012865064006,0.0026383635793668396,0.0024367553264569705
6449.013864835929,0.002664888790529632,0.002448043116546882
6449.014864607851,0.0026905786894049475,0.002462039581275147
6449.015864379774,0.002715226236543879,0.0024787590935701105
6449.016864151697,0.002738642021171987,0.0024981856612803143
6449.01786392362,0.0027606571029930005,0.0025202721098691303
6449.018863695543,0.0027811258198608534,0.0025449395846256218
6449.019863467465,0.0027999284140590545,0.0025720774130553706
6449.020863239388,0.0028169732771031355,0.0026015433568319247
6449.02186301131,0.002832198580062174,0.002633164272663677
6449.022862783233,0.0028455730702119614,0.0026667371943463938
6449.0238625551565,0.0028570958778167004,0.0027020308331986995
6449.024862327079,0.0028667952656756574,0.0027387874646885276
6449.025862099002,0.002874726344901042,0.002776725137191304
6449.026861870924,0.0028809678704525958,0.0028155401316314996
6449.027861642847,0.0028856183184697505,0.0028549096342851315
6449.02886141477,0.0028887915093979916,0.0028944946381588552
6449.029861186693,0.0028906120472847654,0.0029339431178879824
6449.030860958615,0.0028912108042149767,0.0029728935101182865
6449.031860730538,0.0028907206325771042,0.0030109784968600996
6449.032860502461,0.0028892724676345466,0.00304782905967691
6449.033860274384,0.00288699197557542,0.003083078751548033
6449.034860046307,0.002883996874608246,0.0031163681151762075
6449.035859818229,0.0028803949973250477,0.003147349161731667
6449.036859590152,0.002876283084804473,0.003175689811816849
6449.037859362074,0.002871746225193536,0.0032010781888855383
6449.038859133997,0.0028668577941486223,0.0032232266498944374
6449.0398589059205,0.0028616797457350182,0.0032418754436723514
6449.040858677843,0.0028562631399991546,0.003256795903756189
6449.041858449766,0.0028506488430254853,0.0032677931135297058
6449.042858221688,0.0028448683619926806,0.0032747080295846016
6449.043857993611,0.0028389447796179626,0.0032774190947977237
6449.044857765534,0.002832893752869183,0.0032758433905909112
6449.045857537457,0.002826724557545677,0.0032699373706873256
6449.046857309379,0.002820441188060763,0.0032596972048981503
6449.047857081302,0.0028140435426089808,0.0032451587448328123
6449.048856853225,0.0028075287270479753,0.003226397105109398
6449.049856625148,0.0028008925015702534,0.003203525851178896
6449.050856397071,0.0027941308864459055,0.003176695807800878
6449.051856168993,0.0027872419415803044,0.0031460935332283464
6449.052855940916,0.0027802277280780494,0.003111939521903346
6449.053855712838,0.0027730964330791043,0.003074486196814579
6449.054855484761,0.0027658645859361835,0.0030340157378275587
6449.0558552566845,0.0027585592265553754,0.0029908377793868594
6449.056855028607,0.002751219837306211,0.0029452870123816122
6449.05785480053,0.00274389984779282,0.0028977207295678136
6449.058854572452,0.002736667564948107,0.002848516335238036
6449.059854344375,0.0027296064419153653,0.0027980687940061546
6449.060854116298,0.002722814655347458,0.0027467879514963267
6449.061853888221,0.0027164040034973734,0.002695095651883414
6449.062853660143,0.0027104981644938703,0.0026434226028272654
6449.063853432066,0.002705230371618115,0.002592204975996379
6449.064853203989,0.002700740583943004,0.002541880764784991
6449.065852975912,0.002697172261618854,0.0024928859469958912
6449.066852747835,0.002694668883575139,0.0024456505221615277
6449.067852519757,0.002693370355194287,0.0024005945092576766
6449.06885229168,0.0026934094432283628,0.0023581239927110854
6449.069852063602,0.0026949083594070976,0.002318627286446437
6449.070851835526,0.0026979756040503415,0.0022824712472035704
6449.0718516074485,0.002702703177195872,0.002249997717500812
6449.072851379371,0.00270916426620326,0.002221520038474836
6449.073851151294,0.0027174115194158847,0.002197319572421002
6449.074850923216,0.0027274759986328887,0.002177642218950077
6449.075850695139,0.0027393668561998233,0.0021626949686495514
6449.076850467062,0.002753071712519562,0.002152642579178533
6449.077850238985,0.0027685576378133495,0.00214760446441094
6449.078850010907,0.002785772587396753,0.0021476518637698616
6449.07984978283,0.0028046471149526502,0.0021528053340861357
6449.080849554753,0.0028250961989551068,0.002163032613447266
6449.081849326676,0.0028470210572519557,0.0021782469471957355
6449.082849098599,0.002870310877722114,0.0021983060018135967
6449.083848870521,0.0028948444451512498,0.002223011488998158
6449.084848642444,0.0029204916855180164,0.0022521095890126277
6449.085848414366,0.0029471151639837347,0.0022852922349775617
6449.08684818629,0.0029745715519779443,0.002322199318439584
6449.0878479582125,0.0030027130342171146,0.002362421887818903
6449.088847730135,0.0030313885892294173,0.002405506407946133
6449.089847502058,0.0030604450725035285,0.0024509601212458695
6449.09084727398,0.00308972806462501,0.0024982575077396856
6449.091847045903,0.0031190825068239084,0.002546847785919605
6449.092846817826,0.0031483532132719197,0.0025961633275427103
6449.093846589749,0.0031773853923323402,0.0026456287864866706
6449.094846361671,0.0032060252978650004,0.002694670687527519
6449.095846133594,0.0032341210702926254,0.002742727200759654
6449.096845905517,0.0032615237599268225,0.002789257838688791
6449.09784567744,0.003288088493659071,0.002833752839271128
6449.098845449363,0.003313675747646436,0.0028757420172050335
6449.099845221285,0.003338152691220077,0.002914802862565418
6449.100844993208,0.0033613945592363657,0.002950567647524988
6449.10184476513,0.003383286015431511,0.0029827292941585048
6449.102844537054,0.0034037225077291596,0.003011045780021661
6449.1038443089765,0.003422611662539703,0.0030353429165236616
6449.104844080899,0.003439874768922391,0.003055515420366127
6449.105843852822,0.0034554483504072387,0.0030715262942490997
6449.106843624744,0.0034692857509054198,0.0030834046111423877
6449.107843396667,0.0034813586172497105,0.003091241831887996
6449.10884316859,0.00349165815289403,0.0030951867864516124
6449.109842940513,0.0035001960253840886,0.003095439451196192
6449.110842712435,0.0035070048202077227,0.003092243683025233
6449.111842484358,0.003512137944401998,0.0030858791191253118
6449.112842256281,0.003515668895829008,0.003076652498680669
6449.113842028204,0.003517689831935765,0.0030648886979236924
6449.114841800127,0.003518309402675059,0.0030509217879925317
6449.115841572049,0.0035176498606518955,0.003035086423433935
6449.116841343972,0.0035158435259037657,0.0030177098425057587
6449.117841115894,0.0035130287526321077,0.002999104708268076
6449.118840887818,0.0035093456005022487,0.00297956295535145
6449.1198406597405,0.0035049314366361957,0.0029593507515718797
6449.120840431663,0.0034999166852229214,0.002938704646632398
6449.121840203586,0.0034944209144132754,0.002917828954006831
6449.122839975508,0.0034885494248860513,0.0028968943766099165
6449.123839747432,0.0034823904908717687,0.0028760378279545262
6449.124839519354,0.0034760133937172585,0.0028553633250765825
6449.125839291277,0.0034694673637800607,0.002834943763692397
6449.126839063199,0.00346278149864376,0.002814823358794823
6449.127838835122,0.0034559656575244256,0.0027950205544937227
6449.128838607045,0.0034490122601829195,0.0027755312559421636
6449.129838378968,0.0034418988627023086,0.002756332285521217
6449.130838150891,0.0034345913489327294,0.002737385003288368
6449.131837922813,0.0034270475610573294,0.002718639060810184
6449.132837694736,0.003419221186413317,0.002700036277470927
6449.133837466658,0.003411065707794075,0.0026815146292574624
6449.134837238582,0.003402538205889983,0.0026630123146370115
6449.1358370105045,0.003393602790954432,0.002644471821029452
6449.136836782427,0.0033842334604291748,0.0026258438818643824
6449.13783655435,0.003374416231736862,0.002607091204728743
6449.138836326272,0.0033641504592273365,0.002588191865685348
6449.139836098196,0.0033534492934235377,0.002569142285985602
6449.140835870118,0.0033423392871043244,0.002549959705866754
6449.141835642041,0.0033308592050127523,0.002530684034076578
6449.142835413963,0.0033190581449824407,0.0025113789131715426
6449.143835185886,0.0033069931182866576,0.0024921318485723347
6449.144834957809,0.0032947262623514036,0.002473053313404472
6449.145834729732,0.003282321871317243,0.0024542748226318778
6449.146834501655,0.0032698434357433114,0.002435946030890624
6449.147834273577,0.003257350886169833,0.0024182309468476714
6449.1488340455,0.0032448982322112016,0.0024013033925270946
6449.149833817422,0.003232531770335771,0.00238534187947958
6449.150833589346,0.0032202889901259803,0.0023705241155022334
6449.1518333612685,0.003208198238090752,0.0023570213791883374
6449.152833133191,0.003196279114611249,0.0023449929990625564
6449.153832905114,0.00318454350902569,0.0023345811568514724
6449.154832677036,0.003172997135573764,0.0023259062114998636
6449.15583244896,0.0031616414192778253,0.002319062720766837
6449.156832220882,0.003150475594106506,0.002314116324412999
6449.157831992805,0.0031394989122527904,0.0023111016399593033
6449.158831764727,0.003128712909267525,0.002310021293672267
6449.15983153665,0.003118123707762225,0.002310846157605155
6449.160831308573,0.003107744360721951,0.0023135167958732114
6449.161831080496,0.0030975972266426978,0.0023179460575232136
6449.162830852419,0.0030877163344602346,0.0023240227019174454
6449.163830624341,0.003078149654898522,0.002331615900352373
6449.164830396264,0.0030689611651885237,0.0023405804080350256
6449.165830168186,0.0030602325765233065,0.0023507621364014073
6449.16682994011,0.0030520645801775164,0.002362003790665882
6449.1678297120325,0.0030445774582006807,0.002374150201727061
6449.168829483955,0.003037910904053556,0.0023870530072267766
6449.169829255878,0.003032222916945267,0.002400574428127426
6449.1708290278,0.0030276876788243963,0.0024145900054130575
6449.171828799724,0.00302449238842267,0.0024289902567862353
6449.172828571646,0.0030228330891586335,0.0024436812727540265
6449.173828343569,0.0030229095700952764,0.002458584318455387
6449.174828115491,0.003024919449769562,0.002473634561789848
6449.175827887414,0.003029051588118902,0.0024887791043428807
6449.176827659337,0.0030354790108595036,0.0025039745292450106
6449.17782743126,0.003044351560555003,0.002519184184021412
6449.178827203183,0.0030557885072780653,0.0025343753905352527
6449.179826975105,0.0030698713709798628,0.0025495167439512985
6449.180826747028,0.0030866372339511347,0.0025645756515797874
6449.18182651895,0.0031060728428548437,0.002579516262470039
6449.182826290874,0.0031281097927252336,0.0025942979186271736
6449.1838260627965,0.003152621038148199,0.00260887420079588
6449.184825834719,0.0031794189031636457,0.0026231925598188565
6449.185825606642,0.0032082546910011545,0.002637194451868804
6449.186825378564,0.003238819950557565,0.0026508158589588714
6449.187825150488,0.0032707494381064434,0.0026639880758227846
6449.18882492241,0.0033036257954378615,0.002676638659900086
6449.189824694333,0.0033369859218458,0.002688692455920075
6449.190824466255,0.003370328942508208,0.002700072623264631
6449.191824238178,0.003403125587369408,0.0027107016226713284
6449.192824010101,0.0034348287123590164,0.0027205021533839194
6449.193823782024,0.0034648846299255797,0.002729398053604485
6449.194823553947,0.003492744874809333,0.0027373151809767836
6449.195823325869,0.0035178780239049725,0.002744182294577487
6449.196823097792,0.0035397812233797133,0.0027499319796553427
6449.197822869714,0.003557991131451939,0.0027545016786680292
6449.198822641638,0.003572094015686013,0.0027578348954620424
6449.1998224135605,0.003581734725830624,0.002759882617929632
6449.200822185483,0.003586624227744571,0.0027606049691085827
6449.201821957406,0.0035865453902797126,0.0027599730628495942
6449.202821729328,0.0035813568011639225,0.0027579710175479233
6449.203821501252,0.003570994532327475,0.0027545980680979926
6449.204821273174,0.003555471924159962,0.0027498706998349614
6449.205821045097,0.00353487756361455,0.0027438246994031753
6449.206820817019,0.003509371683558292,0.002736516986335824
6449.207820588942,0.0034791812317853422,0.0027280270810589005
6449.2088203608655,0.003444593870148067,0.0027184580933465063
6449.209820132788,0.003405951173829856,0.002707937163828227
6449.210819904711,0.003363641300555219,0.0026966153290213404
6449.211819676633,0.003318091377357941,0.0026846667868561107
6449.212819448556,0.0032697598058504815,0.002672287514149359
6449.213819220478,0.0032191286336783484,0.0026596931480522743
6449.214818992402,0.003166696106605923,0.0026471160233333168
6449.2158187643245,0.003112969511115923,0.0026348012860686254
6449.216818536247,0.0030584584239825687,0.002623002078221739
6449.21781830817,0.00300366848077617,0.0026119738711058616
6449.218818080092,0.0029490957521853436,0.0026019680915375645
6449.219817852016,0.0028952217760630774,0.002593225237067329
6449.220817623938,0.0028425092352244025,0.002585967730593749
6449.221817395861,0.002791398206016034,0.002580392815551838
6449.222817167783,0.0027423028512807523,0.0025766658186338223
6449.223816939706,0.0026956084147373265,0.0025749140946576803
6449.2248167116295,0.0026516684059618265,0.002575221930792461
6449.225816483552,0.0026108019440175215,0.002577626646500559
6449.226816255475,0.0025732913214377004,0.0025821160834642526
6449.227816027397,0.002539379906678955,0.002588627621905267
6449.22881579932,0.002509270494864777,0.0025970487822419
6449.229815571242,0.0024831241656781814,0.002607219391949401
6449.230815343166,0.002461059650899765,0.0026189352392906318
6449.2318151150885,0.002443153166868998,0.0026319531042278475
6449.232814887011,0.0024294386325509347,0.0026459970389906295
6449.233814658934,0.0024199081859646913,0.002660765746951761
6449.234814430856,0.002414512939971184,0.0026759408651793317
6449.23581420278,0.0024131639642122845,0.0026911958931718316
6449.236813974702,0.0024157335100737304,0.0027062054492578568
6449.237813746625,0.0024220564976359543,0.002720654511323106
6449.238813518547,0.002431932275124629,0.002734247320251568
6449.23981329047,0.0024451266633182716,0.0027467156600577028
6449.2408130623935,0.0024613743110563245,0.0027578262422015124
6449.241812834316,0.0024803813984659593,0.002767386923757732
6449.242812606239,0.002501828716369489,0.002775251525867648
6449.243812378161,0.0025253751201570643,0.002781323112616498
6449.244812150084,0.0025506613178115207,0.0027855557111519107
6449.245811922006,0.0025773139278617604,0.002787954552320172
6449.24681169393,0.0026049497481747245,0.002788574966092175
6449.2478114658525,0.002633180201541787,0.0027875200910007433
6449.248811237775,0.002661615942092019,0.0027849375703840424
6449.249811009698,0.002689871598557625,0.0027810154099331573
6449.25081078162,0.0027175706011360184,0.002775977149073691
6449.251810553544,0.002744350005191201,0.002770076455768867
6449.252810325466,0.002769865199433483,0.002763591215032069
6449.253810097389,0.0027937943730793626,0.0027568171720882572
6449.254809869311,0.0028158426170558533,0.0027500612165704897
6449.255809641234,0.002835745552562343,0.0027436344344559022
6449.2568094131575,0.002853272424773057,0.002737845083016986
6449.25780918508,0.0028682286668356644,0.002732991649382668
6449.258808957003,0.0028804580000166683,0.002729356142282405
6449.259808728925,0.0028898441563430205,0.002727197749433853
6449.260808500848,0.0028963122893566166,0.002726746973583637
6449.261808272771,0.0028998301046453123,0.002728200342510838
6449.262808044694,0.002900408713608527,0.0027317157836491677
6449.2638078166165,0.0028981031877869756,0.002737408771280845
6449.264807588539,0.0028930127633776865,0.002745349383675081
6449.265807360462,0.0028852806211784065,0.002755560421220745
6449.266807132384,0.002875093146120513,0.002768016710772444
6449.267806904308,0.002862678551528887,0.0027826456559877865
6449.26880667623,0.0028483047461109216,0.0027993290078632896
6449.269806448153,0.0028322763375086277,0.0028179057458179667
6449.270806220075,0.002814930705360133,0.0028381758954114265
6449.271805991998,0.002796633134098196,0.0028599050805803742
6449.2728057639215,0.002777771065977278,0.002882829620891582
6449.273805535844,0.002758747610857207,0.0029066620172318695
6449.274805307767,0.002739974518291343,0.0029310966925838963
6449.275805079689,0.0027218648599370366,0.0029558158591483706
6449.276804851612,0.002704825673375984,0.0029804953804642023
6449.277804623534,0.002689250792318635,0.003004810495244777
6449.278804395458,0.0026755140540820287,0.003028441269765549
6449.2798041673805,0.0026639630414602173,0.0030510776561035787
6449.280803939303,0.002654913481207737,0.003072424065870647
6449.281803711226,0.00264864439008918,0.0030922034216033776
6449.282803483148,0.0026453940392326602,0.0031101607033705266
6449.283803255072,0.002645356796122826,0.003126066047578587
6449.284803026994,0.0026486808907395295,0.0031397174705616922
6449.285802798917,0.002655467130511269,0.003150943284546436
6449.286802570839,0.0026657685573235907,0.0031596042547375565
6449.287802342762,0.002679591002771947,0.0031655955173380845
6449.2888021146855,0.002696894462512385,0.0031688482397935216
6449.289801886608,0.0027175951844955804,0.003169330961954775
6449.290801658531,0.0027415683478999244,0.0031670505252196736
6449.291801430453,0.002768651191278135,0.0031620524877329823
6449.292801202376,0.0027986464312679924,0.0031544209317625
6449.293800974299,0.0028313258110525988,0.0031442775789789056
6449.294800746222,0.0028664336340446556,0.003131780134444788
6449.2958005181445,0.0029036901574860307,0.0031171197890624905
6449.296800290067,0.0029427947334005502,0.003100517832957189
6449.29780006199,0.002983428605576579,0.003082221368917037
6449.298799833912,0.0030252573199310183,0.0030624981607550554
6449.299799605836,0.003067932777575693,0.003041630706058371
6449.300799377758,0.003111095033821066,0.0030199096890918824
6449.301799149681,0.003154374005759389,0.0029976270450025174
6449.302798921603,0.003197391288952178,0.002975068936626491
6449.303798693526,0.0032397622925528537,0.002952508986193086
6449.3047984654495,0.003281098871238797,0.002930202097603325
6449.305798237372,0.0033210125606077047,0.002908379152706184
6449.306798009295,0.0033591184301538174,0.0028872427836197333
6449.307797781217,0.0033950394836841516,0.002866964326207079
6449.30879755314,0.0034284114778583975,0.002847681953937484
6449.309797325063,0.003458887998613871,0.002829499887510896
6449.310797096986,0.0034861456331871593,0.002812488495899722
6449.3117968689085,0.0035098890961788097,0.002796685072153246
6449.312796640831,0.00352985619187839,0.0027820950908209207
6449.313796412754,0.003545822506495313,0.0027686938227150944
6449.314796184676,0.003557605729724715,0.002756428273347773
6449.3157959566,0.0035650695140494702,0.0027452194898294475
6449.316795728522,0.0035681267791388927,0.0027349653117310505
6449.317795500445,0.0035667423434875755,0.002725543611058167
6449.318795272367,0.00356093473389552,0.0027168159993599676
6449.31979504429,0.0035507770200980233,0.0027086319199201665
6449.3207948162135,0.003536396557000502,0.0027008330185804494
6449.321794588136,0.0035179735709063285,0.0026932576926562537
6449.322794360059,0.003495738577729671,0.002685745722814128
6449.323794131981,0.0034699686672870237,0.002678142873352738
6449.324793903904,0.00344098273788606,0.002670305313819128
6449.325793675827,0.003409135822045137,0.0026621037032300504
6449.32679344775,0.0033748126912427996,0.002653426798914976
6449.3277932196725,0.0033384209472549385,0.0026441844844756644
6449.328792991595,0.003300383801465934,0.0026343101363336327
6449.329792763518,0.003261132725291991,0.0026237622685507597
6449.33079253544,0.0032211001346147752,0.0026125254212514366
6449.331792307364,0.0031807122561615425,0.0026006102888494267
6449.332792079286,0.003140382322215502,0.0025880531116739686
6449.333791851209,0.0031005042539024794,0.002574914371317837
6449.334791623131,0.003061447006416705,0.002561276834265062
6449.335791395054,0.0030235497323842686,0.0025472429868715093
6449.3367911669775,0.002987117863990862,0.0025329319119537772
6449.3377909389,0.0029524201535503754,0.002518475677358755
6449.338790710823,0.0029196866799551394,0.002504015325111123
6449.339790482745,0.0028891078145916976,0.0024896965560167526
6449.340790254668,0.002860834112583382,0.0024756652105840608
6449.341790026591,0.00283497705229238,0.0024620626647344837
6449.342789798514,0.002811610518952223,0.0024490212824275306
6449.3437895704365,0.0027907729349699937,0.0024366600879888387
6449.344789342359,0.0027724699571672873,0.002425080834306303
6449.345789114282,0.0027566776488642157,0.0024143646395089627
6449.346788886205,0.0027433459752834134,0.002404569337053434
6449.347788658128,0.00273240239067841,0.002395727644483533
6449.34878843005,0.00272375523866779,0.0023878462214149123
6449.349788201973,0.002717296719672424,0.0023809056553098073
6449.350787973895,0.0027129052971383303,0.002374861374162852
6449.351787745818,0.002710447574983318,0.002369645441198021
6449.3527875177415,0.002709779814730561,0.002365169146174789
6449.353787289664,0.002710749319226665,0.002361326271403876
6449.354787061587,0.002713195884778589,0.0023579968783953684
6449.355786833509,0.0027169534518815537,0.0023550514393721207
6449.356786605432,0.002721852007948951,0.0023523551317775676
6449.357786377355,0.0027277197332266855,0.002349772123365203
6449.358786149278,0.0027343853390901156,0.0023471696987922954
6449.3597859212005,0.0027416805282810303,0.002344422114592868
6449.360785693123,0.0027494425016076273,0.002341414110877892
6449.361785465046,0.0027575164290456248,0.002338044038414969
6449.362785236969,0.002765757787035377,0.0023342265681861917
6449.363785008892,0.002774034443822085,0.0023298949450462907
6449.364784780814,0.0027822283608403653,0.0023250027388071752
6449.365784552737,0.002790236782040897,0.002319525039135319
6449.366784324659,0.0027979728203815324,0.002313459047963542
6449.367784096582,0.002805365426683121,0.0023068240635214926
6449.3687838685055,0.00281235881783014,0.0022996609158037083
6449.369783640428,0.002818911513049585,0.0022920309639024397
6449.370783412351,0.0028249951636307655,0.0022840147679775045
6449.371783184273,0.0028305933704014952,0.002275710510838262
6449.372782956196,0.002835700669171085,0.0022672322033322314
6449.373782728119,0.0028403218243356044,0.002258707688995449
6449.374782500042,0.0028444715105646165,0.0022502764568498156
6449.375782271964,0.0028481743985839564,0.0022420872550943365
6449.376782043887,0.0028514656091339972,0.002234295475691577
6449.37778181581,0.002854391464678815,0.0022270602750799383
6449.378781587733,0.0028570104449713945,0.002220541422334886
6449.379781359656,0.0028593942281982324,0.0022148959122428873
6449.380781131578,0.0028616286676002513,0.002210274428170014
6449.381780903501,0.0028638145192215487,0.002206817772785749
6449.382780675423,0.0028660677160494,0.002204653392613138
6449.383780447346,0.0028685190003503733,0.0022038921067637517
6449.3847802192695,0.002871312796428408,0.0022046251315938517
6449.385779991192,0.002874605319990201,0.002206921491376852
6449.386779763115,0.0028785620318222387,0.0022108259140993856
6449.387779535037,0.002883354600252402,0.0022163573061986163
6449.38877930696,0.0028891575261876918,0.0022235078669174788
6449.389779078883,0.002896144541411523,0.0022322428521717795
6449.390778850806,0.002904484860964198,0.0022425009539840976
6449.391778622728,0.002914339371712638,0.0022541952438209123
6449.392778394651,0.0029258568557893392,0.002267214629736401
6449.393778166574,0.0029391703582624714,0.002281425771239277
6449.394777938497,0.002954393813403919,0.0022966753678517653
6449.39577771042,0.0029716190504319533,0.0023127926994992855
6449.396777482342,0.002990913293954685,0.0023295922727756173
6449.397777254265,0.0030123172348613257,0.0023468764362790137
6449.398777026187,0.0030358436805646297,0.0023644378743551114
6449.39977679811,0.0030614767366072817,0.002382061953848282
6449.4007765700335,0.0030891714571781794,0.002399528959476693
6449.401776341956,0.0031188539283393117,0.002416616302119651
6449.402776113879,0.0031504217836848666,0.0024331008211395874
6449.403775885801,0.0031837451609063724,0.002448761317284969
6449.404775657724,0.003218668070657576,0.002463381431448841
6449.405775429647,0.0032550100857964403,0.002476752925546976
6449.40677520157,0.0032925682202482164,0.0024886793451181395
6449.407774973492,0.003331118885445633,0.002498979977179562
6449.408774745415,0.0033704198677999265,0.0025074939744984125
6449.409774517338,0.003410212317433743,0.0025140844863454875
6449.410774289261,0.003450222755932645,0.00251864260092857
6449.411774061184,0.0034901651086440043,0.0025210908741821973
6449.412773833106,0.0035297427591594053,0.0025213862133390144
6449.413773605029,0.003568650618904925,0.0025195219118811104
6449.414773376951,0.003606577215196012,0.002515528696045413
6449.415773148874,0.003643206836284855,0.0025094747333162305
6449.4167729207975,0.0036782218173261275,0.002501464645164257
6449.41777269272,0.0037113050716112944,0.0024916376334666672
6449.418772464643,0.00374214294574849,0.002480164867726399
6449.419772236565,0.0037704284190351284,0.0024672462981956615
6449.420772008488,0.0037958646109818015,0.002453107061454455
6449.421771780411,0.00381816853449316,0.002437993627902967
6449.422771552334,0.0038370750311274397,0.0024221698141707534
6449.423771324256,0.003852340817411646,0.0024059127648454457
6449.424771096179,0.003863748537063962,0.0023895090019448706
6449.425770868102,0.003871110669232086,0.0023732506331457515
6449.426770640025,0.0038742731174090726,0.002357431783870399
6449.427770411948,0.003873118307520322,0.002342345270413974
6449.42877018387,0.003867567645093669,0.002328279474289134
6449.429769955793,0.003857583205248083,0.0023155153361281862
6449.430769727715,0.0038431685513457174,0.0023043233855075144
6449.431769499639,0.0038243686144256066,0.0022949607646484483
6449.4327692715615,0.0038012686414309127,0.0022876682607196027
6449.433769043484,0.0037739923341019413,0.0022826673971495484
6449.434768815407,0.0037426994054577715,0.002280157636582738
6449.435768587329,0.0037075828236555635,0.002280313728645317
6449.436768359252,0.0036688659845005166,0.0022832832135972194
6449.437768131175,0.0036267999875990264,0.002289184084158124
6449.438767903098,0.003581661121443606,0.0022981026158876024
6449.43976767502,0.003533748598188372,0.002310091390740985
6449.440767446943,0.003483382513550786,0.0023251675492782795
6449.441767218866,0.0034309019434373995,0.0023433113156034057
6449.442766990789,0.003376663038465922,0.002364464845753669
6449.443766762712,0.0033210369515286834,0.0023885314502543973
6449.444766534634,0.0032644074446176335,0.002415375239423934
6449.445766306557,0.0032071680789306405,0.0024448212496425985
6449.446766078479,0.0031497189774166014,0.002476656130721238
6449.447765850403,0.0030924632145312375,0.002510629489218474
6449.4487656223255,0.0030358029067703678,0.0025464559757920925
6449.449765394248,0.002980135069519389,0.0025838181829980623
6449.450765166171,0.0029258473074908293,0.0026223703907987095
6449.451764938093,0.0028733134289948025,0.002661743151711567
6449.452764710016,0.0028228891015036595,0.0027015486406933155
6449.453764481939,0.002774907677250681,0.0027413866272731915
6449.454764253862,0.002729676309927413,0.0027808508876902335
6449.455764025784,0.002687472468370041,0.0028195358629770602
6449.456763797707,0.0026485409391084577,0.0028570433594233887
6449.45776356963,0.002613091395737834,0.002892989067853155
6449.458763341553,0.002581296597867987,0.002927008665624669
6449.459763113476,0.0025532912663699596,0.0029587632870013134
6449.460762885398,0.002529171656427232,0.0029879442130286934
6449.461762657321,0.0025089958045175047,0.0030142767266127524
6449.462762429243,0.002492784369275585,0.0030375231709759212
6449.463762201167,0.002480521945691909,0.0030574853116886866
6449.4647619730895,0.0024721587203206164,0.003074006125250997
6449.465761745012,0.0024676123417968973,0.0030869711287088114
6449.466761516935,0.0024667698925396712,0.0030963093388429266
6449.467761288857,0.0024694898621319874,0.003101993917547139
6449.46876106078,0.0024756040438218855,0.0031040425251959726
6449.469760832703,0.002484919301844559,0.0031025173688890937
6449.470760604626,0.0024972191852915245,0.0030975249118882645
6449.471760376548,0.00251226539413914,0.0030892152161515513
6449.472760148471,0.0025297991373808082,0.0030777809105273796
6449.473759920394,0.0025495424599344995,0.0030634557898062457
6449.474759692317,0.0025711996433659973,0.003046513040139334
6449.47575946424,0.0025944587901980177,0.003027263052511661
6449.476759236162,0.0026189936749202664,0.0030060507429036606
6449.477759008085,0.002644465897309207,0.0029832522774071203
6449.478758780007,0.0026705273294227376,0.0029592711243538947
6449.479758551931,0.0026968228271126078,0.0029345334112090486
6449.4807583238535,0.002722993184416831,0.002909482621046427
6449.481758095776,0.0027486783310541082,0.002884573697940231
6449.482757867699,0.0027735207861880468,0.002860266634079544
6449.483757639621,0.002797169373088634,0.002837019596832536
6449.484757411545,0.0028192831812035696,0.0028152816536338027
6449.485757183467,0.0028395357542007125,0.002795485187867482
6449.48675695539,0.0028576194838403146,0.0027780381524006004
6449.487756727312,0.002873250179371981,0.002763316345468685
6449.488756499235,0.0028861717468187695,0.0027516559095930927
6449.489756271158,0.002896160861593009,0.002743346264770552
6449.490756043081,0.002903031475759046,0.002738623697957614
6449.491755815004,0.0029066389859305508,0.002737665829084813
6449.492755586926,0.002906883898729071,0.0027405871474893567
6449.493755358849,0.0029037148579128392,0.0027474357667752096
6449.494755130771,0.002897130935864257,0.00275819150112145
6449.495754902695,0.002887183140683106,0.0027727653355216035
6449.4967546746175,0.0028739751391592063,0.0027910003336876735
6449.49775444654,0.002857663229859776,0.002812673977070574
6449.498754218463,0.0028384556104246793,0.002837501855570135
6449.499753990385,0.0028166109673220304,0.0028651425606068003
6449.500753762309,0.002792436377939151,0.0028952035931378746
6449.501753534231,0.0027662844705539785,0.002927248105463678
6449.502753306154,0.0027385497668871725,0.0029608023333803205
6449.503753078076,0.002709664153612328,0.0029953636100977406
6449.504752849999,0.0026800914809549034,0.003030408854809613
6449.505752621922,0.0026503213333575995,0.003065403394027708
6449.506752393845,0.002620862038125624,0.0030998099264068915
6449.507752165768,0.0025922329888464976,0.0031330974135365596
6449.50875193769,0.002564956388115515,0.003164749687042203
6449.509751709613,0.0025395485554333785,0.003194273596435008
6449.510751481535,0.0025165109722033205,0.0032212065619408154
6449.511751253459,0.002496321235386665,0.0032451234352608316
6449.5127510253815,0.002479424086890575,0.0032656426138660865
6449.513750797304,0.0024662226991406556,0.0032824313991376996
6449.514750569227,0.0024570704215748865,0.0032952106208608205
6449.515750341149,0.0024522632065644306,0.0033037585537142866
6449.516750113073,0.0024520329269606036,0.0033079141203053216
6449.517749884995,0.0024565417787761595,0.0033075793234364145
6449.518749656918,0.002465877944713664,0.0033027208094672015
6449.51974942884,0.0024800526798669535,0.0032933704685612717
6449.520749200763,0.002498998956025105,0.0032796250296882904
6449.521748972686,0.002522571751693317,0.0032616446700440924
6449.522748744609,0.002550550010164066,0.003239650684467833
6449.523748516532,0.0025826402374995653,0.003213922241868456
6449.524748288454,0.0026184816928297443,0.0031847922243315304
6449.525748060377,0.0026576531136110514,0.003152642138168363
6449.526747832299,0.002699680886052702,0.0031178961174609765
6449.527747604223,0.002744048517845117,0.003081014094755926
6449.5287473761455,0.002790207225220645,0.003042484264939189
6449.529747148068,0.0028375874167610444,0.0030028149978346685
6449.530746919991,0.002885610821501884,0.002962526358702573
6449.531746691913,0.0029337029581107247,0.002922141385566721
6449.532746463837,0.0029813055868070488,0.00288217726434514
6449.533746235759,0.0030278887346824037,0.002843136539674686
6449.534746007682,0.0030729618412625934,0.002805498494341894
6449.535745779604,0.0031160835571463147,0.00276971082900783
6449.536745551527,0.003156869777380705,0.002736181788235741
6449.53774532345,0.0031949996054699246,0.0027052729007333316
6449.538745095373,0.0032302190896998637,0.0026772925127101933
6449.539744867296,0.0032623427161033473,0.002652490289589118
6449.540744639218,0.0032912527680306015,0.002631052847648416
6449.541744411141,0.0033168967680313175,0.002613100655742235
6449.542744183063,0.0033392832982681456,0.0025986863219123104
6449.543743954987,0.0033584765416214872,0.002587794347935897
6449.5447437269095,0.003374589891506223,0.0025803423852936813
6449.545743498832,0.0033877789538744947,0.0025761839622090187
6449.546743270755,0.0033982342322072707,0.002575112598260482
6449.547743042677,0.003406173758945093,0.00257686719710923
6449.548742814601,0.003411835908057509,0.0025811385961039056
6449.549742586523,0.0034154725821128997,0.002587577127550783
6449.550742358446,0.0034173429136656235,0.00259580099922196
6449.551742130368,0.003417707561858442,0.002605405242465607
6449.552741902291,0.0034168236267110345,0.002615970925826223
6449.553741674214,0.003414940154552368,0.002627074313459976
6449.554741446137,0.0034122941789716528,0.0026382956796037176
6449.55574121806,0.0034091072374777074,0.0026492275651131894
6449.556740989982,0.0034055823240113975,0.002659482339742481
6449.557740761905,0.003401901267933252,0.0026686989798430333
6449.558740533827,0.0033982225394635027,0.002676548988248651
6449.559740305751,0.0033946794521982353,0.002682741393870642
6449.5607400776735,0.0033913786954600004,0.0026870267819931034
6449.561739849596,0.0033883991307423053,0.002689200313475238
6449.562739621519,0.0033857908344627537,0.0026891036849747314
6449.563739393441,0.0033835744260392268,0.002686625974292527
6449.564739165365,0.00338174074909955,0.0026817033285173597
6449.565738937287,0.003380250968633422,0.0026743174981749534
6449.56673870921,0.003379037127979534,0.002664493284171982
6449.567738481132,0.0033780032003010267,0.002652295026901503
6449.568738253055,0.0033770266765899776,0.0026378223198432727
6449.5697380249785,0.0033759607465338724,0.0026212051672819107
6449.570737796901,0.003374637139011219,0.0026025988208633055
6449.571737568824,0.0033728696863026507,0.0025821785255950636
6449.572737340746,0.0033704586471191263,0.0025601343902213374
6449.573737112669,0.00336719576484678,0.0025366665691887147
6449.574736884591,0.003362869971538311,0.0025119809024519617
6449.575736656515,0.003357273604595936,0.002486285115875177
6449.5767364284375,0.003350208981813258,0.002459785652362606
6449.57773620036,0.003341495154953932,0.0024326851812159576
6449.578735972283,0.0033309746183357004,0.0024051808075097997
6449.579735744205,0.003318519701568527,0.0023774629634264488
6449.580735516129,0.0033040383482114658,0.002349714906003486
6449.581735288051,0.003287478986117086,0.002322112678765371
6449.582735059974,0.00326883422401105,0.0022948253474218616
6449.583734831896,0.0032481431501830385,0.00226801532844995
6449.584734603819,0.0032254920665371655,0.002241838694247664
6449.585734375743,0.003201013580753401,0.002216445410822628
6449.586734147665,0.0031748840987002704,0.00219197949253944
6449.587733919588,0.0031473198761981795,0.002168579037717374
6449.58873369151,0.0031185718729449937,0.0021463760736989378
6449.589733463433,0.003088919702298434,0.002125496130224748
6449.590733235355,0.003058665002944081,0.002106057493526875
6449.591733007279,0.0030281245678371095,0.0020881701564368243
6449.5927327792015,0.002997623533519441,0.002071934536073864
6449.593732551124,0.002967488855127142,0.002057440055107258
6449.594732323047,0.0029380431919082306,0.0020447636831845252
6449.595732094969,0.002909599239986989,0.002033968532636247
6449.596731866893,0.0028824544987728633,0.0020251025979806736
6449.597731638815,0.0028568864493515593,0.002018197707415986
6449.598731410738,0.002833148146059876,0.002013268713150829
6449.59973118266,0.0028114642593619716,0.0020103129026564142
6449.600730954583,0.0027920276422709047,0.0020093095857054337
6449.6017307265065,0.0027749965103343083,0.0020102198124264427
6449.602730498429,0.002760492322216252,0.0020129862034583136
6449.603730270352,0.00274859843086483,0.0020175329108233055
6449.604730042274,0.002739359553821108,0.002023765751694578
6449.605729814197,0.002732782089401694,0.002031572551240408
6449.606729586119,0.0027288352808107668,0.002040823715729629
6449.607729358043,0.0027274531965511928,0.0020513730689754425
6449.6087291299655,0.0027285374503864556,0.0020630590251286317
6449.609728901888,0.0027319605377069687,0.0020757061996886906
6449.610728673811,0.0027375696352481597,0.002089127546585593
6449.611728445733,0.0027451907082477645,0.002103127058759656
6449.612728217657,0.00275463278941639,0.0021175030088754613
6449.613727989579,0.002765692322772353,0.0021320516542361694
6449.614727761502,0.0027781574871767857,0.0021465712906186037
6449.615727533424,0.0027918124230386864,0.0021608665083202175
6449.616727305347,0.0028064412830711032,0.0021747524756653798
6449.617727077271,0.0028218320179039615,0.0021880590614922635
6449.618726849193,0.002837779795378026,0.002200634625263145
6449.619726621116,0.002854089947291982,0.0022123493465693125
6449.620726393038,0.002870580344646355,0.002223098009406184
6449.621726164961,0.0028870831211837396,0.0022328021828029836
6449.622725936884,0.0029034456975602437,0.0022414117541685484
6449.623725708807,0.0029195311104867365,0.002248905792525772
6449.6247254807295,0.002935217715456229,0.0022552927484361597
6449.625725252652,0.0029503983864666307,0.0022606100165635953
6449.626725024575,0.0029649793667009786,0.00226492288231763
6449.627724796497,0.0029788789312453334,0.002268322863119718
6449.628724568421,0.002992026008739267,0.0022709254655333276
6449.629724340343,0.0030043588717709123,0.002272867417712733
6449.630724112266,0.003015823951863897,0.0022743034840207953
6449.631723884188,0.003026374783750498,0.0022754029992410854
6449.632723656111,0.003035971058823825,0.0022763462531985323
6449.6337234280345,0.003044577775022395,0.002277320810388222
6449.634723199957,0.0030521644884369276,0.002278517785712865
6449.63572297188,0.0030587046747344794,0.0022801280522986972
6449.636722743802,0.00306417519201576,0.0022823383561659046
6449.637722515725,0.0030685558160243177,0.0022853273552692873
6449.638722287647,0.003071828814400511,0.002289261663859181
6449.639722059571,0.0030739785551101876,0.0022942920373157523
6449.6407218314935,0.003074991200254686,0.0023005498608320496
6449.641721603416,0.003074854588188588,0.0023081441084678266
6449.642721375339,0.0030735584203623384,0.0023171589217845325
6449.643721147261,0.0030710948386784963,0.0023276519197865694
6449.644720919185,0.0030674594280559013,0.002339653295880875
6449.645720691107,0.003062652636068441,0.002353165689802051
6449.64672046303,0.0030566815759212065,0.002368164755893296
6449.647720234952,0.003049562156846389,0.0023846003037430582
6449.648720006875,0.003041321446490033,0.00240239787991943
6449.649719778799,0.0030320001038783686,0.0024214606860631033
6449.650719550721,0.003021654647371734,0.002441671759855662
6449.651719322644,0.0030103592841364967,0.0024628963530474142
6449.652719094566,0.0029982070620635203,0.00248498442662036
6449.653718866489,0.0029853102013617234,0.002507773174877276
6449.654718638412,0.0029717995736008177,0.0025310895098933964
6449.655718410335,0.0029578233814812425,0.002554752484076753
6449.6567181822575,0.0029435451472313323,0.0025785756829199225
6449.65771795418,0.002929141151424066,0.0026023696567680174
6449.658717726103,0.00291479747739761,0.0026259444598639853
6449.659717498025,0.0029007068007897486,0.002649112332209094
6449.660717269949,0.0028870650227384663,0.0026716905235155517
6449.661717041871,0.0028740678021220408,0.0026935042372362734
6449.662716813794,0.002861907019360316,0.0027143896535776384
6449.663716585716,0.0028507672063907397,0.0027341969555441273
6449.664716357639,0.002840821999031167,0.002752793242939358
6449.6657161295625,0.0028322307043214747,0.0027700652052731834
6449.666715901485,0.0028251351166532724,0.0027859214391635083
6449.667715673408,0.0028196567438344166,0.0028002943063102645
6449.66871544533,0.002815894600641468,0.0028131412088878175
6449.669715217253,0.002813923687152268,0.0028244451293108477
6449.670714989176,0.0028137942003478877,0.002834214285395438
6449.671714761099,0.0028155314514181694,0.002842480813687344
6449.6727145330215,0.0028191364040844728,0.0028492984968530883
6449.673714304944,0.0028245867253519543,0.0028547396590036856
6449.674714076867,0.002831838242462308,0.0028588914398552587
6449.675713848789,0.0028408267121206175,0.0028618517178118186
6449.676713620713,0.002851469822576211,0.0028637249796346644
6449.677713392635,0.0028636693668179307,0.002864618424335936
6449.678713164558,0.0028773135435947615,0.0028646385462999246
6449.67971293648,0.002892279351859116,0.0028638883833905916
6449.680712708403,0.0029084350350280404,0.0028624655483674892
6449.681712480327,0.0029256425121245593,0.0028604610827481602
6449.682712252249,0.0029437597223088085,0.0028579590838288403
6449.683712024172,0.0029626428093659086,0.002855036976987403
6449.684711796094,0.0029821480621796182,0.0028517662570288742
6449.685711568017,0.003002133496972721,0.002848213507157882
6449.68671133994,0.003022459945586404,0.0028444415130744727
6449.687711111863,0.003042991540703608,0.0028405103169801705
6449.6887108837855,0.0030635955688321603,0.0028364780978594917
6449.689710655708,0.003084141761236645,0.0028324018110819334
6449.690710427631,0.0031045011729875023,0.0028283375643845536
6449.691710199553,0.0031245448405743522,0.0028243407448621275
6449.692709971477,0.0031441424059665737,0.0028204659349041943
6449.693709743399,0.0031631608570095336,0.0028167666559496232
6449.694709515322,0.003181463474173242,0.0028132949618514883
6449.695709287244,0.003198909011709923,0.002810100882523614
6449.696709059167,0.003215351104715922,0.002807231703557301
6449.6977088310905,0.0032306379015554273,0.002804731064350774
6449.698708603013,0.0032446119593146257,0.0028026378738812718
6449.699708374936,0.0032571104691293483,0.002800985083033566
6449.700708146858,0.003267965877141454,0.0027997984019881043
6449.701707918781,0.0032770069516672375,0.002799095085177807
6449.702707690704,0.003284060340046505,0.0027988829051631805
6449.703707462627,0.0032889526586343445,0.0027991593975624897
6449.7047072345495,0.003291513156401292,0.0027999113965434938
6449.705707006472,0.003291576984256764,0.002801114820882966
6449.706706778395,0.0032889890836328597,0.0028027346394497
6449.707706550318,0.003283608669423578,0.002804724951289934
6449.708706322241,0.0032753142258056516,0.002807029150448304
6449.709706094163,0.003264008872006178,0.002809580194707808
6449.710705866086,0.003249625898397725,0.0028123010475127747
6449.711705638008,0.0032321342247460666,0.002815105398992697
6449.712705409931,0.00321154349901796,0.0028178987835428826
6449.713705181855,0.003187908550461733,0.0028205801960170256
6449.714704953777,0.003161332938118736,0.0028230442688624794
6449.7157047257,0.0031319713756760774,0.0028251840101033987
6449.716704497622,0.0031000308469797287,0.0028268940254946254
6449.717704269545,0.003065770265264405,0.0028280740776202686
6449.718704041468,0.003029498596297563,0.0028286327899741913
6449.719703813391,0.002991571460968967,0.002828491291477475
6449.7207035853135,0.002952386335341976,0.0028275866089301784
6449.721703357236,0.002912376554256403,0.002825874637715297
6449.722703129159,0.0028720043823994086,0.0028233325485679042
6449.723702901082,0.002831753433569845,0.0028199605286213314
6449.724702673005,0.0027921206914781134,0.0028157828105374177
6449.725702444927,0.0027536083241766476,0.00281084799265321
6449.72670221685,0.0027167154158691783,0.0028052286689709896
6449.727701988772,0.0026819296907026288,0.002799020368100169
6449.728701760695,0.0026497192745172514,0.002792339773685251
6449.7297015326185,0.002620524520869882,0.002785322206047266
6449.730701304541,0.0025947499284611738,0.002778118400880392
6449.731701076464,0.002572756224266883,0.0027708906984111746
6449.732700848386,0.0025548527728067104,0.0027638088162492427
6449.733700620309,0.0025412905511596525,0.002757045404587085
6449.734700392232,0.0025322559662055645,0.002750771577973372
6449.735700164155,0.0025278657882183467,0.002745152596555932
6449.7366999360775,0.00252816344957674,0.0027403438448191314
6449.737699708,0.0025331169126486153,0.0027364872316030836
6449.738699479923,0.0025426182483899553,0.0027337081048928965
6449.739699251846,0.002556484999901348,0.0027321127301548924
6449.740699023769,0.0025744633437483288,0.0027317863206755407
6449.741698795691,0.0025962329988237767,0.002732791543036351
6449.742698567614,0.002621413754867086,0.0027351673718049125
6449.743698339536,0.0026495734060097407,0.0027389281545023357
6449.744698111459,0.002680236804846021,0.0027440627731256774
6449.745697883383,0.002712895721876023,0.0027505338392319724
6449.746697655305,0.00274701920018954,0.002758276927219846
6449.747697427228,0.002782064111327969,0.0027671999288280194
6449.74869719915,0.002817485627720334,0.002777182678036715
6449.749696971073,0.002852747337059482,0.0027880770204769924
6449.750696742996,0.0028873307511438815,0.0027997074812193086
6449.751696514919,0.0029207440091687763,0.002811872638076158
6449.7526962868415,0.002952529633144454,0.002824347247764052
6449.753696058764,0.0029822712487377703,0.002836885104442106
6449.754695830687,0.003009599225987356,0.0028492225486115015
6449.75569560261,0.0030341952123234726,0.0028610825110964603
6449.756695374533,0.0030557955303355793,0.0028721789783158307
6449.757695146455,0.0030741934135771233,0.0028822217840448958
6449.758694918378,0.003089240071310081,0.0028909216510225725
6449.7596946903,0.0031008446072050442,0.0028979954235334397
6449.760694462223,0.0031089728570367218,0.0029031714523781137
6449.7616942341465,0.0031136452484132274,0.002906195100668243
6449.762694006069,0.0031149338158722507,0.0029068343160095216
6449.763693777992,0.003112958520492862,0.0029048851709821545
6449.764693549914,0.003107883026970883,0.0029001772348789296
6449.765693321837,0.0030999100949092306,0.0028925786216049067
6449.76669309376,0.0030892767445861134,0.0028820005592976824
6449.767692865683,0.0030762493437785495,0.0028684013310812974
6449.768692637605,0.003061118722896485,0.0028517894287814977
6449.769692409528,0.0030441953741930806,0.0028322257493494374
6449.770692181451,0.0030258047503822615,0.00280982467405271
6449.771691953374,0.0030062826663445966,0.0027847539136294933
6449.772691725297,0.002985970825761536,0.0027572330529530395
6449.773691497219,0.002965212520083559,0.0027275307570594313
6449.774691269142,0.0029443485481923356,0.0026959606109807992
6449.775691041064,0.0029237133693629683,0.0026628755946214227
6449.776690812987,0.002903631447761268,0.002628661276938702
6449.777690584911,0.002884413705335479,0.0025937279471780583
6449.778690356833,0.0028663539969306937,0.00255850203026061
6449.779690128756,0.002849725560957816,0.002523417199233466
6449.780689900678,0.0028347774602286383,0.0024889055882920726
6449.781689672601,0.002821731085105573,0.0024553894558341205
6449.782689444524,0.0028107768352361286,0.0024232735783607027
6449.783689216447,0.0028020711275152004,0.0023929385801430237
6449.784688988369,0.0027957338976087637,0.002364735317145777
6449.785688760292,0.002791846771010934,0.002338980340854943
6449.786688532215,0.0027904520724523255,0.002315952381670264
6449.787688304138,0.0027915528110675786,0.0022958897303422625
6449.788688076061,0.0027951137230524422,0.002278988377910112
6449.789687847983,0.0028010633814428013,0.0022654008034215943
6449.790687619906,0.0028092973013210663,0.0022552353510183693
6449.791687391828,0.002819681886014043,0.0022485561783689204
6449.792687163752,0.002832058984889162,0.0022453837701333626
6449.7936869356745,0.002846250774793633,0.0022456960057939276
6449.794686707597,0.0028620646486823735,0.0022494297707355672
6449.79568647952,0.0028792978123322504,0.0022564831041745666
6449.796686251442,0.0028977413491623337,0.002266717873435571
6449.797686023365,0.002917183585405483,0.0022799629411007095
6449.798685795288,0.0029374126516371482,0.0022960177522701204
6449.799685567211,0.0029582181953049444,0.0023146562303786424
6449.800685339133,0.0029793922570204444,0.0023356308523878695
6449.801685111056,0.003000729373921823,0.002358676778270767
6449.802684882979,0.003022026017324732,0.0023835159182062863
6449.803684654902,0.0030430795227827513,0.0024098608305487
6449.804684426825,0.003063686733202545,0.0024374183669089522
6449.805684198747,0.0030836426335193123,0.002465893017596468
6449.80668397067,0.0031027392822826684,0.0024949899504889484
6449.807683742592,0.0031207653260697317,0.002524417776945965
6449.808683514516,0.003137506324193168,0.0025538911141249846
6449.809683286439,0.0031527460297275708,0.0025831330205289466
6449.810683058361,0.0031662686753691186,0.002611877345659941
6449.811682830284,0.003177862207306015,0.002639870978939872
6449.812682602206,0.003187322325940681,0.002666875952829022
6449.813682374129,0.0031944571621693534,0.002692671370013634
6449.814682146052,0.003199092438979421,0.0027170551591353966
6449.815681917975,0.003201076997115992,0.002739845678525659
6449.816681689897,0.003200288564472434,0.002760883173663769
6449.81768146182,0.003196639625656806,0.0027800310747671214
6449.818681233743,0.00319008321911079,0.0027971771157260573
6449.819681005666,0.003180618453473557,0.0028122342580649616
6449.820680777589,0.0031682954850780105,0.0028251413930591705
6449.821680549511,0.0031532196498067666,0.002835863762665929
6449.822680321434,0.003135554429594431,0.002844393004887943
6449.823680093356,0.0031155229740490913,0.0028507467275065332
6449.82467986528,0.003093407970455995,0.0028549675614948805
6449.8256796372025,0.0030695497304290705,0.0028571217182180096
6449.826679409125,0.0030443424342755767,0.002857297132540469
6449.827679181048,0.00301822855753027,0.002855601292519265
6449.82867895297,0.002991691599570811,0.0028521588380023576
6449.829678724893,0.0029652473282262086,0.0028471089765041307
6449.830678496816,0.0029394338306703905,0.0028406027363720786
6449.831678268739,0.002914800707699518,0.0028328000632687686
6449.832678040661,0.002891897761325498,0.002823866764228872
6449.833677812584,0.0028712635119255035,0.0028139713079435896
6449.834677584507,0.002853413857461204,0.00280328149826413
6449.83567735643,0.0028388311629011487,0.0027919610557249476
6449.836677128353,0.002827954035616039,0.0027801661787226666
6449.837676900275,0.0028211679954632026,0.0027680422139296796
6449.838676672198,0.0028187971982290105,0.0027557206236796324
6449.83967644412,0.002821097335287054,0.0027433164576885776
6449.840676216044,0.0028282498125424952,0.0027309264990820117
6449.841675987967,0.002840357296849789,0.0027186281872821016
6449.842675759889,0.002857440699345074,0.0027064793637659877
6449.843675531812,0.0028794376406994387,0.0026945188466051006
6449.844675303734,0.002906202414911632,0.0026827677899871056
6449.845675075658,0.002937507441471648,0.0026712317152519805
6449.84667484758,0.0029730461768250364,0.0026599030349105856
6449.847674619503,0.0030124374427871544,0.0026487638617519677
6449.848674391425,0.0030552311131999826,0.0026377889093853065
6449.849674163348,0.0031009150786620527,0.0026269483324753615
6449.850673935271,0.003148923387807905,0.0026162104024541047
6449.851673707194,0.0031986454435619046,0.0026055439562550384
6449.852673479117,0.0032494361076715354,0.0025949205954878987
6449.853673251039,0.003300626526823455,0.002584316658319847
6449.854673022962,0.00335153543579076,0.00257371502672029
6449.855672794884,0.003401480639050869,0.0025631068419676426
6449.856672566808,0.0034497903610048323,0.002552493166488866
6449.8576723387305,0.0034958141960148084,0.002541886564179967
6449.858672110653,0.003538933443624666,0.0025313125035664134
6449.859671882576,0.0035785706384322516,0.0025208104449246246
6449.860671654498,0.0036141980788606536,0.0025104344693977535
6449.861671426422,0.0036453451601109244,0.002500253339214113
6449.862671198344,0.003671604349856729,0.002490349918757836
6449.863670970267,0.003692635703328286,0.0024808199215509484
6449.864670742189,0.003708169878154563,0.0024717699875618005
6449.865670514112,0.0037180096771102385,0.0024633151515052586
6449.866670286035,0.0037220302239432536,0.0024555758290299404
6449.867670057958,0.003720177946731341,0.0024486744987408425
6449.868669829881,0.0037124685742484145,0.002442732269783552
6449.869669601803,0.003698984338010791,0.0024378654949117006
6449.870669373726,0.003679870543276485,0.0024341825419826706
6449.871669145648,0.0036553316509144295,0.0024317808011007844
6449.872668917572,0.0036256269946215885,0.0024307439827741216
6449.873668689495,0.003591066229985622,0.002431139734714052
6449.874668461417,0.003552004578385167,0.0024330175650369417
6449.87566823334,0.0035088379089428688,0.0024364070350947893
6449.876668005262,0.0034619977005653584,0.002441316210568203
6449.877667777186,0.003411945928407393,0.002447730429650967
6449.878667549108,0.0033591699120615525,0.0024556115105908993
6449.879667321031,0.003304177147257851,0.002464897530141487
6449.880667092953,0.0032474901228169814,0.002475503260372463
6449.881666864876,0.0031896411030340114,0.002487321289318109
6449.882666636799,0.003131166843705288,0.0025002238029496284
6449.883666408722,0.003072603225244961,0.002514064980425715
6449.884666180645,0.0030144798334937094,0.0025286839410371734
6449.885665952567,0.0029573145772185906,0.0025439081682535835
6449.88666572449,0.002901608470945143,0.0025595573213412323
6449.887665496412,0.0028478407177316904,0.002575447325523246
6449.888665268336,0.002796464199743711,0.002591394600610369
6449.8896650402585,0.002747901434789995,0.002607220248113883
6449.890664812181,0.0027025410058111672,0.00262275398653102
6449.891664584104,0.002660734438238068,0.002637837623017459
6449.892664356026,0.002622793486659394,0.002652327882791724
6449.89366412795,0.0025889877895166596,0.00266609847912502
6449.894663899872,0.0025595428646198615,0.0026790413858104618
6449.895663671795,0.0025346384534060836,0.0026910673578907315
6449.896663443717,0.0025144072624380233,0.0027021058201695033
6449.89766321564,0.002498934175076991,0.00271210429250015
6449.898662987563,0.0024882560058980038,0.002721027541988083
6449.899662759486,0.002482361851832576,0.0027288566519319602
6449.900662531409,0.002481194069390913,0.002735588176070862
6449.901662303331,0.0024846498826608995,0.002741233490950509
6449.902662075254,0.0024925836022997713,0.002745818363406015
6449.903661847176,0.0025048094139586544,0.002749382639436831
6449.9046616191,0.002521104681353452,0.0027519798850772696
6449.905661391023,0.0025412137089801364,0.002753676808535641
6449.906661162945,0.002564851918294609,0.0027545523540011153
6449.907660934868,0.0025917103926174517,0.0027546964264336584
6449.90866070679,0.002621460722558322,0.002754208248365129
6449.909660478714,0.0026537600344122532,0.0027531943791217323
6449.910660250636,0.0026882560283297127,0.0027517664669940334
6449.911660022559,0.0027245918198271542,0.0027500388467381173
6449.912659794481,0.002762410388473158,0.002748126110771226
6449.913659566404,0.002801358493609289,0.002746140759933591
6449.914659338327,0.0028410900011527434,0.0027441909941526804
6449.91565911025,0.00288126864838097,0.002742378667058334
6449.916658882173,0.002921570328284013,0.002740797427176893
6449.917658654095,0.0029616849902791534,0.0027395310980108164
6449.918658426018,0.0030013182379292538,0.002738652376413948
6449.91965819794,0.003040192676759542,0.00273822191976394
6449.920657969864,0.003078049041976839,0.002738287842703865
6449.9216577417865,0.0031146471199317762,0.00273888557501634
6449.922657513709,0.003149766464330595,0.0027400379763018435
6449.923657285632,0.0031832068915865455,0.0027417555924791844
6449.924657057554,0.0032147887164999064,0.0027440369803394147
6449.925656829478,0.0032443526749863683,0.0027468690863592764
6449.9266566014,0.0032717595009974514,0.002750227704143327
6449.927656373323,0.003296889183031464,0.002754078042448695
6449.928656145245,0.0033196399914129453,0.002758375428471394
6449.929655917168,0.003339927407514127,0.0027630661637037496
6449.930655689092,0.003357683085233724,0.002768088548100402
6449.931655461014,0.0033728539334861403,0.0027733740849730294
6449.932655232937,0.003385401345469841,0.0027788488544522915
6449.933655004859,0.003395300556296423,0.002784434991230963
6449.934654776782,0.003402540114713263,0.002790052149301858
6449.935654548704,0.003407121490188826,0.0027956188206233485
6449.936654320628,0.0034090588583696986,0.00280105341011599
6449.937654092551,0.0034083790977547193,0.0028062750404590064
6449.938653864473,0.0034051220102841347,0.0028112041386772002
6449.939653636396,0.003399340768256911,0.0028157629171753225
6449.940653408318,0.003391102581564386,0.002819875890632329
6449.941653180242,0.0033804895582281867,0.0028234705626916925
6449.942652952164,0.0033675996994152854,0.002826478373875563
6449.943652724087,0.003352547938558673,0.0028288359397497854
6449.944652496009,0.0033354671126675454,0.0028304865561891625
6449.945652267932,0.0033165087541608368,0.0028313819258746625
6449.946652039856,0.0032958436208258843,0.002831484057189406
6449.947651811778,0.003273661925385077,0.0028307672785193084
6449.948651583701,0.003250173259343513,0.002829220278796185
6449.949651355623,0.0032256062200468356,0.0028268480332914055
6449.950651127546,0.0032002077498052596,0.0028236734374002628
6449.951650899468,0.0031742421755391846,0.002819738488781986
6449.952650671392,0.003147989888664292,0.0028151049241909895
6449.9536504433145,0.003121745547982766,0.0028098542826859242
6449.954650215237,0.0030958156662795667,0.002804087392462858
6449.95564998716,0.003070515474576702,0.002797923270119019
6449.956649759082,0.00304616502339296,0.0027914974136521897
6449.957649531006,0.0030230845509254204,0.0027849594912979737
6449.958649302928,0.00300158923026445,0.0027784704742993913
6449.959649074851,0.002981983509590969,0.0027721993118858105
6449.960648846773,0.002964555344918531,0.002766319293112205
6449.961648618696,0.0029495706436457963,0.0027610042854341083
6449.96264839062,0.0029372681846618247,0.0027564250688246208
6449.963648162542,0.002927855195825344,0.002752745971660897
6449.964647934465,0.002921503683685085,0.002750121961382261
6449.965647706387,0.0029183475303089152,0.0027486962748865125
6449.96664747831,0.002918480304489751,0.0027485986081214214
6449.967647250232,0.0029219536975083962,0.0027499438238844237
6449.968647022156,0.0029287764994004924,0.00275283108911939
6449.969646794079,0.002938914068149052,0.0027573433312036155
6449.970646566001,0.002952288280091468,0.002763546909284792
6449.971646337924,0.002968777961615804,0.0027714914216619845
6449.972646109846,0.0029882197960865897,0.0027812096006172796
6449.97364588177,0.0030104097030512612,0.002792717271498948
6449.974645653692,0.003035104718128131,0.002806013368107008
6449.975645425615,0.003062025451976148,0.0028210800046416986
6449.976645197537,0.003090859241060462,0.002837882614700927
6449.97764496946,0.00312126408953941,0.0028563701834882246
6449.978644741384,0.003152873440599939,0.0028764756093635473
6449.979644513306,0.003185301740823026,0.0028981162221224915
6449.980644285229,0.0032181507082404736,0.002921194463462971
6449.981644057151,0.0032510161883753746,0.002945598719914183
6449.982643829074,0.0032834954615180304,0.0029712042982181375
6449.983643600997,0.0033151948330293517,0.0029978745292788965
6449.98464337292,0.0033457372971801382,0.0030254619531876596
6449.9856431448425,0.0033747700180067563,0.003053809476540487
6449.986642916765,0.003401971326242787,0.0030827513428380313
6449.987642688688,0.003427056911794006,0.003112113759500209
6449.98864246061,0.0034497849183265654,0.0031417150911588333
6449.989642232534,0.003469959720162849,0.003171365632913817
6449.990642004456,0.003487434264402207,0.0032008670801970023
6449.991641776379,0.0035021109733618535,0.003230011885469495
6449.992641548301,0.0035139413028829505,0.003258582730117736
6449.993641320224,0.0035229241198727838,0.0032863523504360016
6449.994641092148,0.0035291030911416984,0.003313083940677859
6449.99564086407,0.00353256327636661,0.003338532304740506
6449.996640635993,0.0035334271005137137,0.003362445843630169
6449.997640407915,0.003531849841304266,0.0033845693755584867
6449.998640179838,0.0035280147063777036,0.003404647719227245
6449.99963995176,0.0035221275172853312,0.0034224299305011894
6450.000639723684,0.003514410996163246,0.003437674046258069
6450.001639495607,0.0035050986792832745,0.003450152146435588
6450.002639267529,0.003494428545081883,0.0034596555163105857
6450.003639039452,0.003482636511007594,0.003465999705014247
6450.004638811374,0.0034699499967398768,0.0034690293373900306
6450.005638583298,0.003456581766220871,0.0034686226111100508
6450.00663835522,0.0034427242585751134,0.003464695448465899
6450.007638127143,0.003428544607346939,0.003457205245382907
6450.008637899065,0.0034141805279198105,0.0034461540927784922
6450.009637670988,0.003399737217454175,0.0034315912907920314
6450.010637442912,0.003385285356016216,0.003413614969055004
6450.011637214834,0.0033708602323180735,0.0033923726615802995
6450.012636986757,0.0033564619685373864,0.0033680607406320917
6450.013636758679,0.003342056805734108,0.003340922673478259
6450.014636530602,0.003327579422364016,0.0033112461203139974
6450.015636302525,0.0033129362577885555,0.00327935893008244
6450.016636074448,0.003298009782223656,0.003245624104078785
6450.0176358463705,0.0032826636102383424,0.0032104337976621893
6450.018635618293,0.003266748318193185,0.0031742024510220453
6450.019635390216,0.003250107801318536,0.0031373591935860813
6450.020635162138,0.0032325859924086098,0.003100339725295612
6450.021634934062,0.0032140337619172106,0.003063577908381456
6450.022634705984,0.0031943158207865373,0.0030274973057256072
6450.023634477907,0.0031733174392093353,0.0029925029025170673
6450.024634249829,0.003150950772059922,0.0029589732631756377
6450.025634021752,0.0031271605541958033,0.0029272533898006257
6450.026633793676,0.0031019289146870005,0.0028976485300367303
6450.027633565598,0.003075279073777892,0.0028704191225427515
6450.028633337521,0.0030472777281112516,0.002845776989260373
6450.029633109443,0.0030180359811365254,0.002823882805331852
6450.030632881366,0.0029877087261734915,0.0028048448011868186
6450.031632653289,0.0029564924497322135,0.002788718580027738
6450.032632425212,0.002924621506813696,0.0027755078859266497
6450.033632197135,0.002892363019727518,0.0027651661509211344
6450.034631969057,0.00286001064073748,0.0027575986796900325
6450.03563174098,0.00282787748005553,0.002752665371984693
6450.036631512902,0.0027962885348542803,0.002750183914300935
6450.037631284826,0.0027655729626328723,0.002749933393137971
6450.038631056748,0.0027360565189499426,0.002751658300289314
6450.039630828671,0.002708054423562398,0.002755072913389644
6450.040630600593,0.002681864837739712,0.002759866038382644
6450.041630372516,0.0026577630501884585,0.0027657061026000623
6450.04263014444,0.0026359964081029957,0.0027722465912870886
6450.043629916362,0.002616780006445695,0.0027791318063601655
6450.044629688285,0.002600293148168536,0.0027860028727657135
6450.045629460207,0.0025866765857324716,0.0027925038414901107
6450.04662923213,0.0025760305404235414,0.0027982876882038767
6450.047629004053,0.0025684134814301894,0.0028030220212753383
6450.048628775976,0.002563841646603614,0.0028063943879679037
6450.0496285478985,0.0025622893050004296,0.0028081171586499354
6450.050628319821,0.002563689784677271,0.002807932024051713
6450.051628091744,0.0025679372955806513,0.0028056141396219365
6450.052627863666,0.0025748895564331542,0.0028009759174310858
6450.05362763559,0.002584371200571967,0.0027938704393258925
6450.054627407512,0.0025961779103134378,0.0027841944585721167
6450.055627179435,0.0026100812159023344,0.0027718909486585713
6450.056626951357,0.0026258338778250476,0.0027569511220379784
6450.05762672328,0.0026431757337630896,0.002739415784383255
6450.058626495204,0.002661839832114631,0.002719375846565649
6450.059626267126,0.0026815586114881072,0.0026969718180109713
6450.060626039049,0.0027020698479364707,0.0026723921482605835
6450.061625810971,0.0027231220943117144,0.002645870339689987
6450.062625582894,0.0027444793755734957,0.002617680805961901
6450.063625354817,0.0027659249703026042,0.0025881335066199615
6450.06462512674,0.0027872641872974625,0.0025575674616025593
6450.065624898663,0.002808326117103667,0.0025263433349453973
6450.066624670585,0.0028289643963252966,0.0024948353509131604
6450.067624442508,0.00284905708153957,0.0024634228461516854
6450.068624214431,0.0028685057933521287,0.0024324817648278176
6450.069623986354,0.0028872343382361654,0.0024023763844871664
6450.070623758276,0.0029051870226428898,0.002373451535523996
6450.071623530199,0.0029223268409552332,0.0023460255526572466
6450.072623302121,0.0029386336721242386,0.0023203841658897824
6450.073623074044,0.0029541025846145344,0.002296775491242113
6450.074622845968,0.0029687423232568795,0.0022754062182641405
6450.07562261789,0.0029825740135316376,0.002256439026978049
6450.076622389813,0.0029956300616488557,0.0022399912198047094
6450.077622161735,0.00300795316916874,0.0022261345290546532
6450.078621933658,0.003019595338781055,0.0022148960452023376
6450.079621705581,0.003030616732406123,0.0022062601873264753
6450.080621477504,0.0030410842591049817,0.0022001715978537707
6450.0816212494265,0.003051069824506784,0.0021965387985747437
6450.082621021349,0.0030606482586376933,0.002195238408751043
6450.083620793272,0.0030698950244010203,0.0021961197035340026
6450.084620565195,0.0030788838607793477,0.002199009272193708
6450.085620337118,0.0030876845247413695,0.002203715516166213
6450.08662010904,0.0030963607762281215,0.002210032728749578
6450.087619880963,0.003104968714237538,0.002217744556678203
6450.088619652885,0.003113555530688115,0.0022266267651929418
6450.089619424808,0.003122158715605045,0.0022364493709016867
6450.090619196732,0.0031308057238239977,0.002246978312254429
6450.091618968654,0.0031395140868326044,0.002257976869200255
6450.092618740577,0.0031482919169854027,0.0022692070372287245
6450.093618512499,0.00315713871673479,0.002280431033763958
6450.094618284422,0.003166046386988439,0.002291413078302738
6450.095618056345,0.003175000328997223,0.002301921537120046
6450.096617828268,0.0031839805505200617,0.002311731454647755
6450.097617600191,0.0031929627172704424,0.002320627420117516
6450.098617372113,0.0032019191263226564,0.002328406668030878
6450.099617144036,0.003210819604790995,0.00233488230262678
6450.100616915959,0.0032196323503642715,0.0023398865592201934
6450.101616687882,0.0032283247372831784,0.0023432740412441793
6450.102616459804,0.00323686411013312,0.002344924881469351
6450.103616231727,0.0032452185657651004,0.002344747767890236
6450.104616003649,0.0032533576837926255,0.0023426827589782466
6450.105615775572,0.0032612531349462404,0.0023387038023438725
6450.106615547496,0.003268879096755231,0.002332820872059959
6450.107615319418,0.0032762124333856678,0.0023250816449609238
6450.108615091341,0.0032832326261626856,0.002315572633673838
6450.109614863263,0.0032899214497774474,0.0023044196882345243
6450.110614635186,0.0032962623729393715,0.002291787780574766
6450.111614407109,0.0033022396418153797,0.0022778799939122407
6450.112614179032,0.003307837011461884,0.002262935639495611
6450.1136139509545,0.0033130361435149513,0.002247227415564822
6450.114613722877,0.0033178147738652463,0.002231057523704879
6450.1156134948,0.003322144831163035,0.002214752689157738
6450.116613266723,0.003325990721441557,0.002198658109316051
6450.117613038646,0.003329307981846624,0.002183130467292351
6450.118612810568,0.0033320424633834704,0.0021685302586278037
6450.119612582491,0.003334130144875146,0.002155213752630255
6450.120612354413,0.003335497621046883,0.002143524930949354
6450.121612126336,0.0033360632567712716,0.0021337877248148234
6450.12261189826,0.003335738956954455,0.0021262988307886974
6450.123611670182,0.0033344324634245583,0.0021213213389851657
6450.124611442105,0.0033320500627390644,0.0021190793613478543
6450.125611214027,0.0033284995814289093,0.0021197537983720987
6450.12661098595,0.0033236935544130237,0.002123479330978898
6450.127610757873,0.00331755246182124,0.002130342677538871
6450.128610529796,0.003310007921753081,0.0021403821202410577
6450.129610301719,0.0033010057015206594,0.002153588273024641
6450.130610073641,0.0032905083938275766,0.0021699060214582194
6450.131609845564,0.003278497623062815,0.0021892375093051555
6450.132609617487,0.0032649756961516015,0.0022114459884603056
6450.13360938941,0.003249966670170943,0.0022363603092298966
6450.134609161332,0.0032335168621716796,0.0022637798228950417
6450.135608933255,0.0032156948692939253,0.002293479495163671
6450.136608705177,0.003196591186642494,0.0023252150675136894
6450.1376084771,0.0031763174924125965,0.0023587281354831824
6450.138608249024,0.003155005617950869,0.0023937510329605067
6450.139608020946,0.003132806163272979,0.002430011423367013
6450.140607792869,0.0031098866910628125,0.002467236511857752
6450.141607564791,0.003086429449924265,0.0025051568169132407
6450.142607336714,0.0030626286297190126,0.0025435094777881257
6450.143607108637,0.003038687213183494,0.0025820411195228705
6450.14460688056,0.0030148135376687406,0.0026205103338773246
6450.1456066524825,0.002991217711454768,0.0026586898457313687
6450.146606424405,0.0029681080386853454,0.002696368418546633
6450.147606196328,0.002945687588544166,0.0027333525257697364
6450.148605968251,0.0029241509961823032,0.0027694677909419754
6450.149605740174,0.0029036815268586595,0.0028045601769141025
6450.150605512096,0.002884448407454754,0.0028384968884349483
6450.151605284019,0.002866604447212068,0.0028711669617647903
6450.152605055941,0.002850284010369993,0.0029024815541474937
6450.153604827865,0.0028356014303816002,0.0029323739822333665
6450.154604599788,0.0028226499457026924,0.002960799551758767
6450.15560437171,0.002811501191817896,0.0029877351664191597
6450.156604143633,0.0028022052270279597,0.0030131786357287626
6450.157603915555,0.002794791032914096,0.0030371475642790883
6450.158603687478,0.002789267427961555,0.003059677725143171
6450.159603459401,0.002785624349519049,0.0030808208871858822
6450.160603231324,0.0027838344709362256,0.003100642135189325
6450.161603003247,0.0027838551147027434,0.003119216751091852
6450.162602775169,0.002785630401731514,0.003136626709121954
6450.163602547092,0.0027890935570390003,0.0031529568109479682
6450.164602319015,0.00279416928853451,0.0031682904919891628
6450.165602090938,0.0028007761660069092,0.0031827053788482775
6450.16660186286,0.002808828934584089,0.0031962687444068954
6450.167601634783,0.002818240691750769,0.0032090330634208745
6450.168601406705,0.002828924846080109,0.0032210319149244904
6450.169601178629,0.002840796771297107,0.003232276511467153
6450.170600950552,0.002853775078375597,0.0032427531399578454
6450.171600722474,0.0028677824486030433,0.0032524217514942597
6450.172600494397,0.00288274599450382,0.0032612158475544737
6450.173600266319,0.002898597140712494,0.003269043711022368
6450.174600038242,0.002915271045460436,0.003275790942841491
6450.175599810165,0.002932705615535276,0.0032813241890056037
6450.176599582088,0.0029508402006877864,0.0032854958800201364
6450.17759935401,0.0029696140804523095,0.00328814976266352
6450.178599125933,0.0029889648678884384,0.0032891269780911583
6450.179598897856,0.00300882695217628,0.0032882724197106513
6450.180598669779,0.0030291300977292757,0.003285441090420083
6450.181598441702,0.0030497983136964636,0.0032805041861540493
6450.182598213624,0.0030707490919838288,0.003273354665974976
6450.183597985547,0.00309189308057374,0.0032639121147262033
6450.184597757469,0.0031131342245479055,0.003252126744887367
6450.185597529393,0.003134370380052053,0.003237982411194118
6450.186597301316,0.0031554943847339986,0.0032214985263364377
6450.187597073238,0.0031763955433782975,0.0032027307795902296
6450.188596845161,0.0031969614505495637,0.003181770594121777
6450.189596617083,0.0032170800267173247,0.0031587433311486167
6450.190596389006,0.003236641614351755,0.0031338053485052446
6450.191596160929,0.0032555409862746946,0.0031071401064621954
6450.192595932852,0.0032736791489931644,0.003078953554172911
6450.193595704774,0.00329096484966126,0.0030494690346256517
6450.194595476697,0.0033073157081167795,0.003018921941455903
6450.19559524862,0.0033226589145298265,0.0029875543528289808
6450.196595020543,0.0033369314717633914,0.0029556098412413653
6450.197594792466,0.0033500800014113373,0.00292332861692583
6450.198594564388,0.003362060149130519,0.0028909431338526898
6450.199594336311,0.0033728356276190503,0.0028586742827069354
6450.200594108233,0.0033823769572622234,0.002826728292157546
6450.201593880157,0.003390660011189157,0.002795294430591206
6450.20259365208,0.0033976645098021106,0.0027645435443220817
6450.203593424002,0.003403372612915358,0.0027346274092928434
6450.204593195925,0.003407767738215384,0.0027056788318213475
6450.205592967847,0.003410833715780037,0.002677812405152556
6450.206592739771,0.003412554367268884,0.0026511257948818663
6450.207592511693,0.003412913564716328,0.0026257013821411467
6450.208592283616,0.003411895789476099,0.0026016080504340463
6450.209592055538,0.003409487196033046,0.0025789028829933305
6450.210591827461,0.003405677181290468,0.002557632567376469
6450.211591599384,0.0034004604345713417,0.0025378343876090326
6450.212591371307,0.0033938393760376442,0.0025195367921497787
6450.21359114323,0.0033858268066838827,0.0025027596170839783
6450.214590915152,0.003376448542143449,0.002487514097665604
6450.215590687075,0.0033657458071883867,0.002473802819150963
6450.216590458997,0.0033537772079926943,0.0024616197473247346
6450.217590230921,0.003340620143474516,0.002450950448198002
6450.218590002844,0.003326371545871228,0.002441772562846094
6450.219589774766,0.003311147858802512,0.002434056552854469
6450.220589546689,0.0032950841972402447,0.002427766682073483
6450.221589318611,0.003278332710470093,0.002422862163771537
6450.222589090535,0.0032610602716829614,0.0024192983869056345
6450.223588862457,0.0032434457048791544,0.002417028136460221
6450.22458863438,0.00322567679846091,0.0024160027277623486
6450.225588406302,0.0032079473412769083,0.0024161729745967113
6450.226588178225,0.0031904543661095807,0.0024174899085722015
6450.227587950148,0.003173395712277956,0.00241990517048092
6450.228587722071,0.003156967934560385,0.0024233710069305465
6450.229587493994,0.0031413645054801593,0.0024278398296867384
6450.230587265916,0.0031267741982753975,0.002433263334902746
6450.231587037839,0.003113379508784925,0.0024395912307753394
6450.232586809761,0.003101354983373928,0.002446769672944172
6450.233586581685,0.003090865368565316,0.0024547395491932925
6450.234586353608,0.0030820635678228386,0.0024634347853041637
6450.23558612553,0.003075088449203156,0.0024727808568074674
6450.236585897453,0.0030700625754855235,0.0024826936856160034
6450.237585669375,0.0030670899292879676,0.002493079083888261
6450.238585441299,0.0030662536921231974,0.0025038328842072423
6450.239585213221,0.0030676141265506274,0.00251484185687688
6450.240584985144,0.003071206624299604,0.0025259854563714117
6450.241584757066,0.0030770400214707497,0.0025371383713917272
6450.242584528989,0.003085095319125653,0.002548173789686014
6450.243584300912,0.003095324955141887,0.0025589672252812837
6450.244584072835,0.0031076527437730855,0.0025694006827936215
6450.245583844758,0.0031219745438227503,0.002579366866007346
6450.24658361668,0.00313815964931421,0.002588773117167836
6450.247583388603,0.0031560528322318354,0.0025975448271644457
6450.248583160525,0.003175476917762003,0.002605628161775895
6450.249582932449,0.0031962357397668666,0.002612992050466727
6450.250582704372,0.0032181172965790933,0.0026196294477017004
6450.251582476294,0.0032408969007198,0.0026255579060609647
6450.252582248217,0.003264340109812867,0.0026308195130818816
6450.253582020139,0.003288205263196306,0.0026354802505052996
6450.254581792063,0.0033122455303526473,0.0026396288375123743
6450.255581563985,0.0033362104814529813,0.0026433751172104734
6450.256581335908,0.0033598472866621766,0.002646848039106647
6450.25758110783,0.003382901710199584,0.0026501932859563735
6450.258580879753,0.0034051190736495364,0.0026535705998725133
6450.259580651676,0.0034262453349528355,0.002657150879917625
6450.260580423599,0.0034460283942548005,0.002661113136625983
6450.261580195522,0.0034642197135045833,0.0026656413838512215
6450.262579967444,0.003480576323350987,0.0026709215271998343
6450.263579739367,0.0034948632751251978,0.0026771382814458704
6450.264579511289,0.0035068565565419293,0.002684472127865367
6450.265579283213,0.0035163464196547385,0.0026930963193463153
6450.266579055136,0.0035231409917157418,0.0027031739588366617
6450.267578827058,0.0035270699857210086,0.002714855199130002
6450.268578598981,0.003527988305966061,0.0027282746210160794
6450.269578370903,0.0035257793451602777,0.0027435488364438766
6450.270578142827,0.0035203577898970605,0.002760774339138877
6450.271577914749,0.0035116717942762104,0.00278002560124851
6450.272577686672,0.003499704440737839,0.002801353402129044
6450.273577458594,0.0034844744615040333,0.002824783368218713
6450.274577230517,0.0034660362297185485,0.0028503146896363533
6450.27557700244,0.0034444790594400426,0.0028779189642996316
6450.276576774363,0.0034199258944462613,0.00290753911444441
6450.277576546286,0.003392531502344164,0.0029390883209319285
6450.278576318208,0.003362480296879149,0.0029724489276562395
6450.279576090131,0.003329983896766914,0.0030074713015495356
6450.280575862053,0.003295278526797604,0.0030439727068891165
6450.281575633977,0.0032586223823433424,0.003081736342789843
6450.2825754059,0.0032202930810331207,0.00312051075476214
6450.283575177822,0.003180585285641175,0.003160009834478689
6450.284574949745,0.0031398085019633103,0.0031999135716538835
6450.285574721667,0.0030982849656554026,0.0032398696604180586
6450.286574493591,0.00305634747157584,0.0032794960401218284
6450.287574265513,0.0030143369918757133,0.0033183844742957964
6450.288574037436,0.002972599971631641,0.0033561052942421
6450.289573809358,0.0029314852562784565,0.0033922134063724975
6450.290573581281,0.0028913406591008837,0.0034262555776804885
6450.2915733532045,0.0028525092017685993,0.003457778892192154
6450.292573125127,0.0028153250674398883,0.003486340134781119
6450.29357289705,0.0027801093167323754,0.0035115157320739156
6450.294572668972,0.002747165436673144,0.003532911797182659
6450.295572440895,0.0027167748054534617,0.0035501738113708
6450.296572212817,0.00268919215101739,0.0035629955263660282
6450.297571984741,0.0026646410733336266,0.0035711267583619912
6450.298571756664,0.002643309709595381,0.0035743798442608365
6450.299571528586,0.0026253466492621638,0.003572634623646036
6450.300571300509,0.0026108572352697163,0.0035658418774927917
6450.301571072431,0.002599900409533872,0.003554025189536216
6450.302570844355,0.002592486282089194,0.0035372812116179052
6450.303570616277,0.0025885746276382744,0.003515778333214761
6450.3045703882,0.0025880745217734223,0.0034897537957769543
6450.305570160122,0.0025908452938144034,0.0034595093580614173
6450.306569932045,0.002596698888571542,0.003425405695438554
6450.3075697039685,0.002605403618702268,0.0033878557765114337
6450.308569475891,0.0026166891866094273,0.0033473174758538505
6450.309569247814,0.002630252786325413,0.0033042856474581974
6450.310569019736,0.0026457660699511646,0.0032592838330222362
6450.311568791659,0.002662882767368458,0.003212855756489147
6450.312568563581,0.002681246758683494,0.0031655567670385424
6450.313568335505,0.0027005004043048207,0.003117945403317618
6450.314568107428,0.0027202929449084397,0.0030705752406891885
6450.31556787935,0.002740288795558112,0.003023987162741127
6450.316567651273,0.0027601755572165348,0.0029787021783615965
6450.317567423195,0.0027796715404836275,0.002935214877752693
6450.318567195119,0.002798532554930753,0.002893987581061339
6450.319566967041,0.002816557695580957,0.0028554451891111637
6450.320566738964,0.0028335938832862607,0.0028199707016122615
6450.321566510886,0.0028495389910468774,0.0027879013307538334
6450.322566282809,0.0028643434829572845,0.0027595251247156042
6450.3235660547325,0.0028780105642425046,0.0027350780384819413
6450.324565826655,0.002890594874711462,0.002714741433103591
6450.325565598578,0.0029021997696723496,0.0026986400178318107
6450.3265653705,0.002912973243518641,0.0026868402606452253
6450.327565142423,0.0029231025752824904,0.0026793492975012213
6450.328564914345,0.0029328078155292556,0.002676114384159115
6450.329564686269,0.002942334281017272,0.0026770229542278172
6450.330564458192,0.002951944260332216,0.0026819033633985836
6450.331564230114,0.0029619081472173777,0.0026905264042124807
6450.332564002037,0.002972495211397228,0.0027026076640055126
6450.333563773959,0.002983964203876801,0.0027178107739453438
6450.334563545883,0.002996553987516543,0.002735751565184969
6450.335563317805,0.003010474390773623,0.002756003111600738
6450.336563089728,0.003025897506144755,0.002778101600167429
6450.33756286165,0.0030429496939988966,0.0028015529377484276
6450.338562633573,0.0030617045992864054,0.00282583998257118
6450.3395624054965,0.0030821775228205795,0.002850430272520439
6450.340562177419,0.0031043214796708687,0.0028747841007363936
6450.341561949342,0.0031280252082898493,0.00289836277180278
6450.342561721264,0.003153113284994831,0.0029206368803898165
6450.343561493187,0.0031793483868457137,0.0029410944859613306
6450.34456126511,0.003206435650270223,0.0029592490808394594
6450.345561037033,0.0032340289839204455,0.002974647242896939
6450.346560808956,0.003261739097877823,0.0029868758415230907
6450.347560580878,0.003289142907728366,0.002995568656621226
6450.348560352801,0.003315793879154986,0.0030004122920519027
6450.349560124723,0.0033412328297934128,0.0030011513062022984
6450.350559896647,0.0033649987372324688,0.002997592516083668
6450.351559668569,0.003386639222123533,0.002989608442555421
6450.352559440492,0.0034057205339698,0.0029771398614561397
6450.353559212414,0.0034218369861786307,0.002960197421128876
6450.354558984337,0.00343461981888902,0.0029388622811733892
6450.3555587562605,0.003443745423294806,0.002913285717385625
6450.356558528183,0.003448942785927525,0.0028836876325540554
6450.357558300106,0.003449999948070556,0.0028503539282043805
6450.358558072028,0.003446769241498177,0.002813632734366043
6450.359557843951,0.0034391710585029048,0.00277392955047985
6450.360557615873,0.003427195945265233,0.0027317013991224205
6450.361557387797,0.0034109048812059712,0.002687450117119097
6450.36255715972,0.003390427723411456,0.0026417148979520646
6450.363556931642,0.003365959935339056,0.0025950641655740183
6450.364556703565,0.00333775784718431,0.0025480868348684224
6450.365556475487,0.003306132777743846,0.0025013830293843698
6450.366556247411,0.0032714443684240145,0.0024555543794360195
6450.367556019333,0.003234093443661601,0.002411194080184116
6450.368555791256,0.0031945146395525995,0.0023688769275483287
6450.369555563178,0.00315316896454936,0.002329149570914921
6450.370555335101,0.003110536395432432,0.0022925212256184628
6450.3715551070245,0.0030671085688185862,0.002259455067205063
6450.372554878947,0.003023381593007895,0.0022303604891308853
6450.37355465087,0.0029798489799852516,0.0022055863690086
6450.374554422792,0.002936994695666718,0.002185415472421495
6450.375554194715,0.002895286343814927,0.0021700601208887
6450.376553966638,0.0028551685147135053,0.0021596592399786203
6450.377553738561,0.002817056338311073,0.0021542768667601954
6450.378553510484,0.0027813292955190506,0.002153902134271512
6450.379553282406,0.0027483253591095713,0.0021584506888508628
6450.380553054329,0.0027183355432594397,0.0021677674584639106
6450.381552826251,0.002691598944480482,0.002181630670702171
6450.382552598175,0.0026682983756048514,0.002199756991215525
6450.383552370097,0.0026485567227061383,0.002221807613346633
6450.38455214202,0.002632434165575714,0.002247395107208706
6450.385551913942,0.00261992638713542,0.0022760908523821854
6450.386551685865,0.0026109638729306154,0.002307432919749265
6450.3875514577885,0.002605412385970147,0.002340934312614816
6450.388551229711,0.002603074698857535,0.0023760915149331004
6450.389551001634,0.0026036936645339377,0.0024123933143297585
6450.390550773556,0.0026069566858914553,0.0024493298556675608
6450.391550545479,0.002612501583784834,0.0024864018374619757
6450.392550317402,0.0026199237719301046,0.002523129701226143
6450.393550089325,0.0026287845610688068,0.0025590625926478244
6450.394549861248,0.0026386203643786422,0.002593786806854884
6450.39554963317,0.002648952565084188,0.0026269333948796625
6450.396549405093,0.0026592978182042775,0.002658184622616818
6450.397549177015,0.0026691785722063317,0.002687279021372343
6450.398548948939,0.0026781336005148614,0.00271401482369801
6450.399548720861,0.0026857283212399193,0.0027382516363025503
6450.400548492784,0.0026915646589010618,0.0027599102714894
6450.401548264706,0.0026952901777521467,0.0027789707299018442
6450.402548036629,0.0026966062110803353,0.0027954683825167524
6450.4035478085525,0.0026952747361914846,0.002809488444432872
6450.404547580475,0.002691123795560559,0.0028211588973234706
6450.405547352398,0.002684051321537239,0.0028306421178976955
6450.40654712432,0.0026740272680109696,0.0028381255787871137
6450.407546896243,0.0026610939889176676,0.002843812059833298
6450.408546668166,0.0026453648463440576,0.002847909824798436
6450.409546440089,0.002627021087022635,0.0028506231974790045
6450.410546212012,0.002606307080405425,0.0028521439318625573
6450.411545983934,0.0025835240490561604,0.0028526437213995375
6450.412545755857,0.0025590224517403957,0.002852268133716094
6450.413545527779,0.0025331932211859693,0.002851132186792817
6450.414545299703,0.0025064581113282192,0.0028493176980144337
6450.415545071625,0.0024792594506334517,0.00284687244451898
6450.416544843548,0.0024520496143836043,0.0028438110871851097
6450.41754461547,0.002425280530506587,0.0028401177388799447
6450.418544387393,0.0023993935378494534,0.0028357499903819082
6450.4195441593165,0.002374809917408846,0.0028306441344542136
6450.420543931239,0.0023519223936370923,0.002824721259660171
6450.421543703162,0.0023310878476421235,0.0028178938459422183
6450.422543475084,0.0023126214161485223,0.0028100725016550364
6450.423543247007,0.0022967920929709085,0.002801172532981599
6450.42454301893,0.002283819909789838,0.0027911201096881837
6450.425542790853,0.0022738747379409934,0.0027798578547189308
6450.426542562776,0.0022670767045846374,0.0027673497132051725
6450.427542334698,0.0022634981473798,0.00275358495479021
6450.428542106621,0.002263166951201134,0.0027385811730675975
6450.429541878544,0.002266071035638032,0.002722386201217381
6450.430541650467,0.002272163705905756,0.002705078950738111
6450.431541422389,0.002281369549930888,0.0026867692570152566
6450.432541194312,0.002293590565465469,0.0026675968509649413
6450.433540966234,0.002308712232412201,0.002647729573612798
6450.434540738157,0.002326609295888644,0.0026273609340748127
6450.4355405100805,0.002347151075610727,0.0026067071003587016
6450.436540282003,0.0023702061534956946,0.002586003413192451
6450.437540053926,0.0023956463154180957,0.0025655005261446965
6450.438539825848,0.0024233496429557893,0.0025454602958884043
6450.439539597771,0.00245320267465274,0.0025261515623798444
6450.440539369694,0.0024851015936740157,0.0025078459569109006
6450.441539141617,0.0025189524516707144,0.0024908138503461907
6450.44253891354,0.0025546704877417665,0.0024753205075651323
6450.443538685462,0.00259217862401065,0.0024616224586331776
6450.444538457385,0.0026314052213910347,0.0024499640471533817
6450.445538229308,0.0026722811859546,0.0024405740844583358
6450.446538001231,0.0027147365378366295,0.0024336625357707807
6450.447537773153,0.0027586965841585394,0.0024294171952898487
6450.448537545076,0.0028040778733650434,0.002428000356484877
6450.449537316998,0.0028507841481367467,0.0024295455226172823
6450.450537088921,0.0028987025415571927,0.002434154214433657
6450.4515368608445,0.0029477002632212405,0.0024418929268022025
6450.452536632767,0.0029976220027952915,0.002452790284303057
6450.45353640469,0.0030482882476555702,0.0024668344626273364
6450.454536176612,0.0030994946688025784,0.002483970980476651
6450.455535948535,0.0031510126682610788,0.0025041010113318694
6450.456535720458,0.003202591098040617,0.002527080395620233
6450.457535492381,0.0032539590645565574,0.0025527195412850495
6450.458535264304,0.003304829647681238,0.0025807843838673307
6450.459535036226,0.003354904318822576,0.0026109985351837964
6450.460534808149,0.0034038778434907074,0.0026430466844789336
6450.461534580072,0.003451443469786061,0.0026765792407751347
6450.462534351995,0.003497298196792042,0.0027112181398301306
6450.463534123917,0.0035411478858435675,0.002746563692709572
6450.46453389584,0.003582711963766615,0.00278220231610282
6450.465533667762,0.0036217275072393204,0.00281771494362099
6450.466533439685,0.003657952584313273,0.002852685872495602
6450.4675332116085,0.0036911688163837417,0.0028867117642023734
6450.468532983531,0.003721183167688877,0.0029194105018883637
6450.469532755454,0.0037478289695465536,0.002950429613050752
6450.470532527376,0.0037709661833848426,0.0029794539896987908
6450.471532299299,0.0037904809331315305,0.003006212681026714
6450.472532071222,0.003806284389620252,0.0030304845911353594
6450.473531843145,0.003818311150030613,0.003052102972253317
6450.474531615068,0.0038265173142228268,0.0030709586570359
6450.47553138699,0.003830878500363729,0.0030870020295425214
6450.476531158913,0.00383138803932826,0.00310024378499228
6450.477530930836,0.0038280555355644456,0.003110754545593422
6450.478530702759,0.003820905906435592,0.0031186633741202767
6450.479530474681,0.003809978942695794,0.0031241551818242982
6450.480530246604,0.0037953293805596043,0.0031274669905669394
6450.481530018526,0.003777027436766101,0.0031288829932945325
6450.482529790449,0.0037551597277208732,0.003128728372101254
6450.4835295623725,0.0037298304712584454,0.003127361891656983
6450.484529334295,0.003701162856748184,0.0031251673795853275
6450.485529106218,0.0036693004658203358,0.0031225442997447053
6450.48652887814,0.0036344086211713535,0.0031198976897165434
6450.487528650063,0.0035966755233001117,0.003117627767212121
6450.488528421986,0.003556313012076651,0.0031161195232391804
6450.489528193909,0.0035135567856243895,0.0031157326216108214
6450.490527965832,0.0034686659421585926,0.0031167919148830745
6450.491527737754,0.003421921779728474,0.003119578861750142
6450.492527509677,0.0033736258721765383,0.003124324093391266
6450.4935272816,0.003324097508712761,0.0031312013396337913
6450.494527053523,0.003273670621539486,0.0031403228960969532
6450.495526825445,0.0032226903296803245,0.0031517367754945306
6450.496526597368,0.003171509207408061,0.0031654256210741595
6450.49752636929,0.0031204833544673785,0.0031813073735354885
6450.498526141213,0.0030699683165178126,0.0031992376029606087
6450.4995259131365,0.0030203148979340596,0.003219013366561601
6450.500525685059,0.002971864938414834,0.0032403784324888615
6450.501525456982,0.0029249471755925668,0.003263029707567317
6450.502525228904,0.002879873353392455,0.003286624706694428
6450.503525000827,0.0028369347328487003,0.0033107898875394336
6450.50452477275,0.0027963991131690637,0.0033351296387266888
6450.505524544673,0.0027585083901509426,0.00335923566315257
6450.506524316596,0.0027234765957712083,0.0033826964614042192
6450.507524088518,0.002691488315362015,0.0034051066077501616
6450.508523860441,0.002662697393587136,0.003426075524084448
6450.509523632364,0.0026372259041822052,0.0034452354907204574
6450.510523404287,0.0026151634230530416,0.0034622486827176643
6450.511523176209,0.0025965666686467563,0.003476813082344059
6450.512522948132,0.002581459551240788,0.0034886671845517927
6450.513522720054,0.002569833621454615,0.003497593471120914
6450.514522491978,0.002561648850951429,0.0035034206723506267
6450.5155222639005,0.0025568346383648467,0.0035060248652927445
6450.516522035823,0.002555290926582914,0.0035053294819310673
6450.517521807746,0.0025568893412317743,0.0035013043210168357
6450.518521579668,0.002561474302069415,0.003493963666810167
6450.519521351591,0.002568864112013711,0.003483363613184649
6450.520521123514,0.002578852087606076,0.0034695986857979704
6450.521520895437,0.002591207844176515,0.003452797869003441
6450.52252066736,0.0026056788675791766,0.0034331201772459775
6450.523520439282,0.002621992483941392,0.0034107499371809962
6450.524520211205,0.002639858289276107,0.003385891944300276
6450.525519983128,0.002658971038036656,0.003358766625557475
6450.526519755051,0.0026790139336015355,0.0033296052941856305
6450.527519526973,0.0026996622412166302,0.003298645551124612
6450.528519298896,0.0027205871678925506,0.0032661268877114216
6450.529519070818,0.002741459999709037,0.0032322865650875983
6450.530518842742,0.002761956514925283,0.003197355854508008
6450.5315186146645,0.0027817616873318405,0.0031615566994090648
6450.532518386587,0.002800574670557089,0.003125098814852222
6450.53351815851,0.0028181140165661105,0.0030881772053913477
6450.534517930432,0.002834123026470612,0.0030509700878943746
6450.535517702355,0.0028483750698533187,0.003013637243664997
6450.536517474278,0.0028606786657202157,0.002976318851992998
6450.537517246201,0.0028708821084693407,0.0029391348470781146
6450.538517018124,0.0028788774415553797,0.002902184805290096
6450.539516790046,0.002884603619424994,0.0028655483389013097
6450.540516561969,0.002888048740960437,0.0028292859623445885
6450.541516333892,0.002889251262911983,0.0027934404059388146
6450.542516105815,0.002888300093994905,0.0027580383641637512
6450.543515877737,0.0028853334451690643,0.0027230926642508382
6450.54451564966,0.0028805363093620355,0.002688604822710898
6450.545515421582,0.002874136490657745,0.0026545679309789155
6450.546515193506,0.0028663991888162738,0.0026209697823873297
6450.5475149654285,0.0028576202424083585,0.0025877961196682183
6450.548514737351,0.0028481182259590264,0.0025550338511359173
6450.549514509274,0.0028382256792075997,0.0025226740732856917
6450.550514281196,0.002828279809564708,0.002490714756373564
6450.551514053119,0.0028186130325129786,0.002459162983169726
6450.552513825042,0.0028095436948279966,0.002428036663291846
6450.553513596965,0.0028013672864619283,0.0023973656755064683
6450.554513368888,0.0027943484213647156,0.002367192422255603
6450.55551314081,0.002788713868649805,0.0023375718140864815
6450.556512912733,0.002784646925165042,0.002308570734834077
6450.557512684656,0.0027822834011207625,0.0022802670654286407
6450.558512456579,0.0027817094186025097,0.002252748354471264
6450.559512228501,0.0027829611089733026,0.0022261102172185803
6450.560512000424,0.002786026166317556,0.0022004545377354015
6450.561511772346,0.002790847091842928,0.0021758875534022798
6450.56251154427,0.0027973258622340904,0.002152517907435781
6450.5635113161925,0.002805329679836944,0.002130454747303257
6450.564511088115,0.002814697413264794,0.002109805923562826
6450.565510860038,0.002825246314756024,0.0020906763175655377
6450.56651063196,0.002836778616798155,0.002073166306660691
6450.567510403884,0.0028490876771098197,0.002057370362008645
6450.568510175806,0.002861963451889071,0.0020433757674895112
6450.569509947729,0.002875197199619116,0.002031261450837244
6450.570509719651,0.002888585409808671,0.002021096926815086
6450.571509491574,0.0029019329983286466,0.0020129413590582253
6450.572509263497,0.002915055836730043,0.0020068427458816446
6450.57350903542,0.002927782710676098,0.0020028372277227967
6450.574508807343,0.0029399568235194537,0.002000948511914775
6450.575508579265,0.002951436951613653,0.00200118742179362
6450.576508351188,0.0029620983176047977,0.002003551589525496
6450.57750812311,0.0029718332039232746,0.0020080253099278218
6450.578507895034,0.0029805513064109293,0.002014579562563514
6450.5795076669565,0.002988179827658509,0.002023172206772408
6450.580507438879,0.002994663315296059,0.002033748355332288
6450.581507210802,0.0029999632524080103,0.0020462409241590817
6450.582506982724,0.0030040574048659625,0.002060571340989191
6450.583506754648,0.0030069389227579553,0.002076650389009123
6450.58450652657,0.0030086151826284914,0.002094379164125689
6450.585506298493,0.003009106357041001,0.002113650127043615
6450.586506070415,0.0030084437205638625,0.0021343482274138667
6450.587505842338,0.0030066677448539417,0.002156352071030495
6450.588505614261,0.003003826088027476,0.002179535099332943
6450.589505386184,0.0029999716284282245,0.002203766753762392
6450.590505158107,0.002995160710164483,0.0022289135959101215
6450.591504930029,0.002989451747553785,0.0022548403368799807
6450.592504701952,0.002982904290417561,0.002281410702219387
6450.593504473874,0.002975578600692409,0.0023084880488438682
6450.594504245798,0.00296753573728231,0.002335935677192144
6450.5955040177205,0.0029588380892737074,0.002363616830211299
6450.596503789643,0.0029495502492932232,0.002391394407972888
6450.597503561566,0.0029397400967858113,0.002419130446886271
6450.598503333488,0.002929479970259969,0.002446685439656772
6450.599503105412,0.002918847837694293,0.0024739176153504394
6450.600502877334,0.002907928407004505,0.002500682329357391
6450.601502649257,0.0028968141316568943,0.0025268316986538568
6450.602502421179,0.002885606049670897,0.0025522145657798775
6450.603502193102,0.0028744143660362994,0.002576676825472514
6450.604501965025,0.002863358679815808,0.0026000621310701168
6450.605501736948,0.0028525677749013274,0.0026222130086475674
6450.606501508871,0.0028421789183390726,0.002642972418675049
6450.607501280793,0.0028323366268496603,0.0026621857969093767
6450.608501052716,0.0028231908778687475,0.0026797035763513207
6450.609500824638,0.002814894775209385,0.0026953841508752826
6450.610500596562,0.0028076017364875045,0.0027090971978257863
6450.6115003684845,0.00280146233068587,0.0027207272338938817
6450.612500140407,0.002796620932789187,0.0027301772376112695
6450.61349991233,0.0027932123633389013,0.0027373721450980964
6450.614499684252,0.002791358647323188,0.0027422620343496296
6450.615499456176,0.0027911659792492264,0.0027448248633404615
6450.616499228098,0.0027927219472608732,0.002745068693415635
6450.617499000021,0.0027960930662127466,0.0027430333755425664
6450.618498771943,0.0028013226922711776,0.002738791686180234
6450.619498543866,0.0028084294151156145,0.002732449880482366
6450.620498315789,0.0028174060208460247,0.002724147604142057
6450.621498087712,0.0028282190790199276,0.0027140570885518414
6450.622497859635,0.002840809146603476,0.0027023815505921077
6450.623497631557,0.002855091528715533,0.0026893527244561065
6450.62449740348,0.00287095750681621,0.0026752274728375994
6450.625497175402,0.0028882759349085135,0.0026602834677590475
6450.626496947326,0.0029068951051290587,0.0026448139935213847
6450.6274967192485,0.002926644794150948,0.0026291219916208777
6450.628496491171,0.002947338420559479,0.002613513531744706
6450.629496263094,0.0029687752706405585,0.002598290947407246
6450.630496035016,0.0029907427879659484,0.0025837459046577343
6450.63149580694,0.0030130189684357523,0.0025701526697766413
6450.632495578862,0.0030353749437726546,0.002557761822331927
6450.633495350785,0.003057577850492956,0.002546794644667736
6450.634495122707,0.003079394052438345,0.002537438405417206
6450.63549489463,0.0031005927252874222,0.002529842721250938
6450.636494666553,0.003120949752527172,0.002524117118747526
6450.637494438476,0.0031402518395923368,0.002520329840704841
6450.638494210399,0.003158300720134958,0.002518507866369092
6450.639493982321,0.003174917304365589,0.002518638054267087
6450.640493754244,0.003189945609244391,0.0025206692785769394
6450.641493526166,0.0032032563069237605,0.0025245154202753525
6450.64249329809,0.003214749724312972,0.0025300590839609054
6450.6434930700125,0.003224358137836932,0.002537155919216528
6450.644492841935,0.0032320472494496385,0.0025456394147228396
6450.645492613858,0.003237816790576024,0.0025553260041157205
6450.64649238578,0.0032417002556417805,0.0025660202918849026
6450.647492157704,0.003243763809175518,0.002577520199998548
6450.648491929626,0.0032441044460691975,0.002589621862646162
6450.649491701549,0.003242847515041586,0.0026021241421065747
6450.650491473471,0.0032401437329579114,0.0026148326807200477
6450.651491245394,0.003236165810915046,0.0026275634382609317
6450.6524910173175,0.0032311047828070556,0.0026401456991125547
6450.65349078924,0.0032251660931512205,0.0026524245724119083
6450.654490561163,0.003218565479534814,0.002664263045559783
6450.655490333085,0.0032115246742474885,0.002675543676815123
6450.656490105008,0.0032042669449721156,0.0026861700158241865
6450.65748987693,0.0031970124984285926,0.00269606782355735
6450.658489648854,0.0031899737845754884,0.0027051861367131903
6450.6594894207765,0.0031833507603868426,0.002713498189466917
6450.660489192699,0.003177326201882883,0.0027210021615435907
6450.661488964622,0.003172061187405044,0.0027277216675128365
6450.662488736544,0.0031676908986866103,0.002733705853125178
6450.663488508468,0.0031643208852375495,0.0027390289427098717
6450.66448828039,0.0031620239179738375,0.0027437891027031996
6450.665488052313,0.003160837538229075,0.0027481065431572945
6450.666487824235,0.003160762396428678,0.0027521208481344067
6450.667487596158,0.003161761465541468,0.0027559875917978066
6450.6684873680815,0.0031637602053980764,0.0027598743558159195
6450.669487140004,0.0031666477495236604,0.0027639563086496737
6450.670486911927,0.0031702791830332893,0.0027684115273855286
6450.671486683849,0.0031744789640499346,0.002773416234006084
6450.672486455772,0.0031790455044710944,0.0027791400917665946
6450.673486227694,0.003183756872742182,0.0027857416819415124
6450.674485999618,0.0031883775101143107,0.002793364261707185
6450.6754857715405,0.00319266575728837,0.0028021318833776226
6450.676485543463,0.0031963818851787136,0.0028121459350965096
6450.677485315386,0.0031992962460268845,0.0028234821517821324
6450.678485087308,0.0032011971336346275,0.0028361881385181183
6450.679484859232,0.0032018979644282426,0.0028502814332405104
6450.680484631154,0.0032012434509325663,0.0028657481089089795
6450.681484403077,0.003199114519989617,0.002882541889280966
6450.682484174999,0.003195431816673725,0.002900583740138789
6450.683483946922,0.0031901577255510614,0.002919761904142342
6450.6844837188455,0.003183296934965988,0.002939932368781912
6450.685483490768,0.0031748956661433987,0.0029609197845939885
6450.686483262691,0.003165039773937177,0.0029825188731625028
6450.687483034613,0.0031538519802406404,0.0030044963693947016
6450.688482806536,0.0031414885087104826,0.003026593524053165
6450.689482578458,0.0031281353438135425,0.0030485291575916866
6450.690482350382,0.0031140042501436294,0.0030700032279555693
6450.6914821223045,0.003099328597959765,0.0030907008782784197
6450.692481894227,0.003084358993865869,0.003110296962526786
6450.69348166615,0.003069358729907251,0.0031284610703896784
6450.694481438072,0.003054599118750012,0.003144863052168325
6450.695481209996,0.0030403548339738586,0.0031591789820104433
6450.696480981918,0.0030268993882486316,0.0031710974223570147
6450.697480753841,0.0030145008553253308,0.0031803257924750456
6450.698480525763,0.003003417899177007,0.0031865966153494024
6450.699480297686,0.002993896141143352,0.003189673425441729
6450.7004800696095,0.0029861648841559025,0.0031893561643403677
6450.701479841532,0.002980434218562136,0.0031854859599195337
6450.702479613455,0.002976892542560313,0.0031779492457216043
6450.703479385377,0.0029757045274292604,0.003166681196051576
6450.7044791573,0.0029770095406419696,0.0031516684228988048
6450.705478929223,0.002980920512353422,0.0031329508323933077
6450.706478701146,0.002987523198055365,0.003110622506719251
6450.7074784730685,0.0029968757646369132,0.0030848314785569863
6450.708478244991,0.003009008622563639,0.0030557782969728086
6450.709478016914,0.0030239244449394437,0.003023713342754473
6450.710477788836,0.0030415983428766532,0.0029889329367812703
6450.71147756076,0.003061978190200229,0.0029517743793602293
6450.712477332682,0.003084985096960115,0.0029126101249531276
6450.713477104605,0.0031105140180271136,0.0028718413175220056
6450.714476876527,0.00313843446473719,0.002829890906830994
6450.71547664845,0.0031685912877867308,0.0027871965608953784
6450.7164764203735,0.0032008055242734226,0.0027442035851302842
6450.717476192296,0.0032348753296669555,0.0027013580406941694
6450.718475964219,0.003270577023030796,0.002659100216369699
6450.719475736141,0.003307666257826431,0.0026178585563963997
6450.720475508064,0.003345879305247665,0.002578044092496642
6450.721475279986,0.003384934422472251,0.0025400453784180485
6450.72247505191,0.0034245332901012633,0.0025042238791077014
6450.7234748238325,0.0034643625381737034,0.0024709097274833217
6450.724474595755,0.0035040954154977153,0.002440397747583316
6450.725474367678,0.003543393671696182,0.0024129436777862645
6450.7264741396,0.003581909713896297,0.0023887606149513214
6450.727473911524,0.0036192890814850196,0.0023680158029999745
6450.728473683446,0.003655173261509817,0.0023508279524583585
6450.729473455369,0.003689202846978417,0.002337265274883103
6450.730473227291,0.0037210210234304773,0.0023273443685243376
6450.731472999214,0.003750277360795372,0.0023210300384429723
6450.7324727711375,0.0037766318864840085,0.002318236101743349
6450.73347254306,0.0037997594113721297,0.0023188272164134495
6450.734472314983,0.0038193540689747687,0.0023226217580851302
6450.735472086905,0.0038351340181970485,0.0023293957308604227
6450.736471858828,0.003846846249696203,0.0023388876367429865
6450.737471630751,0.0038542714075938756,0.002350804160303005
6450.738471402674,0.0038572284913047975,0.002364826466106777
6450.7394711745965,0.003855579265405603,0.0023806168669666325
6450.740470946519,0.0038492322019741247,0.0023978256099643587
6450.741470718442,0.0038381457988105956,0.0024160975428612406
6450.742470490364,0.0038223311373529025,0.002435078454489392
6450.743470262288,0.0038018535683769557,0.002454420921488604
6450.74447003421,0.0037768334476526917,0.002473789537576913
6450.745469806133,0.003747445865656911,0.002492865444259883
6450.746469578055,0.0037139193105137427,0.0025113501199826344
6450.747469349978,0.003676533206320471,0.0025289684229080735
6450.7484691219015,0.003635614320754649,0.0025454709208876545
6450.749468893824,0.003591532121594295,0.002560635568936125
6450.750468665747,0.00354469323226024,0.002574268800734387
6450.751468437669,0.0034955351657764058,0.0025862060934112767
6450.752468209592,0.0034445195132870253,0.0025963120575478536
6450.753467981515,0.003392124748209886,0.002604480102403743
6450.754467753438,0.003338838797300944,0.0026106317286379217
6450.7554675253605,0.003285151529189422,0.002614715505293958
6450.756467297283,0.0032315473085102247,0.0026167057885807883
6450.757467069206,0.0031784977523279375,0.0026166012288299343
6450.758466841128,0.0031264548144159035,0.0026144230908637482
6450.759466613052,0.003075844321484719,0.002610213398476297
6450.760466384974,0.0030270600876667287,0.002604032924054868
6450.761466156897,0.0029804587311263483,0.0025959590802832316
6450.762465928819,0.002936355310510519,0.00258608381133744
6450.763465700742,0.0028950198896282977,0.0025745116026142183
6450.7644654726655,0.002856675121593269,0.002561357724753768
6450.765465244588,0.002821494914971512,0.0025467468042573997
6450.766465016511,0.0027896042013864073,0.002530811769093472
6450.767464788433,0.0027610797676645114,0.0025136931555650574
6450.768464560356,0.002735952059702533,0.0024955387016464582
6450.769464332279,0.002714207826799238,0.002476503113135502
6450.770464104202,0.002695793456521684,0.0024567478714207186
6450.7714638761245,0.002680618842487877,0.00243644094422725
6450.772463648047,0.002668561628298506,0.0024157562685311568
6450.77346341997,0.0026594716868905536,0.0023948729107356806
6450.774463191892,0.002653175726157621,0.002373973863001172
6450.775462963816,0.0026494819432270494,0.0023532444753764387
6450.776462735738,0.0026481846639109783,0.0023328705368822287
6450.777462507661,0.0026490688998740655,0.0023130360247092807
6450.778462279583,0.0026519147455787684,0.0022939205666168685
6450.779462051506,0.0026565015285081378,0.0022756967123328227
6450.7804618234295,0.0026626116224740693,0.0022585271666387095
6450.781461595352,0.0026700338347017813,0.0022425621745554352
6450.782461367275,0.0026785662778067705,0.002227937250828637
6450.783461139197,0.0026880186367236897,0.0022147714104729446
6450.78446091112,0.002698213750572686,0.002203165995879826
6450.785460683043,0.0027089884649242136,0.002193204126974675
6450.786460454966,0.0027201937706178756,0.0021849507441738035
6450.7874602268885,0.0027316943157729553,0.002178453180547004
6450.788459998811,0.002743367438800198,0.0021737421824086943
6450.789459770734,0.0027551019078266964,0.002170833282120396
6450.790459542657,0.002766796558665058,0.00216972841013131
6450.79145931458,0.002778359000807718,0.0021704176259646894
6450.792459086502,0.002789704517642397,0.002172880863882468
6450.793458858425,0.0028007552327084235,0.002177089630836173
6450.794458630347,0.0028114395605321842,0.0021830086444249606
6450.79545840227,0.002821691923551233,0.0021905974291440192
6450.7964581741935,0.002831452699523815,0.002199811883875362
6450.797457946116,0.002840668356703048,0.0022106058003960056
6450.798457718039,0.0028492917302780298,0.0022229322776943067
6450.799457489961,0.0028572823923999485,0.0022367449640074664
6450.800457261884,0.002864607068362624,0.0022519990728855003
6450.801457033807,0.002871240057499496,0.0022686521450745517
6450.80245680573,0.0028771636363500355,0.002286664540464783
6450.8034565776525,0.0028823684489590086,0.00230599963578957
6450.804456349575,0.0028868539113215226,0.002326623691431653
6450.805456121498,0.0028906286673656845,0.0023485053536887015
6450.806455893421,0.002893711133815653,0.002371614772311934
6450.807455665344,0.0028961301622762218,0.0023959223172508462
6450.808455437266,0.0028979258280973316,0.00242139686683198
6450.809455209189,0.002899150323815998,0.0024480036275760274
6450.810454981111,0.0028998688872151563,0.0024757014593005384
6450.811454753034,0.002900160637498193,0.002504439737586164
6450.8124545249575,0.0029001191499600856,0.0025341548831844083
6450.81345429688,0.0028998525913477846,0.00256476678850916
6450.814454068803,0.002899483265383509,0.00259617543297665
6450.815453840725,0.0028991464609644454,0.002628257979969729
6450.816453612648,0.002898988534091554,0.00266086659428528
6450.817453384571,0.0028991641867184407,0.0026938271408114356
6450.818453156494,0.002899832948168374,0.0027269388626777738
6450.8194529284165,0.002901154930614885,0.0027599751051068837
6450.820452700339,0.002903286008097535,0.002792685128290146
6450.821452472262,0.0029063726306025875,0.0028247970149516935
6450.822452244185,0.0029105465095806485,0.0028560216280868567
6450.823452016108,0.002915919396178283,0.0028860575268092672
6450.82445178803,0.002922578132920267,0.0029145967098396838
6450.825451559953,0.0029305801197144596,0.002941331024925948
6450.826451331875,0.0029399493220999278,0.0029659590566977665
6450.827451103798,0.0029506729718186265,0.0029881932856649592
6450.8284508757215,0.0029626991443586852,0.003007767296648881
6450.829450647644,0.0029759354030861338,0.0030244428036917763
6450.830450419567,0.002990248649370632,0.003038016250589933
6450.831450191489,0.0030054662293800822,0.003048324744342771
6450.832449963412,0.003021378264916575,0.0030552510857053783
6450.833449735335,0.003037741128327131,0.0030587276835161584
6450.834449507258,0.003054281966128501,0.003058739189024626
6450.8354492791805,0.003070704168774185,0.0030553237655627824
6450.836449051103,0.0030866936652649843,0.0030485730030528125
6450.837448823026,0.003101925888483885,0.0030386305716687983
6450.838448594949,0.00311607322672199,0.0030256897582605453
6450.839448366872,0.0031288127673557574,0.003009990029302749
6450.840448138794,0.003139834143987852,0.002991812734090422
6450.841447910717,0.003148847291470366,0.002971476040748832
6450.842447682639,0.0031555898836335733,0.0029493292018788245
6450.843447454562,0.003159834202163082,0.002925746258138224
6450.8444472264855,0.003161393196606754,0.002901119288605856
6450.845446998408,0.0031601255499264184,0.0028758513138823546
6450.846446770331,0.003155939633194202,0.002850348967539399
6450.847446542253,0.0031487962878359497,0.0028250150735728216
6450.848446314176,0.0031387104132107003,0.0028002412907633706
6450.849446086099,0.0031257513781094183,0.002776401001230462
6450.850445858022,0.003110042313756008,0.0027538426210292075
6450.8514456299445,0.0030917583539554873,0.0027328834843702767
6450.852445401867,0.0030711238570334527,0.0027138044018260544
6450.85344517379,0.0030484086143247845,0.0026968449359603577
6450.854444945713,0.003023923063022289,0.0026821993965217414
6450.855444717636,0.002998012567730648,0.002670013539813598
6450.856444489558,0.002971050874647151,0.0026603819554774015
6450.857444261481,0.002943432860361498,0.002653346127576796
6450.858444033403,0.0029155667181308526,0.0026488931646775162
6450.859443805326,0.0028878657732754535,0.002646955210630414
6450.8604435772495,0.0028607401855464246,0.002647409572728928
6450.861443349172,0.002834588837754072,0.002650079630748662
6450.862443121095,0.0028097916917574793,0.002654736613130458
6450.863442893017,0.0027867028208202003,0.00266110233518154
6450.86444266494,0.002765644239838056,0.0026688529787606743
6450.865442436863,0.0027469005903614546,0.0026776239577766523
6450.866442208786,0.002730714712872106,0.002687015872816452
6450.8674419807085,0.002717284146562785,0.0026966015185502868
6450.868441752631,0.0027067586122982643,0.0027059338708978584
6450.869441524554,0.0026992385353425967,0.0027145549479055233
6450.870441296477,0.0026947746401706643,0.0027220054023416127
6450.8714410684,0.002693368597420225,0.0027278346576319495
6450.872440840322,0.002694974634864984,0.0027316113489629142
6450.873440612245,0.0026995019718615027,0.0027329337944550828
6450.874440384167,0.0027068179278587137,0.0027314402040300467
6450.875440156091,0.0027167515871486443,0.0027268183290360057
6450.8764399280135,0.002729097943043925,0.00271881425608355
6450.877439699936,0.002743622461249648,0.0027072400598221334
6450.878439471859,0.002760065980253237,0.002691980065061188
6450.879439243781,0.0027781498194860447,0.0026729955229515606
6450.880439015704,0.0027975809253663183,0.002650327552335255
6450.881438787627,0.0028180568779265177,0.002624098223058278
6450.88243855955,0.002839270608323484,0.0025945096786566826
6450.8834383314725,0.0028609147214087144,0.002561841234180653
6450.884438103395,0.0028826853642646244,0.002526444453270575
6450.885437875318,0.002904285634497257,0.002488736305444295
6450.886437647241,0.0029254285827377937,0.0024491906127697056
6450.887437419164,0.002945839916348391,0.0024083280849831264
6450.888437191086,0.002965260535153338,0.0023667052895040737
6450.889436963009,0.0029834490188619016,0.00232490290970998
6450.890436734931,0.003000184147305431,0.0022835136337342296
6450.891436506855,0.0030152674787253383,0.0022431300028067395
6450.8924362787775,0.0030285259427726007,0.002204332531326855
6450.8934360507,0.003039814324096956,0.002167678383376559
6450.894435822623,0.003049017430039188,0.002133690850292011
6450.895435594545,0.0030560516857253265,0.002102849826730812
6450.896435366468,0.00306086592397639,0.002075583438153103
6450.897435138391,0.0030634412466972343,0.0020522609364666414
6450.898434910314,0.0030637899835273008,0.00203318694942998
6450.8994346822365,0.0030619538906226,0.002018597137000204
6450.900434454159,0.003058001780387579,0.0020086552719793447
6450.901434226082,0.0030520267695761383,0.002003451723387474
6450.902433998005,0.003044143311760241,0.002003003283983892
6450.903433769928,0.0030344841524121754,0.0020072542630426163
6450.90443354185,0.0030231973058997236,0.0020160787714145127
6450.905433313773,0.0030104431071655523,0.0020292841434495336
6450.906433085695,0.0029963913584537525,0.002046615445401698
