Time,Filtered_EMG_Bicep,Filtered_EMG_Tricep
6772.556751360346,0.0027721399727276383,0.001161524980785726
6772.557751132562,0.002977534620733378,0.001261373641373599
6772.558750904776,0.0031825207087655604,0.0013615049489105668
6772.559750676992,0.0033858160047623063,0.0014612162247362032
6772.560750449207,0.0035861679004406616,0.0015598055059133779
6772.561750221423,0.0037823715543856542,0.0016565827076486603
6772.562749993638,0.00397328642225485,0.0017508806949212245
6772.563749765854,0.004157850803123872,0.001842065976658145
6772.564749538068,0.004335094118990895,0.0019295487452101927
6772.565749310284,0.004504146668002723,0.0020127920083292243
6772.566749082499,0.004664246600230775,0.0020913195868411134
6772.567748854714,0.004814743936718252,0.002164722768762111
6772.56874862693,0.004955101604309691,0.002232665421473879
6772.569748399144,0.005084893619108153,0.0022948873811847337
6772.57074817136,0.0052038006481752485,0.002351205983015062
6772.571747943575,0.0053116032263847025,0.0024015156749868003
6772.572747715791,0.005408172977029207,0.00244578576424482
6772.573747488006,0.005493462324484762,0.002484056457077254
6772.574747260222,0.0055674933629944,0.002516433464049083
6772.575747032436,0.005630346673866513,0.0025430815302736032
6772.576746804652,0.005682150892385601,0.0025642172908802276
6772.577746576867,0.005723073708308814,0.002580101829050361
6772.578746349082,0.0057533147884610775,0.0025910332453309543
6772.579746121298,0.00577310088823097,0.0025973394641256053
6772.580745893512,0.005782683195942885,0.00259937143111602
6772.581745665728,0.005782336741043082,0.002597496806811373
6772.582745437943,0.005772361507527597,0.0025920942390206428
6772.583745210159,0.005753084747475685,0.002583548289717437
6772.584744982374,0.005724863912964574,0.0025722450763310057
6772.5857447545895,0.005688089651821656,0.002558568647276982
6772.586744526804,0.00564318845511104,0.0025428980561604986
6772.58774429902,0.005590624747771918,0.002525605055335088
6772.588744071235,0.005530902371156145,0.002507052312334322
6772.58974384345,0.005464565441888425,0.0024875920547958426
6772.590743615666,0.005392198500442407,0.0024675650550667616
6772.59174338788,0.005314425757034218,0.002447299862522232
6772.592743160096,0.0052319091713118404,0.0024271121748246924
6772.593742932311,0.005145345109684302,0.0024073042177747746
6772.594742704527,0.005055459422750669,0.0023881640012949207
6772.595742476742,0.004963000953725684,0.0023699643558731938
6772.5967422489575,0.004868733679042834,0.002352961716893299
6772.597742021172,0.0047734278368761806,0.00233739467244102
6772.598741793388,0.004677850475398368,0.0023234822939828324
6772.599741565603,0.004582755843147458,0.0023114222457928167
6772.600741337818,0.004488875975457364,0.0023013886689089353
6772.601741110034,0.004396911747526122,0.0022935298937665455
6772.602740882248,0.0043075246123915455,0.002287966134179593
6772.603740654464,0.00422132924139693,0.0022847873953208684
6772.604740426679,0.0041388873040387065,0.0022840518435996303
6772.605740198895,0.004060702603294146,0.002285784837982916
6772.60673997111,0.003987217697184261,0.002289978741178378
6772.607739743325,0.003918812019810759,0.002296593539634293
6772.60873951554,0.0038558014068527852,0.0023055582106800685
6772.609739287756,0.0037984388445035937,0.002316772685762105
6772.610739059971,0.0037469162015554137,0.002330110182328976
6772.611738832186,0.0037013666869270614,0.0023454196375102985
6772.612738604401,0.0036618678045526767,0.0023625279977535422
6772.613738376616,0.0036284446393834097,0.002381242201541668
6772.614738148832,0.003601073393571202,0.0024013508094377243
6772.615737921047,0.0035796852066800645,0.0024226253477040226
6772.616737693263,0.0035641704220301692,0.0024448215120770472
6772.617737465478,0.003554383543774806,0.002467680417977904
6772.618737237693,0.003550149110099848,0.0024909300799662716
6772.619737009908,0.0035512685926869306,0.0025142872597607776
6772.620736782124,0.0035575282789060574,0.002537459757801934
6772.621736554339,0.003568707958648287,0.002560149166082191
6772.622736326554,0.0035845901477802255,0.002582054061169732
6772.623736098769,0.003604969520277541,0.002602873583423594
6772.624735870984,0.0036296621521510536,0.0026223113096133237
6772.6257356432,0.0036585140857149723,0.00264007929412341
6772.626735415415,0.0036914086430671314,0.0026559021531564666
6772.627735187631,0.003728271924974011,0.00266952109973319
6772.628734959846,0.003769076059260154,0.0026806978766642856
6772.629734732061,0.0038138399602107875,0.0026892185477622814
6772.630734504276,0.003862627532752889,0.002694897088593796
6772.631734276491,0.003915543355960162,0.0026975786898029703
6772.632734048707,0.0039727259425104446,0.0026971426747081436
6772.633733820922,0.004034338752780284,0.0026935049475506736
6772.634733593137,0.004100559269121396,0.0026866199241732036
6772.635733365352,0.004171566580988489,0.002676481940520276
6772.636733137568,0.004247528041549421,0.002663126165429701
6772.637732909783,0.00432858559831037,0.002646629044643283
6772.638732681999,0.0044148423863761424,0.002627108278554652
6772.639732454214,0.004506350130780666,0.0026047223116730375
6772.640732226429,0.00460309783393077,0.0025796693013795937
6772.641731998644,0.00470500210314002,0.0025521855326762813
6772.642731770859,0.0048118992936378785,0.0025225432516559508
6772.643731543075,0.004923539430869893,0.002491047911217577
6772.64473131529,0.005039581692156676,0.0024580348566813877
6772.645731087505,0.005159591146226941,0.002423865504642922
6772.64673085972,0.005283036512278325,0.002388923068093621
6772.647730631936,0.0054092888783073174,0.0023536078654783077
6772.648730404151,0.005537621522439843,0.0023183322424185984
6772.649730176367,0.005667211114309119,0.0022835151362355114
6772.650729948582,0.005797140582540212,0.002249576321256119
6772.6517297207965,0.005926403837535859,0.0022169303940525113
6772.652729493012,0.006053912414754062,0.002185980596918033
6772.653729265227,0.006178504040361418,0.0021571126235276072
6772.654729037443,0.006298953161995982,0.0021306885869200438
6772.655728809658,0.006413983601465493,0.00210704134465634
6772.656728581873,0.006522283577915592,0.002086469358381944
6772.657728354088,0.006622523324342953,0.002069232214608219
6772.658728126304,0.00671337535787688,0.002055546869085621
6772.659727898519,0.006793537223097689,0.002045584622962401
6772.660727670735,0.006861756275090726,0.0020394688071313765
6772.66172744295,0.006916855830184266,0.002037273142577812
6772.6627272151645,0.00695776179238746,0.002039020756737179
6772.66372698738,0.006983528701895169,0.002044683863257734
6772.664726759595,0.006993364120150889,0.0020541841448232425
6772.665726531811,0.0069866503917996,0.002067393901343446
6772.666726304026,0.006962963040252578,0.002084138021556519
6772.667726076241,0.00692208524255372,0.0021041967952400605
6772.668725848456,0.006864017911944859,0.0021273095157567073
6772.669725620672,0.00678898490930082,0.002153178752032559
6772.670725392887,0.00669743291533136,0.002181475116389846
6772.671725165103,0.006590025654411822,0.00221184233237031
6772.672724937317,0.006467632506991074,0.0022439024189624584
6772.6737247095325,0.006331311968945661,0.002277260848495796
6772.674724481748,0.006182290734994413,0.002311511586828256
6772.675724253963,0.006021939310814369,0.002346241961691126
6772.676724026179,0.005851745052501465,0.0023810373148165313
6772.677723798393,0.005673283508726865,0.0024154853914633667
6772.678723570609,0.005488188960247892,0.0024491804388654136
6772.679723342824,0.0052981250867659355,0.0024817270313096094
6772.68072311504,0.005104756683565659,0.00251274368920896
6772.681722887255,0.00490972327095259,0.002541866388329242
6772.682722659471,0.0047146153011108855,0.0025687520606837598
6772.683722431685,0.004520953498103134,0.0025930821739616624
6772.6847222039005,0.0043301716898039595,0.0026145664361244994
6772.685721976116,0.004143603320356545,0.002632946604198324
6772.686721748331,0.003962471677965863,0.002648000302925678
6772.687721520547,0.0037878837339853475,0.0026595447153759653
6772.688721292761,0.0036208273533072993,0.002667440008466132
6772.689721064977,0.0034621715014823812,0.0026715923801512716
6772.690720837192,0.003312668961819823,0.0026719566303050344
6772.691720609408,0.003172961009217247,0.002668538155480219
6772.692720381623,0.0030435834695957376,0.0026613942610158045
6772.693720153839,0.0029249736116185357,0.0026506346762663192
6772.694719926053,0.0028174773576922526,0.0026364211388786147
6772.6957196982685,0.0027213563606838373,0.002618965885516706
6772.696719470484,0.00263679457686851,0.0025985288842634764
6772.697719242699,0.0025639040722841926,0.0025754137015260342
6772.698719014915,0.0025027299106013786,0.0025499620035703456
6772.699718787129,0.0024532540712699172,0.002522546805616223
6772.700718559345,0.002415398438444145,0.0024935646685698243
6772.70171833156,0.0023890269821076476,0.0024634271087410034
6772.702718103776,0.002373947306370159,0.0024325515425927414
6772.703717875991,0.0023699117508039626,0.002401352127601199
6772.704717648207,0.002376618198929852,0.002370230857867497
6772.705717420421,0.0023937106892713417,0.002339569226231546
6772.7067171926365,0.0024207798697849984,0.0023097207011392494
6772.707716964852,0.0024573633228794664,0.0022810042164218883
6772.708716737067,0.002502945828210175,0.0022536988400927113
6772.709716509283,0.00255695969343306,0.0022280397550307625
6772.710716281497,0.0026187853216508234,0.002204215629132844
6772.711716053713,0.0026877521741683853,0.002182367373676234
6772.712715825928,0.0027631402418099166,0.0021625882056836116
6772.713715598144,0.0028441821009291754,0.002144924864312127
6772.714715370359,0.002930065644794306,0.002129379789533004
6772.715715142575,0.0030199376439368993,0.002115914051620961
6772.716714914789,0.0031129083441884388,0.002104450821240237
6772.717714687004,0.0032080573053649944,0.0020948791868749574
6772.71871445922,0.0033044406154156634,0.002087058147532303
6772.719714231435,0.0034010995254655525,0.0020808206300171024
6772.720714003651,0.0034970704835329477,0.002075977411494893
6772.721713775865,0.003591396513471957,0.0020723208789910357
6772.722713548081,0.003683139875695639,0.002069628617534341
6772.723713320296,0.003771395928493116,0.002067666861339943
6772.724713092512,0.0038553080597388076,0.0020661938546898506
6772.725712864727,0.003934083476793682,0.00206496316272287
6772.726712636943,0.004007009541984451,0.0020637269588291867
6772.727712409157,0.004073470229311125,0.0020622392944222544
6772.728712181372,0.004132962157233048,0.0020602593351992863
6772.729711953588,0.004185109544793627,0.0020575545417939596
6772.730711725803,0.004229677378855778,0.0020539037829909743
6772.731711498019,0.0042665820869668475,0.002049100376847514
6772.732711270233,0.004295899083637928,0.0020429550446486597
6772.733711042449,0.004317866686632996,0.002035298740451105
6772.734710814664,0.004332886046278786,0.002025985298724734
6772.73571058688,0.004341516845556931,0.0020148938324366593
6772.736710359095,0.0043444686189078536,0.0020019308151753125
6772.7377101313095,0.0043425876802686905,0.0019870317893880725
6772.738709903525,0.0043368398950570505,0.001970162654033176
6772.73970967574,0.004328289816704929,0.0019513205016454124
6772.740709447956,0.004318076920101607,0.0019305340017230382
6772.741709220171,0.004307389739778781,0.0019078633590031853
6772.742708992386,0.004297438685899909,0.0018833998993890825
6772.743708764601,0.004289428229676009,0.0018572653460759586
6772.744708536817,0.00428452906167232,0.001829610839889163
6772.745708309032,0.0042838507409595035,0.0018006157279434945
6772.746708081248,0.004288415287992105,0.0017704861041818426
6772.747707853463,0.004299132159745563,0.0017394530583697294
6772.7487076256775,0.004316775073891321,0.0017077705915122985
6772.749707397893,0.004341961162710847,0.001675713179090177
6772.750707170108,0.004375132893330503,0.0016435729912626863
6772.751706942324,0.004416543097922734,0.0016116567945831232
6772.752706714539,0.00446624335689313,0.0015802825568258284
6772.753706486754,0.004524075913275762,0.0015497757656268384
6772.754706258969,0.004589669293902266,0.001520465471206837
6772.755706031185,0.0046624378676326985,0.001492680079971765
6772.7567058034,0.004741585648438905,0.001466742945715437
6772.757705575616,0.004826114696711656,0.001442967815537861
6772.758705347831,0.0049148384315227354,0.0014216541995881195
6772.7597051200455,0.005006400022951784,0.0014030827668477241
6772.760704892261,0.005099295823004378,0.0013875109156710444
6772.761704664476,0.0051919035704304835,0.0013751686960364474
6772.762704436692,0.005282514897173268,0.001366255252698595
6772.763704208907,0.005369371465159886,0.0013609359264094498
6772.764703981122,0.005450703852681987,0.0013593401149503163
6772.765703753337,0.005524772091336098,0.0013615599650802694
6772.766703525553,0.0055899065664394695,0.0013676499341152535
6772.767703297768,0.005644547893658053,0.0013776272162056792
6772.768703069984,0.005687284407904228,0.0013914729727273992
6772.769702842199,0.005716886039075687,0.0014091342488150988
6772.7707026144135,0.005732333556901865,0.0014305264138217237
6772.771702386629,0.00573284237557778,0.0014555359404139405
6772.772702158844,0.005717880267970915,0.0014840233287083681
6772.77370193106,0.005687178482865662,0.0015158259796269615
6772.774701703275,0.005640735991468796,0.001550760834913429
6772.77570147549,0.005578816955472276,0.001588626648051472
6772.776701247705,0.005501941914191423,0.0016292058255705088
6772.777701019921,0.005410873494906962,0.001672265853563226
6772.778700792136,0.005306597606487444,0.0017175603794241311
6772.779700564352,0.0051903011203827025,0.0017648300513208128
6772.780700336567,0.005063347023492632,0.0018138032299932622
6772.7817001087815,0.004927247954905182,0.0018641966847036788
6772.782699880997,0.004783638908505505,0.0019157163763137532
6772.783699653212,0.004634249710033185,0.0019680584185522813
6772.784699425428,0.004480877691674953,0.002020910294257074
6772.785699197643,0.004325360826479845,0.0020739523947221564
6772.786698969858,0.004169551489221578,0.0021268599520032224
6772.787698742073,0.00401529100442019,0.0021793054333754903
6772.788698514289,0.003864385199638791,0.0022309614477425046
6772.789698286504,0.0037185812322618962,0.0022815041780946906
6772.79069805872,0.0035795459459740777,0.0023306173145442675
6772.791697830935,0.003448845943522766,0.0023779964180256135
6772.7926976031495,0.0033279294817241817,0.00242335358596083
6772.793697375365,0.0032181102496609297,0.002466422225001846
6772.79469714758,0.0031205531009554682,0.002506961688983105
6772.795696919796,0.0030362618606557985,0.0025447615320596797
6772.796696692011,0.00296606937588807,0.0025796451480964047
6772.797696464226,0.002910629985769517,0.0026114725920242305
6772.798696236441,0.0028704145386408988,0.0026401423990695715
6772.799696008657,0.0028457080081663606,0.0026655922533840013
6772.800695780872,0.0028366096849425045,0.0026877984296760403
6772.801695553088,0.0028430358551102142,0.002706774033959049
6772.802695325302,0.0028647248147797197,0.002722566172363683
6772.803695097517,0.002901244003155329,0.0027352522540448083
6772.804694869733,0.002951998966707449,0.0027449356853525937
6772.805694641948,0.00301624380214358,0.002751741249382507
6772.806694414164,0.003093092700615259,0.0027558104814571762
6772.807694186378,0.0031815322655021436,0.0027572973287313314
6772.808693958594,0.0032804343969870583,0.0027563643202308742
6772.809693730809,0.0033885696740702177,0.002753179387885871
6772.810693503025,0.0035046212568630815,0.0027479133825575623
6772.81169327524,0.0036271993554619145,0.0027407382368889884
6772.812693047456,0.0037548562807504385,0.0027318256647885864
6772.81369281967,0.0038861020353640066,0.0027213462711419066
6772.814692591885,0.004019420356079615,0.0027094689585062995
6772.815692364101,0.00415328511564765,0.0026963605298692696
6772.816692136316,0.0042861770282583075,0.002682185389086701
6772.817691908532,0.0044166006368042176,0.0026671052446763086
6772.818691680746,0.004543101566246096,0.0026512787338141414
6772.819691452962,0.004664284011817543,0.002634860898884748
6772.820691225177,0.004778828388148489,0.002618002471377814
6772.821690997393,0.004885508969802729,0.0026008489507950362
6772.822690769608,0.004983211203006886,0.002583539501359916
6772.823690541823,0.005070948202987159,0.002566205710257591
6772.824690314038,0.005147875820683868,0.0025489702472221844
6772.825690086253,0.005213305591853462,0.0025319454421183804
6772.826689858469,0.00526671488890648,0.0025152317760370204
6772.827689630684,0.0053077537169210825,0.002498916287874858
6772.8286894029,0.005336247833715053,0.0024830709450656074
6772.829689175114,0.005352198140748389,0.002467751099425974
6772.83068894733,0.0053557764705545316,0.0024529942083123145
6772.831688719545,0.0053473179657607135,0.002438819011353809
6772.832688491761,0.005327310277210877,0.0024252253075323182
6772.833688263976,0.005296379871314839,0.002412194400862365
6772.834688036191,0.0052552758394311064,0.002399690206333522
6772.835687808406,0.00520485171682682,0.0023876609439174154
6772.836687580621,0.005146045909161871,0.0023760412952959983
6772.837687352837,0.005079861365513871,0.0023647548618567727
6772.838687125052,0.005007345129251012,0.0023537167594366946
6772.839686897268,0.004929568363388064,0.0023428362155484997
6772.840686669482,0.004847607397329721,0.0023320190790046156
6772.841686441698,0.004762526260796233,0.002321170196390863
6772.842686213913,0.00467536104360261,0.0023101956530721347
6772.843685986129,0.004587106265778668,0.002299004912350293
6772.844685758344,0.004498703297607136,0.002287512904555252
6772.845685530559,0.0044110307567040265,0.002275642115179387
6772.846685302774,0.004324896739787411,0.0022633247035708905
6772.847685074989,0.004241032730540571,0.0022505046596010317
6772.848684847205,0.00416008906113474,0.0022371399785770284
6772.84968461942,0.004082631862321313,0.002223204802716243
6772.850684391636,0.004009141464949141,0.002208691446694818
6772.85168416385,0.003940012182899055,0.002193612212816734
6772.852683936066,0.003875553328101392,0.0021780009143373496
6772.853683708281,0.0038159912368284986,0.0021619140427791847
6772.8546834804965,0.0037614720865359174,0.002145431515442734
6772.855683252712,0.003712065380887991,0.002128656930235374
6772.856683024927,0.003667768131348986,0.0021117172604947503
6772.857682797142,0.0036285098737559853,0.002094761955141535
6772.858682569357,0.0035941586692157437,0.0020779614636478564
6772.859682341573,0.003564528173496462,0.0020615052619122414
6772.860682113788,0.003539385778758755,0.0020455994880381476
6772.861681886004,0.003518461766542911,0.0020304642916115045
6772.862681658218,0.003501459347715416,0.002016330967190022
6772.863681430434,0.003488065378345278,0.002003438907756335
6772.864681202649,0.0034779614260943685,0.0019920323970111214
6772.8656809748645,0.003470834747072339,0.001982357261714989
6772.86668074708,0.003466388664356928,0.001974657408819729
6772.867680519295,0.0034643518536124464,0.0019691712612817775
6772.86868029151,0.003464486139794846,0.0019661280853274427
6772.869680063725,0.003466592551657852,0.0019657441829547106
6772.870679835941,0.0034705155098122753,0.001968218914958359
6772.871679608156,0.0034761451001105886,0.0019737305285430305
6772.872679380371,0.0034834174097273566,0.0019824317915784454
6772.873679152586,0.0034923129185981104,0.001994445477875361
6772.874678924802,0.003502852989691613,0.002009859801382454
6772.875678697017,0.0035150946046293217,0.002028723954837386
6772.8766784692325,0.003529123622733571,0.0020510439477652823
6772.877678241448,0.0035450469527004915,0.0020767789398628183
6772.878678013663,0.00356298407449986,0.0021058382380412383
6772.879677785878,0.003583058327725001,0.002138079099187069
6772.880677558093,0.003605388320139184,0.0021733054725648414
6772.881677330309,0.003630079745689733,0.0022112678115896595
6772.882677102524,0.0036572178535623917,0.002251664060148281
6772.883676874739,0.003686860764120277,0.002294141867839363
6772.884676646954,0.0037190337599447123,0.002338302027789427
6772.88567641917,0.0037537245998836097,0.0023837030813446012
6772.886676191385,0.0037908798563149313,0.002429867004085295
6772.8876759636005,0.003830402293388948,0.002476285868068204
6772.888675735816,0.0038721493631187027,0.0025224293524412815
6772.88967550803,0.0039159329326721335,0.00256775294388222
6772.890675280246,0.003961520326660431,0.002611706632838319
6772.891675052461,0.004008636685923238,0.002653743881386465
6772.892674824677,0.004056968553108928,0.002693330632514085
6772.893674596892,0.00410616853079819,0.002729954162812498
6772.894674369107,0.004155860844791792,0.0027631316423890597
6772.895674141322,0.0042056476985960125,0.002792418327568864
6772.896673913538,0.004255116403051042,0.002817415339964056
6772.897673685753,0.0043038473409460955,0.002837776962685231
6772.8986734579685,0.00435142282230348,0.002853217323509342
6772.899673230184,0.004397436804145064,0.002863516269311833
6772.900673002398,0.004441505330993502,0.002868524197353625
6772.901672774614,0.004483277422246873,0.002868165611958423
6772.902672546829,0.004522445980958674,0.0028624412205542605
6772.903672319045,0.004558758124410882,0.002851428464650814
6772.90467209126,0.00459202418196205,0.002835280484593641
6772.905671863475,0.004622124551456179,0.002814223615427136
6772.90667163569,0.004649013726950614,0.002788553574507372
6772.907671407906,0.004672721096985727,0.0027586305142363455
6772.908671180121,0.0046933484429014785,0.00272487308886865
6772.9096709523365,0.004711064311879018,0.0026877516602450175
6772.910670724552,0.004726095577562818,0.002647780774038666
6772.911670496766,0.00473871659558644,0.0026055110629738783
6772.912670268982,0.004749236461118731,0.0025615207345928586
6772.913670041197,0.00475798497163103,0.0025164067666858365
6772.914669813413,0.004765297950999156,0.002470775896752141
6772.915669585628,0.004771502578994991,0.0024252354806375406
6772.916669357843,0.004776903311718175,0.002380384300842328
6772.917669130058,0.004781768914227158,0.0023368034076972476
6772.918668902274,0.004786321087187914,0.002295047080220964
6772.919668674489,0.004790725152928453,0.0022556340183740283
6772.920668446704,0.004795083235261628,0.0022190389270920373
6772.92166821892,0.004799430278880826,0.002185684696051387
6772.922667991134,0.004803733101153028,0.0021559353901971566
6772.92366776335,0.004807892480650069,0.002130090249430576
6772.924667535565,0.004811748094182108,0.0021083788714473307
6772.925667307781,0.004815085944392632,0.0020909577258263643
6772.926667079996,0.004817647812236362,0.0020779081175171786
6772.927666852211,0.004819142252861905,0.0020692356871737875
6772.928666624426,0.004819256700568659,0.002064871506785072
6772.929666396642,0.004817670278110735,0.0020646747960795814
6772.930666168857,0.0048140668636129915,0.0020684372435334046
6772.931665941072,0.004808147879994085,0.002075888865303499
6772.932665713287,0.004799644211142501,0.002086705273583127
6772.933665485502,0.004788326674281257,0.002100516151782909
6772.934665257718,0.0047740145931709395,0.002116914658083514
6772.935665029933,0.004756582170576744,0.0021354674171729423
6772.936664802149,0.0047359624761545765,0.0021557247197896575
6772.937664574363,0.004712148914028469,0.002177230534392993
6772.938664346579,0.004685194063571139,0.0021995319566293207
6772.939664118794,0.004655205888535227,0.0022221877901541236
6772.9406638910095,0.0046223415202833905,0.0022447760557030147
6772.941663663225,0.004586799083646085,0.0022669003361440025
6772.94266343544,0.004548808248797204,0.0022881949533713757
6772.943663207655,0.00450862028969259,0.0023083290145691
6772.94466297987,0.0044664984019664854,0.0023270093596445057
6772.945662752086,0.004422708917036145,0.0023439824205171962
6772.946662524301,0.004377513889916963,0.0023590350063085906
6772.947662296517,0.0043311653762759215,0.0023719940668761466
6772.948662068731,0.0042839015755453316,0.0023827255366179064
6772.949661840947,0.004235944893395548,0.002391132390726697
6772.950661613162,0.004187501838954531,0.0023971520500078165
6772.9516613853775,0.0041387645215693915,0.002400753266558957
6772.952661157593,0.004089913397431185,0.0024019326298575913
6772.953660929808,0.004041120881824859,0.00240071084769905
6772.954660702023,0.003992555481531532,0.002397128961589585
6772.955660474238,0.003944386175417656,0.0023912446449577142
6772.956660246454,0.0038967868487508658,0.002383128713345526
6772.957660018669,0.0038499406503733607,0.0023728619557045936
6772.958659790885,0.0038040441757489687,0.0023605323754163927
6772.959659563099,0.0037593113790949477,0.002346232909520059
6772.960659335315,0.0037159771044070703,0.002330059674735164
6772.96165910753,0.0036743001286001042,0.0023121107642572196
6772.9626588797455,0.0036345656383749312,0.002292485585964385
6772.963658651961,0.003597087085269827,0.0022712846941228305
6772.964658424176,0.003562207341110667,0.0022486100379424134
6772.965658196391,0.003530299009148817,0.0022245655545331143
6772.966657968606,0.0035017636793235477,0.0021992580767591524
6772.967657740822,0.003477029892762149,0.0021727985746045953
6772.968657513037,0.003456549605952424,0.002145303754971432
6772.969657285253,0.0034407929942982247,0.002116897997821601
6772.970657057467,0.003430241488023648,0.0020877155376949627
6772.971656829683,0.0034253789927344985,0.0020579027464653296
6772.972656601898,0.0034266813243615025,0.002027620347428415
6772.9736563741135,0.0034346039942517214,0.0019970453797987196
6772.974656146329,0.0034495686208729994,0.0019663727240876354
6772.975655918544,0.0034719484020735705,0.0019358160005341948
6772.976655690759,0.0035020532025234748,0.0019056076851535764
6772.977655462974,0.003540114844514288,0.0018759983572557552
6772.97865523519,0.003586273142689875,0.001847255080086136
6772.979655007405,0.0036405631532228926,0.0018196589931961304
6772.980654779621,0.003702904070381359,0.0017935022355209653
6772.981654551835,0.0037730902060416393,0.001769084310980618
6772.982654324051,0.0038507844966305773,0.0017467079691518362
6772.983654096266,0.003935514955178788,0.0017266746400981057
6772.9846538684815,0.004026674402991038,0.0017092794677383229
6772.985653640697,0.004123523686712902,0.0016948060300283137
6772.986653412912,0.0042251984410979545,0.0016835208847876752
6772.987653185127,0.0043307193201025385,0.0016756681027597696
6772.988652957342,0.0044390054979501405,0.0016714639334485346
6772.989652729558,0.004548891130072223,0.0016710917102122503
6772.990652501773,0.004659144342691396,0.0016746970681473475
6772.991652273989,0.004768488178347816,0.0016823835457911611
6772.992652046203,0.004875622787688669,0.0016942086732885941
6772.993651818419,0.004979248084360511,0.0017101806922712923
6772.994651590634,0.005078086114648588,0.0017302560710314783
6772.9956513628495,0.005170902519939656,0.0017543379545920208
6772.996651135065,0.00525652661259529,0.001782275634800954
6772.997650907279,0.00533386966606799,0.0018138650663754856
6772.998650679495,0.0054019410379774445,0.0018488504104339461
6772.99965045171,0.005459861796720506,0.0018869265635145568
6773.000650223926,0.005506875693028029,0.0019277426224067811
6773.001649996141,0.005542357567730559,0.001970906235108425
6773.002649768356,0.005565819492467361,0.0020159887891993706
6773.003649540571,0.005576915026815408,0.0020625313831708083
6773.004649312787,0.0055754419624094755,0.0021100515047683473
6773.005649085002,0.005561343863932738,0.002158050299217796
6773.006648857217,0.005534710641419638,0.0022060202564976837
6773.007648629433,0.0054957783131539765,0.002253453099098289
6773.008648401647,0.005444928044350585,0.0022998476293857703
6773.009648173863,0.0053826844528156665,0.002344717303676457
6773.010647946078,0.005309713040054228,0.0023875973263209906
6773.011647718294,0.005226816461446248,0.0024280510890477775
6773.012647490509,0.005134929255012856,0.0024656758198540888
6773.013647262724,0.0050351106449274185,0.002500107356895075
6773.014647034939,0.004928535114752924,0.0025310240165354837
6773.015646807155,0.004816480574054793,0.002558149563885281
6773.01664657937,0.004700314083359857,0.00258125531893778
6773.017646351585,0.00458147522438134,0.0026001614584453166
6773.018646123801,0.0044614573022148316,0.00261473760628377
6773.019645896015,0.004341786674212609,0.002624902823718765
6773.020645668231,0.004224000642146889,0.002630625098804421
6773.021645440446,0.004109624501522003,0.0026319203999618135
6773.022645212662,0.004000148453145473,0.002628851331552799
6773.023644984877,0.0038970050912816145,0.0026215254314157378
6773.024644757092,0.0038015480882801172,0.002610093174193245
6773.025644529307,0.0037150325450279018,0.0025947457608291435
6773.0266443015225,0.0036385973203465717,0.0025757127692317104
6773.027644073738,0.0035732495120477433,0.0025532597234807293
6773.028643845953,0.003519851136104492,0.0025276856154095983
6773.029643618169,0.003479107940577692,0.0024993203794184365
6773.030643390383,0.0034515602191357796,0.002468522286916893
6773.031643162599,0.0034375754816200407,0.002435675202987858
6773.032642934814,0.0034373429001180998,0.0024011856306044984
6773.03364270703,0.0034508695493572082,0.0023654794529161484
6773.034642479245,0.0034779785546818444,0.0023289982849701747
6773.03564225146,0.003518309317596434,0.002292195372499229
6773.036642023675,0.003571320002164808,0.00225553101808925
6773.0376417958905,0.0036362924415709874,0.0022194675636885096
6773.038641568106,0.0037123395687133735,0.0021844640105932126
6773.039641340321,0.0037984154038213347,0.0021509704069179753
6773.040641112537,0.0038933275740309025,0.002119422167306985
6773.041640884751,0.003995752310362032,0.002090234511241193
6773.042640656967,0.004104251854743494,0.0020637972219275233
6773.043640429182,0.004217294190310951,0.002040469929576984
6773.044640201398,0.004333274963930038,0.0020205780944715624
6773.045639973613,0.004450541388470107,0.0020044098071695677
6773.046639745828,0.004567417794330102,0.0019922134534162204
6773.047639518043,0.004682232368853836,0.0019841962232006135
6773.0486392902585,0.004793344509022551,0.0019805233764115335
6773.049639062474,0.004899172125205743,0.0019813181100420876
6773.050638834689,0.004998218160311607,0.0019866618190514645
6773.051638606905,0.005089095528961315,0.001996594534516215
6773.052638379119,0.005170549663537924,0.0020111153725427245
6773.053638151335,0.005241477920546428,0.002030182909499799
6773.05463792355,0.005300945270740975,0.0020537154668631096
6773.055637695766,0.005348195935856426,0.0020815913169681456
6773.056637467981,0.005382660868297775,0.002113648820457877
6773.057637240196,0.005403961132153614,0.0021496865091596338
6773.058637012411,0.005411907323036371,0.0021894631588672982
6773.0596367846265,0.005406495205680067,0.002232697946649184
6773.060636556842,0.005387897820846378,0.002279070823467703
6773.061636329057,0.0053564544601921475,0.0023282232359171334
6773.062636101272,0.005312657098877675,0.0023797593143214963
6773.063635873487,0.005257135013984504,0.0024332476314813853
6773.064635645703,0.005190638324780073,0.002488223633533166
6773.065635417918,0.005114021080068237,0.0025441928416191587
6773.066635190134,0.005028224357276355,0.002600634907353743
6773.067634962348,0.004934259680241613,0.0026570085680038603
6773.068634734564,0.004833192921850468,0.0027127574878637703
6773.069634506779,0.004726128733536323,0.002767316900581634
6773.0706342789945,0.004614195445256138,0.002820120903343726
6773.07163405121,0.004498530330976265,0.0028706102160452425
6773.072633823425,0.004380265159086537,0.002918240207642377
6773.07363359564,0.004260512040153285,0.0029624889911184634
6773.074633367855,0.004140349707817174,0.0030028653850216053
6773.075633140071,0.004020810470400238,0.003038916539414664
6773.076632912286,0.003902868113105778,0.0030702350383709407
6773.077632684502,0.0037874270168581346,0.0030964653175680726
6773.078632456716,0.003675312733507805,0.0031173092635360233
6773.079632228932,0.003567264255687171,0.003132530884265139
6773.080632001147,0.0034639282333479436,0.0031419599587620855
6773.0816317733625,0.00336585537865793,0.003145494589048108
6773.082631545578,0.0032734992388743986,0.00314310259670227
6773.083631317793,0.0031872174018067285,0.0031348217294075104
6773.084631090008,0.0031072750503696365,0.0031207586679056743
6773.085630862223,0.0030338506334023027,0.0031010868480143695
6773.086630634439,0.0029670433004938992,0.003076043142918622
6773.087630406654,0.002906881679849296,0.0030459234932751454
6773.08863017887,0.00285333356463724,0.003011077610694791
6773.089629951084,0.00280631609656398,0.0029719028896159376
6773.0906297233,0.0027657060628771416,0.002928837648527155
6773.091629495515,0.0027313499290940704,0.0028823538162202874
6773.09262926773,0.002703073214666331,0.0028329491947118816
6773.093629039946,0.0026806888178169805,0.0027811394455404754
6773.094628812161,0.002664003960288735,0.0027274499454387783
6773.095628584376,0.0026528255678967888,0.002672407658147961
6773.096628356591,0.0026469640790161056,0.0026165331897416624
6773.097628128807,0.0026462358032636624,0.0025603332227123916
6773.098627901022,0.0026504639948955818,0.002504293533559201
6773.099627673238,0.0026594787809785542,0.002448872786077243
6773.100627445452,0.002673116052448351,0.0023944972710860063
6773.101627217668,0.0026912154355512316,0.0023415567336880125
6773.102626989883,0.0027136175164998704,0.0022904013810724957
6773.103626762098,0.002740160557553473,0.0022413400972940874
6773.104626534314,0.0027706769786165287,0.002194639817742348
6773.105626306529,0.0028049898721020385,0.0021505259481085304
6773.106626078744,0.0028429097780625625,0.0021091836651393183
6773.107625850959,0.0028842318807732526,0.0020707599231159913
6773.108625623175,0.00292873370562532,0.002035366006961247
6773.10962539539,0.0029761733128481765,0.0020030804908984477
6773.110625167606,0.0030262879279889182,0.001973952451686977
6773.11162493982,0.0030787929388222546,0.0019480047539380276
6773.112624712036,0.0031333812212071778,0.001925237211544264
6773.113624484251,0.0031897228072489715,0.0019056294664266348
6773.114624256466,0.003247464956788949,0.0018891435034897716
6773.115624028682,0.0033062327387018008,0.0018757257936457303
6773.116623800897,0.0033656302785490585,0.0018653090901951123
6773.117623573112,0.003425242869753877,0.001857813903798533
6773.118623345327,0.003484640150478376,0.001853149673036973
6773.119623117543,0.003543380510908827,0.001851215640091071
6773.120622889758,0.0036010168299932042,0.0018519014318494481
6773.121622661974,0.003657103557899759,0.0018550873496795883
6773.122622434188,0.0037112050586386646,0.0018606444096871781
6773.123622206404,0.0037629050013633755,0.0018684342429008698
6773.124621978619,0.003811816444724733,0.001878309016618305
6773.125621750834,0.0038575921258632343,0.0018901115369944768
6773.12662152305,0.0038999343939062014,0.001903675645224959
6773.127621295264,0.003938604251880071,0.0019188269539437773
6773.12862106748,0.003973429071701157,0.0019353839015813707
6773.129620839695,0.00400430865988167,0.0019531590333295994
6773.130620611911,0.004031219419497618,0.001971960360883995
6773.131620384126,0.004054216368575545,0.001991592633610261
6773.132620156341,0.00407343277630267,0.0020118583880367963
6773.133619928556,0.004089077224380178,0.002032558721040306
6773.134619700772,0.00410142803203861,0.0020534938162177106
6773.135619472987,0.004110825195388994,0.002074463301933425
6773.136619245202,0.004117660225956076,0.002095266525200301
6773.137619017418,0.004122364443088371,0.002115702809844635
6773.138618789632,0.004125396329098928,0.0021355717514212314
6773.139618561848,0.004127228515862623,0.00215467359319894
6773.140618334063,0.004128334897447851,0.002172809731402559
6773.141618106279,0.004129178296355661,0.002189783415568561
6773.142617878494,0.004130199055721944,0.002205400732695844
6773.143617650709,0.004131804868581115,0.002219471974124868
6773.144617422924,0.004134362067433956,0.0022318134707750704
6773.14561719514,0.0041381884876154195,0.002242249950533157
6773.146616967355,0.0041435479269906934,0.0022506174299680827
6773.14761673957,0.0041506461865622865,0.0022567666013018546
6773.148616511786,0.004159628671793923,0.002260566614051063
6773.149616284,0.004170579512041405,0.0022619090871314937
6773.150616056216,0.004183522097726661,0.0022607121342994975
6773.151615828431,0.004198420876466578,0.0022569241558418164
6773.152615600647,0.00421518423770617,0.0022505271522185945
6773.153615372862,0.004233668358618951,0.00224153935396779
6773.154615145077,0.0042536819358421985,0.002230017029502428
6773.155614917292,0.0042749917325022296,0.0022160554086562614
6773.156614689508,0.004297328824346842,0.002199788714605177
6773.157614461723,0.004320395380984413,0.0021813893078123053
6773.158614233938,0.004343871809499421,0.0021610659210202624
6773.159614006154,0.004367424113021199,0.002139060941281103
6773.160613778368,0.0043907113426010416,0.0021156467127111554
6773.161613550584,0.004413393023158363,0.002091120902191703
6773.162613322799,0.004435136414003081,0.002065801062273411
6773.163613095015,0.004455623430012432,0.0020400186003911485
6773.16461286723,0.0044745570038510025,0.002014112399804431
6773.165612639445,0.004491666631019297,0.0019884223406362008
6773.16661241166,0.004506712851781432,0.001963282953734939
6773.167612183876,0.00451949050592318,0.0019390174156635005
6773.168611956091,0.004529830698616891,0.0019159320633501979
6773.169611728306,0.004537601467544353,0.001894311572746646
6773.170611500522,0.004542707128371697,0.0018744149069552538
6773.171611272736,0.004545086253607559,0.0018564720932129784
6773.172611044952,0.004544708285214499,0.0018406818334820987
6773.173610817167,0.004541568923356696,0.0018272098951572471
6773.174610589383,0.004535684621821204,0.0018161881760034003
6773.175610361598,0.004527086668867545,0.0018077143004579315
6773.176610133813,0.0045158153894250715,0.0018018515920909099
6773.177609906028,0.004501914967867646,0.0017986292869968275
6773.178609678243,0.004485429282591465,0.0017980429042564782
6773.179609450459,0.004466399003437126,0.0018000547543957515
6773.180609222674,0.004444860074907748,0.0018045946168663803
6773.18160899489,0.00442084361738671,0.001811560639039082
6773.182608767104,0.004394377221846911,0.001820820512372507
6773.18360853932,0.004365487570805875,0.0018322129833237783
6773.184608311535,0.004334204272101488,0.0018455497624607236
6773.185608083751,0.004300564743973283,0.0018606178960367448
6773.186607855966,0.004264619957141705,0.0018771826475915783
6773.187607628181,0.004226440823961004,0.001894990903721134
6773.188607400396,0.00418612499211693,0.0019137750815293602
6773.189607172611,0.004143803716887024,0.0019332574823704074
6773.190606944827,0.0040996483728965956,0.001953155004890178
6773.191606717042,0.004053876091108918,0.0019731841068743646
6773.192606489257,0.004006754022325106,0.0019930659046752306
6773.193606261472,0.003958601834741235,0.0020125313191635182
6773.194606033688,0.0039097922025834765,0.002031326196351656
6773.195605805903,0.0038607491716523322,0.0020492163295079027
6773.196605578119,0.0038119443591540627,0.002065992285068808
6773.197605350333,0.003763890976759343,0.002081473901613035
6773.1986051225485,0.003717135715409086,0.002095514312920594
6773.199604894764,0.003672248651819109,0.00210800335233556
6773.200604666979,0.0036298115278444267,0.0021188702106238713
6773.201604439195,0.0035904049454028504,0.002128085229321466
6773.20260421141,0.0035545951296788022,0.0021356607311540433
6773.203603983625,0.0035229209122337297,0.0021416508372522768
6773.20460375584,0.003495881502477297,0.002146150279362595
6773.205603528056,0.0034739255016823737,0.002149292244534558
6773.206603300271,0.0034574415110196263,0.002151245281139005
6773.207603072487,0.0034467506123950636,0.002152209282006489
6773.208602844701,0.0034421009426556935,0.0021524105771500144
6773.2096026169165,0.003443664501115972,0.0021520962128081414
6773.210602389132,0.003451536207343976,0.002151527539190548
6773.211602161347,0.003465735081030418,0.002150973265536881
6773.212601933563,0.0034862072899002434,0.002150702181245019
6773.213601705778,0.0035128307301646113,0.002150975791488945
6773.214601477993,0.003545420762464083,0.0021520411517886836
6773.215601250208,0.00358373671416462,0.002154124179376232
6773.216601022424,0.003627488784364693,0.0021574236672423706
6773.217600794639,0.0036763450586069888,0.002162106151399307
6773.218600566855,0.0037299384289896315,0.0021683017095709936
6773.219600339069,0.003787873279513064,0.0021761007207897246
6773.2206001112845,0.003849731830751122,0.0021855515961088836
6773.2215998835,0.003915080077329189,0.002196659487174851
6773.222599655715,0.00398347332068182,0.002209385974668048
6773.223599427931,0.004054461379685918,0.0022236497291668426
6773.224599200146,0.004127593608263058,0.0022393281264306663
6773.225598972361,0.004202423829668412,0.002256259786854273
6773.226598744576,0.00427851522464754,0.0022742479938284415
6773.227598516792,0.004355445140748583,0.0022930649301475337
6773.228598289007,0.004432809769840139,0.002312456653449077
6773.229598061223,0.004510228654641989,0.0023321487030576317
6773.230597833437,0.004587348973276112,0.002351852190905579
6773.2315976056525,0.004663849482888311,0.002371270195077413
6773.232597377868,0.004739443906306178,0.0023901042700508286
6773.233597150083,0.0048138834684878316,0.0024080609190115184
6773.234596922299,0.0048869582734761595,0.0024248579138712507
6773.235596694514,0.004958497285672034,0.002440230360200375
6773.236596466729,0.005028366841828139,0.002453936378970265
6773.237596238944,0.005096467830686778,0.0024657622428195334
6773.23859601116,0.00516273186219548,0.002475526795214654
6773.239595783375,0.005227116843240113,0.0024830850102266007
6773.240595555591,0.005289602375779801,0.0024883306097216993
6773.241595327805,0.005350185339882738,0.0024911977211307984
6773.2425951000205,0.005408875943446193,0.0024916616120680395
6773.243594872236,0.005465694397718308,0.002489738569434053
6773.244594644451,0.005520668215787145,0.0024854850016635334
6773.245594416667,0.005573829987284677,0.0024789958424659693
6773.246594188882,0.00562521543074819,0.002470402338010327
6773.247593961097,0.005674861584060251,0.002459869315607099
6773.248593733312,0.005722805097145246,0.002447592050546192
6773.249593505528,0.005769080645121743,0.002433792849909907
6773.250593277743,0.0058137194445481875,0.0024187174485270405
6773.251593049959,0.00585674776559437,0.0024026312677901656
6773.252592822173,0.005898185257869577,0.002385815538283386
6773.2535925943885,0.00593804290276948,0.00236856325516577
6773.254592366604,0.005976320490950144,0.0023511749375180993
6773.255592138819,0.006013003683044496,0.0023339541867306336
6773.256591911035,0.006048060890185996,0.0023172030513191866
6773.257591683249,0.0060814403288655455,0.002301217194881642
6773.258591455465,0.006113067607438689,0.0022862808562375794
6773.25959122768,0.006142844099877347,0.0022726616142537495
6773.260590999896,0.006170646212048761,0.0022606050226408737
6773.261590772111,0.006196325507484437,0.0022503292426134833
6773.262590544326,0.006219709582044077,0.0022420198600880997
6773.263590316541,0.006240603575082261,0.002235825117089529
6773.264590088756,0.0062587922388871895,0.0022318517948072196
6773.265589860972,0.006274042503597947,0.0022301619462680644
6773.266589633187,0.006286106464232231,0.0022307706019202493
6773.267589405403,0.006294724708543654,0.002233644492907978
6773.268589177617,0.006299629909111872,0.002238701786221165
6773.269588949833,0.006300550602966329,0.002245812812576777
6773.270588722048,0.006297215061060539,0.0022548017700272805
6773.271588494264,0.006289355114732124,0.002265449374184032
6773.272588266479,0.0062767097940605926,0.002277496395037259
6773.273588038694,0.006259028690269764,0.0022906479937686132
6773.274587810909,0.006236075084308818,0.002304578771073557
6773.275587583124,0.006207629024000749,0.0023189384551297013
6773.27658735534,0.006173490608300487,0.002333358171992361
6773.277587127555,0.006133483727413926,0.0023474572430287836
6773.278586899771,0.006087460430489458,0.0023608504401747723
6773.279586671985,0.006035305962502691,0.0023731555942480705
6773.280586444201,0.005976944347732163,0.0023840013947660833
6773.281586216416,0.005912344248402273,0.0023930351610344856
6773.282585988632,0.005841524745413449,0.0023999303269756733
6773.283585760847,0.005764560684699215,0.002404393371493215
6773.2845855330615,0.005681587281546544,0.0024061699361845185
6773.285585305277,0.00559280375016178,0.0024050499058797816
6773.286585077492,0.005498475824556863,0.0024008712904375917
6773.287584849708,0.005398937154595443,0.0023935228254244947
6773.288584621923,0.005294589650552306,0.002382945280988906
6773.289584394139,0.00518590284918496,0.0023691315284581236
6773.290584166353,0.005073412277024324,0.002352125478350496
6773.291583938569,0.004957716652187111,0.002332020071992053
6773.292583710784,0.004839473678951939,0.002308954554782627
6773.293583483,0.004719394215504199,0.0022831112560556385
6773.294583255215,0.0045982347440820664,0.002254712051853202
6773.2955830274295,0.004476788285077142,0.0022240146250113424
6773.296582799645,0.004355874086665077,0.002191308595418603
6773.29758257186,0.00423632653022447,0.002156911579734392
6773.298582344076,0.0041189837030546,0.0021211652355265817
6773.299582116291,0.00400467602295836,0.002084431328531241
6773.300581888507,0.003894215194012097,0.0020470878282951082
6773.301581660721,0.0037883836713331984,0.002009524998546713
6773.302581432937,0.003687924748325378,0.0019721414230391174
6773.303581205152,0.003593533368778091,0.0019353399065711475
6773.304580977368,0.0035058477922391565,0.0018995232098638721
6773.305580749583,0.0034254422621819622,0.0018650896000972292
6773.3065805217975,0.0033528208136093516,0.0018324282102096052
6773.307580294013,0.00328841231959159,0.001801914198119618
6773.308580066228,0.0032325668378658133,0.0017739037045086403
6773.309579838444,0.003185553277064995,0.0017487286531900738
6773.310579610659,0.003147558338367804,0.0017266915183027324
6773.311579382875,0.0031186866054630177,0.0017080602561962695
6773.312579155089,0.0030989615854748885,0.0016930636258382977
6773.313578927305,0.003088327476828941,0.0016818870930136777
6773.31457869952,0.003086651469514724,0.0016746694511606064
6773.315578471736,0.00309372645886746,0.0016715002209452992
6773.316578243951,0.003109274138558029,0.0016724178333475015
6773.3175780161655,0.0031329484906313728,0.0016774085727466438
6773.318577788381,0.0031643397053308696,0.0016864062573266234
6773.319577560596,0.0032029785678048504,0.0016992926443289407
6773.320577332812,0.00324834135657626,0.001715898545216156
6773.321577105027,0.0032998552943599977,0.0017360056177570591
6773.322576877242,0.003356904553326715,0.0017593487808640312
6773.323576649457,0.0034188367373133672,0.0017856191824934802
6773.324576421673,0.003484969657840341,0.00181446764270293
6773.325576193888,0.0035545981293002666,0.001845508497585981
6773.326575966104,0.0036270004855030796,0.0018783237922686273
6773.327575738318,0.0037014445928317953,0.0019124678100630686
6773.3285755105335,0.0037771932681080196,0.0019474719639878653
6773.329575282749,0.003853509121135712,0.0019828500949599388
6773.330575054964,0.003929658880817733,0.0020181042058021173
6773.33157482718,0.0040049172502818866,0.0020527306176422863
6773.332574599395,0.004078570331167589,0.0020862264857432634
6773.33357437161,0.0041499187017001475,0.0021180965741949744
6773.334574143825,0.0042182803227456085,0.002147860166324186
6773.335573916041,0.004282993537404448,0.0021750579709066725
6773.336573688256,0.0043434204693600775,0.002199258865471781
6773.337573460472,0.004398951084847013,0.0022200662976702115
6773.338573232686,0.0044490080791322285,0.002237124154555104
6773.3395730049015,0.004493052627315359,0.0022501219249086504
6773.340572777117,0.004530590939160782,0.0022587990278822713
6773.341572549332,0.004561181487213376,0.0022629482476426354
6773.342572321548,0.004584442732377662,0.002262418278068408
6773.343572093763,0.004600061151173043,0.0022571154319664145
6773.344571865978,0.004607799365785769,0.0022470045987658845
6773.345571638193,0.004607504163579548,0.0022321095411544805
6773.346571410409,0.004599114137642459,0.0022125126133719
6773.347571182624,0.0045826665889907,0.0021883539730083302
6773.34857095484,0.004558303249469333,0.002159830343497982
6773.349570727054,0.004526274356335677,0.00212719335609475
6773.350570499269,0.0044869406359179615,0.002090747453272016
6773.351570271485,0.004440772809087084,0.002050847278785818
6773.3525700437,0.004388348313862377,0.0020078944350082006
6773.353569815916,0.0043303450767511785,0.0019623334833100024
6773.354569588131,0.0042675323577032786,0.0019146471103965968
6773.355569360346,0.004200758894770491,0.0018653504651196197
6773.356569132561,0.004130938721681145,0.001814984757144731
6773.357568904777,0.004059035106891354,0.001764110281914904
6773.358568676992,0.003986043098818908,0.0017132990827080797
6773.359568449208,0.003912971196718218,0.0016631274674891916
6773.360568221422,0.003840822701643513,0.0016141685649728994
6773.361567993637,0.003770577305056108,0.0015669850465243986
6773.362567765853,0.0037031734155032778,0.0015221220759311443
6773.363567538068,0.003639491614034644,0.0014801004909088913
6773.364567310284,0.0035803395068875485,0.0014414101864466686
6773.365567082499,0.003526438149071705,0.0014065036802918631
6773.366566854714,0.003478410156922596,0.0013757898933904284
6773.367566626929,0.0034367696053253425,0.0013496282416154326
6773.368566399145,0.003401913811108704,0.001328323172622718
6773.36956617136,0.003374117122736258,0.0013121192805921015
6773.370565943576,0.0033535268332250037,0.0013011971087446418
6773.37156571579,0.003340161291711855,0.0012956697299252992
6773.372565488005,0.0033339102412480543,0.0012955801896585573
6773.373565260221,0.0033345373979685685,0.001300899895518533
6773.374565032436,0.0033416853034523805,0.0013115280267699929
6773.375564804652,0.003354882479272277,0.001327292013006435
6773.376564576867,0.003373552857860055,0.0013479490962001986
6773.377564349082,0.003397027374276137,0.00137318895763336
6773.378564121297,0.0034245575231380844,0.0014026373677806432
6773.379563893513,0.003455330639892494,0.0014358608097214088
6773.380563665728,0.003488486645358067,0.0014723720357288264
6773.381563437943,0.003523135966921345,0.0015116365293955031
6773.382563210158,0.003558378296302455,0.0015530798427907482
6773.383562982373,0.0035933217586828752,0.0015960957556019673
6773.384562754589,0.003627101966073935,0.001640055175049542
6773.385562526804,0.003658900343759199,0.0016843156711734049
6773.38656229902,0.003687961099516599,0.0017282315157212127
6773.387562071234,0.0037136062821641483,0.0017711640573934925
6773.38856184345,0.0037352485317229496,0.0018124922262865424
6773.389561615665,0.003752401292951421,0.0018516229283028923
6773.390561387881,0.0037646863811665776,0.0018880010775720467
6773.391561160096,0.0037718388435681364,0.0019211190226913252
6773.392560932311,0.003773709096478818,0.0019505251369702223
6773.393560704526,0.0037702623888288584,0.0019758313505092925
6773.394560476741,0.003761575760122992,0.001996719413618632
6773.395560248957,0.003747832803268232,0.0020129457257226516
6773.396560021172,0.003729316654535133,0.002024344651156645
6773.397559793388,0.0037064016622765385,0.0020308303443527503
6773.398559565602,0.003679544131463677,0.002032397182014287
6773.399559337818,0.0036492724562167214,0.0020291189324933524
6773.400559110033,0.003616176894205595,0.002021146790322297
6773.4015588822485,0.0035808992214271885,0.0020087063799157047
6773.402558654464,0.0035441225118812442,0.0019920937972784988
6773.403558426679,0.003506561279292819,0.0019716707231004268
6773.404558198894,0.003468952168175109,0.0019478586184719965
6773.405557971109,0.0034320452819195033,0.0019211320177499665
6773.406557743325,0.003396596115278148,0.0018920109652062972
6773.40755751554,0.0033633579729704455,0.001861052692993768
6773.408557287756,0.0033330747398073856,0.0018288426895095627
6773.40955705997,0.003306473892566684,0.001795985344777484
6773.410556832186,0.003284259644432568,0.0017630943755745129
6773.411556604401,0.0032671060619150526,0.0017307832259004419
6773.4125563766165,0.0032556499401886463,0.0016996556174044746
6773.413556148832,0.003250483246141327,0.001670296407803163
6773.414555921047,0.0032521450696497,0.0016432629099474507
6773.415555693262,0.003261113205375965,0.0016190768191167676
6773.416555465477,0.003277795626862847,0.0015982168817923568
6773.417555237693,0.00330252216768141,0.0015811124170363774
6773.418555009908,0.0033355367143890246,0.0015681377753662207
6773.419554782124,0.0033769901892737515,0.001559607790578202
6773.420554554338,0.003426934586227965,0.0015557742481067435
6773.421554326554,0.003485318322660135,0.0015568233624361893
6773.422554098769,0.0035519831654112805,0.0015628742312191793
6773.4235538709845,0.0036266629533914445,0.0015739782205858213
6773.4245536432,0.003708984258125133,0.0015901192407043875
6773.425553415415,0.0037984690052144266,0.0016112148945150312
6773.42655318763,0.0038945389655593026,0.0016371185095142282
6773.427552959845,0.003996521962959083,0.0016676220660377468
6773.428552732061,0.004103659643653796,0.001702460008595201
6773.429552504276,0.004215116668150123,0.0017413138878112212
6773.430552276492,0.004329991162815454,0.0017838177485594272
6773.431552048706,0.004447326205204346,0.001829564158396318
6773.432551820922,0.004566122060415372,0.0018781107516142616
6773.433551593137,0.004685348882234976,0.0019289871424831946
6773.4345513653525,0.00480395965117802,0.0019817020437742144
6773.435551137568,0.004920903219823903,0.002035750426764191
6773.436550909782,0.005035137437556661,0.0020906205764646205
6773.437550681998,0.005145642387015165,0.002145800915173015
6773.438550454213,0.005251433746129133,0.0022007864787979827
6773.439550226429,0.00535157618914489,0.0022550849406224576
6773.440549998644,0.005445196595153824,0.0023082220960653752
6773.44154977086,0.005531496706136059,0.002359746752456625
6773.442549543074,0.005609764828095806,0.002409235009117325
6773.44354931529,0.005679386219623999,0.002456293957399857
6773.444549087505,0.005739851928222952,0.002500564861947904
6773.4455488597205,0.00579076595371085,0.0025417258954227046
6773.446548631936,0.005831850692216885,0.0025794944953810286
6773.44754840415,0.005862950626107428,0.002613629397625701
6773.448548176366,0.005884034178664076,0.002643932373585114
6773.449547948581,0.005895193569346035,0.002670249668888952
6773.450547720797,0.005896642430818076,0.002692473120942835
6773.451547493012,0.005888710945348285,0.0027105409221317356
6773.452547265227,0.005871838376093332,0.0027244379725315203
6773.453547037442,0.005846563095475799,0.002734195723058995
6773.454546809658,0.005813510457015024,0.0027398913661473706
6773.455546581873,0.005773379019074461,0.002741646219354426
6773.4565463540885,0.005726925682232218,0.0027396231882424677
6773.457546126304,0.0056749502786735545,0.0027340232850034192
6773.458545898518,0.005618280080836257,0.002725081298740042
6773.459545670734,0.005557754592077001,0.002713060832112295
6773.460545442949,0.00549421087395119,0.0026982489989507354
6773.461545215165,0.005428469591986804,0.002680951089824506
6773.46254498738,0.005361321929004366,0.002661485463929911
6773.463544759595,0.005293517481058076,0.002640178848591079
6773.46454453181,0.005225753182888676,0.0026173621441413428
6773.465544304026,0.005158663231015114,0.0025933667436740166
6773.466544076241,0.005092809946475494,0.0025685212905899777
6773.467543848456,0.005028675586856055,0.002543148739192896
6773.468543620671,0.004966655247909405,0.0025175635829953026
6773.469543392886,0.004907051096402729,0.0024920691665517077
6773.470543165102,0.0048500681692066686,0.0024669550589125275
6773.471542937317,0.004795811869773673,0.002442494506926833
6773.472542709533,0.004744287186052422,0.0024189420080413812
6773.473542481748,0.004695399632717826,0.0023965310612073273
6773.474542253963,0.004648957992174241,0.0023754721680915307
6773.475542026178,0.004604679026217168,0.0023559511502861167
6773.476541798394,0.004562194379400852,0.0023381278198334517
6773.477541570609,0.004521059861251228,0.0023221350068619974
6773.478541342824,0.004480767184168891,0.0023080779304100983
6773.479541115039,0.0044407580782839405,0.0022960339040700144
6773.480540887254,0.004400440537665022,0.002286052384502394
6773.48154065947,0.004359206796037908,0.002278155376714827
6773.482540431685,0.004316452499327028,0.0022723381956343738
6773.483540203901,0.004271596448798925,0.002268570560248576
6773.484539976116,0.004224100229207675,0.002266797978980114
6773.485539748331,0.004173487003988417,0.0022669433719307032
6773.486539520546,0.004119358776559201,0.002268908860336865
6773.4875392927615,0.004061411515779074,0.0022725776398751364
6773.488539064977,0.003999447703594157,0.0022778158532769767
6773.489538837192,0.003933386009871869,0.0022844743969073164
6773.490538609407,0.003863267887553327,0.0022923906353363756
6773.491538381622,0.0037892609407668486,0.0023013900454660137
6773.492538153838,0.0037116590078369194,0.002311287848643304
6773.493537926053,0.0036308790350494855,0.002321890705392306
6773.494537698269,0.0035474549543532234,0.00233299854537013
6773.495537470484,0.003462028864899686,0.0023444065860665246
6773.496537242699,0.003375339837970837,0.002355907555009921
6773.497537014914,0.003288210651071506,0.002367294083367694
6773.4985367871295,0.003201532756090676,0.0023783612127251256
6773.499536559345,0.003116249812966917,0.0023889089680626135
6773.50053633156,0.0030333401537162015,0.002398744981092718
6773.501536103775,0.0029537985532123246,0.0024076871689858587
6773.50253587599,0.0028786176579986182,0.0024155664730232387
6773.503535648206,0.002808769372567052,0.0024222296467953613
6773.504535420421,0.0027451864542622547,0.002427542059221727
6773.505535192637,0.0026887445463648174,0.0024313904439610327
6773.506534964852,0.0026402448764563766,0.0024336854893061218
6773.507534737067,0.0026003978461578013,0.002434364131973302
6773.508534509282,0.0025698077443941643,0.002433391400331884
6773.5095342814975,0.002548958843818377,0.0024307616516619393
6773.510534053713,0.002538203176752966,0.0024264990754146554
6773.511533825928,0.002537750303995511,0.0024206573964655987
6773.512533598143,0.0025476593736803183,0.0024133187880128215
6773.513533370358,0.002567833722334815,0.0024045920599406875
6773.514533142574,0.00259801820656032,0.0023946102173611696
6773.515532914789,0.002637799389972361,0.00238352750192211
6773.516532687005,0.002686608666228888,0.002371516041644893
6773.517532459219,0.002743728375363525,0.0023587622302057225
6773.518532231435,0.0028083009496559248,0.002345462926242908
6773.51953200365,0.0028793410944966233,0.0023318215277948343
6773.5205317758655,0.002955750964506548,0.0023180439714328
6773.521531548081,0.003036338227562384,0.00230433474209055
6773.522531320296,0.0031198368130498613,0.00229089302917006
6773.523531092511,0.003204930021094749,0.002277909184240034
6773.524530864726,0.0032902755427703365,0.002265561606229581
6773.525530636942,0.0033745318281360624,0.002254014113875077
6773.526530409157,0.003456385154348253,0.0022434137916461107
6773.527530181373,0.003534576690138335,0.002233889242692396
6773.528529953587,0.0036079288211433714,0.002225549160558934
6773.529529725803,0.003675369992914432,0.0022184811320009644
6773.530529498018,0.0037359573415708673,0.002212750600070291
6773.5315292702335,0.00378889642021785,0.0022083999527975568
6773.532529042449,0.003833557422457934,0.0022054477517347154
6773.533528814663,0.0038694874750661128,0.002203888155093877
6773.534528586879,0.003896418785928307,0.002203690606461512
6773.535528359094,0.003914272616980947,0.0022047998542976473
6773.53652813131,0.0039231591586148095,0.002207136353243252
6773.537527903525,0.003923373427235711,0.002210597091143537
6773.538527675741,0.003915387336577978,0.0022150568923878277
6773.539527447955,0.0038998381304345656,0.002220370256327168
6773.540527220171,0.0038775134097349733,0.002226373777645356
6773.541526992386,0.0038493330438262863,0.0022328891578075184
6773.5425267646015,0.0038163283357468525,0.0022397267673430676
6773.543526536817,0.003779618915314672,0.0022466896730712416
6773.544526309031,0.003740387943212565,0.0022535780083287405
6773.545526081247,0.00369985629327904,0.0022601935404483213
6773.546525853462,0.0036592564153415173,0.002266344279951661
6773.547525625678,0.0036198065614841284,0.002271848974534848
6773.548525397893,0.0035826859899161204,0.0022765413270247415
6773.549525170109,0.0035490116557250176,0.0022802737685633304
6773.550524942323,0.0035198167832557353,0.002282920622158015
6773.551524714539,0.0034960316215055885,0.0022843805265597536
6773.552524486754,0.003478466626311989,0.0022845780534233437
6773.553524258969,0.003467798280601615,0.0022834645135077027
6773.554524031185,0.003464557733027538,0.002281017986906871
6773.555523803399,0.003469122394495494,0.0022772426346351323
6773.556523575615,0.003481710588830911,0.0022721673740401373
6773.55752334783,0.003502379311007444,0.0022658440311640426
6773.558523120046,0.0035310250927896502,0.002258345104545272
6773.559522892261,0.003567387907858365,0.0022497612734975014
6773.560522664477,0.003611057975627574,0.0022401987583638744
6773.561522436691,0.003661485250654683,0.00222977660249459
6773.562522208907,0.0037179913211925395,0.002218623912347399
6773.563521981122,0.0037797834090153434,0.0022068770730533146
6773.564521753337,0.003845970174051755,0.0021946769538917516
6773.565521525553,0.003915579050276708,0.0021821661279617694
6773.566521297767,0.003987574827676366,0.002169486143401673
6773.567521069983,0.004060879140688239,0.0021567748913449685
6773.568520842198,0.004134390458173638,0.0021441641212344453
6773.569520614414,0.004207004124390769,0.0021317771648227107
6773.570520386629,0.004277631982667662,0.0021197269428008393
6773.571520158845,0.0043452211220864154,0.002108114326002093
6773.572519931059,0.004408771322892671,0.0020970268953802904
6773.5735197032745,0.004467350835056614,0.0020865381057009994
6773.57451947549,0.004520110199425803,0.0020767068373241885
6773.575519247705,0.004566293911109807,0.002067577329900433
6773.576519019921,0.004605249827378822,0.002059179509139639
6773.577518792135,0.004636436318959866,0.002051529713649472
6773.578518564351,0.004659427236857265,0.002044631797842934
6773.579518336566,0.004673914828354217,0.0020384785471778185
6773.580518108782,0.004679710808236065,0.002033053312027987
6773.581517880997,0.004676745866438476,0.002028331755180271
6773.582517653212,0.0046650679382321016,0.0020242836215370315
6773.583517425427,0.004644839556817856,0.0020208744765436
6773.5845171976425,0.004616334551396511,0.0020180674037865868
6773.585516969858,0.0045799342593072015,0.002015824681231486
6773.586516742073,0.00453612331169976,0.0020141094695016746
6773.587516514289,0.004485484953377842,0.002012887552271924
6773.588516286503,0.004428695782049569,0.002012129161666932
6773.589516058719,0.004366519740999627,0.0020118108927838314
6773.590515830934,0.004299801170352165,0.00201191767339057
6773.59151560315,0.004229456716537514,0.002012444726926042
6773.592515375365,0.004156465925055552,0.0020133994495990697
6773.59351514758,0.0040818604191110676,0.0020148030988937746
6773.594514919795,0.004006711713145204,0.0020166921528352298
6773.5955146920105,0.003932117897265279,0.0020191191588118406
6773.596514464226,0.0038591895814540454,0.002022152866100404
6773.597514236441,0.00378903554769186,0.002025877442025341
6773.598514008656,0.003722748524221924,0.002030390621803804
6773.599513780871,0.003661391410826232,0.0020358007433041634
6773.600513553087,0.0036059841895666974,0.0020422227505077235
6773.601513325302,0.003557491669085684,0.0020497733694942203
6773.602513097518,0.003516812119722953,0.002058565732157031
6773.603512869733,0.0034847667466028063,0.0020687037411253033
6773.604512641948,0.003462089838245349,0.002080276454348327
6773.605512414163,0.003449419370037115,0.0020933527442942683
6773.6065121863785,0.003447287872360258,0.002107976469937034
6773.607511958594,0.0034561134823017925,0.002124162385710724
6773.608511730809,0.0034761912373756114,0.002141892982573646
6773.609511503024,0.003507684786422269,0.002161116402909054
6773.610511275239,0.0035506187574290485,0.0021817455032790696
6773.611511047455,0.003604872041135945,0.0022036580696475254
6773.61251081967,0.003670172256124132,0.0022266981208242213
6773.613510591886,0.0037460916884775636,0.002250678173777852
6773.614510364101,0.003832045053815414,0.002275382306824022
6773.615510136316,0.0039272894835719295,0.0023005698487093573
6773.616509908531,0.004030927147413237,0.002325979523013642
6773.6175096807465,0.004141910866106596,0.002351333872717513
6773.618509452962,0.004259052956574452,0.002376343796533101
6773.619509225177,0.004381037416234446,0.0024007130737094783
6773.620508997392,0.004506435422729942,0.0024241428328765882
6773.621508769607,0.004633723999860942,0.0024463359957056494
6773.622508541823,0.004761307567375709,0.0024670017627104746
6773.623508314038,0.004887541943401076,0.002485860197575382
6773.624508086254,0.005010760218894194,0.002502646920591061
6773.625507858469,0.005129299822904739,0.00251711786020109
6773.626507630684,0.005241530107197474,0.0025290539521019132
6773.627507402899,0.005345879901704082,0.002538265634720682
6773.6285071751145,0.005440864636464346,0.0025445969805029146
6773.62950694733,0.005525112679152284,0.0025479293201913084
6773.630506719545,0.005597390463234776,0.002548184244546956
6773.63150649176,0.0056566258187405755,0.00254532589549707
6773.632506263975,0.005701928726114162,0.0025393624862578897
6773.633506036191,0.005732608564955494,0.00253034700421866
6773.634505808406,0.005748186918300123,0.0025183770356630494
6773.635505580622,0.005748405196953483,0.002503593624055638
6773.636505352837,0.005733226739125215,0.002486179070938639
6773.637505125052,0.005702833465369733,0.0024663536264022735
6773.638504897267,0.005657617473371184,0.002444371082664578
6773.639504669482,0.005598168122737695,0.002420513363569274
6773.640504441698,0.005525255273082517,0.002395084283097905
6773.641504213913,0.0054398094473759664,0.002368402714472198
6773.642503986128,0.00534289975751963,0.0023407954551409363
6773.643503758343,0.005235710404311363,0.002312590081428631
6773.644503530559,0.005119516465163008,0.0022841080558923988
6773.645503302774,0.0049956595675656615,0.0022556582915902023
6773.64650307499,0.004865523958122655,0.0022275313132669016
6773.647502847204,0.004730513417650634,0.0021999941045816786
6773.64850261942,0.004592029410771204,0.002173285701557771
6773.649502391635,0.004451450760730142,0.0021476135860999807
6773.65050216385,0.004310115009319243,0.0021231509412187985
6773.651501936066,0.004169301505814293,0.0021000348373228514
6773.652501708281,0.004030216223787624,0.002078365413773055
6773.653501480496,0.003893978340108049,0.0020582060923560615
6773.654501252711,0.003761608684039549,0.002039584808238315
6773.655501024927,0.0036340202279242398,0.002022496183841197
6773.656500797142,0.0035120108197882263,0.002006904523838276
6773.657500569358,0.003396258341633568,0.0019927474846893893
6773.658500341572,0.0032873184140801252,0.001979940263535329
6773.659500113788,0.003185624674709602,0.001968380151728539
6773.660499886003,0.0030914915585383094,0.001957951307145394
6773.661499658218,0.003005119419082483,0.0019485296156722248
6773.662499430434,0.0029266017488586904,0.001939987529571401
6773.663499202648,0.002855934184272511,0.0019321987814180154
6773.664498974864,0.002793024912510691,0.001925042875333519
6773.665498747079,0.002737706059632893,0.001918409257622163
6773.666498519295,0.0026897456625626114,0.0019122010727308755
6773.66749829151,0.0026488599076131313,0.0019063384187796963
6773.668498063726,0.002614725394859793,0.0019007610260487722
6773.66949783594,0.0025869912041672654,0.0018954302900980858
6773.670497608156,0.0025652904942123425,0.0018903306040958761
6773.671497380371,0.0025492513057737377,0.001885469956133995
6773.672497152586,0.0025385062178036786,0.0018808797769980085
6773.673496924802,0.002532700552450618,0.0018766140301479024
6773.674496697016,0.0025314989451559926,0.0018727475396946066
6773.675496469232,0.002534590259372406,0.001869373581935893
6773.676496241447,0.0025416909792471366,0.0018666008258389271
6773.677496013663,0.002552547300928999,0.0018645497650127906
6773.678495785878,0.002566936142688859,0.0018633488051957752
6773.679495558094,0.0025846652399850803,0.001863130153106484
6773.680495330308,0.0026055724409432234,0.0018640256115457403
6773.681495102524,0.0026295242966350753,0.0018661623446855013
6773.682494874739,0.002656414029876276,0.0018696586562149404
6773.683494646954,0.002686158939649304,0.0018746198267887888
6773.68449441917,0.0027186972605272785,0.0018811340757726475
6773.685494191384,0.002753984475711039,0.0018892687331145614
6773.6864939636,0.002791989095222969,0.0018990667244801914
6773.687493735815,0.002832687944361149,0.001910543484435803
6773.688493508031,0.0028760610335730515,0.0019236844158994325
6773.689493280246,0.0029220860865763307,0.0019384430050888078
6773.6904930524615,0.002970732800556602,0.001954739675790268
6773.691492824676,0.003021956921049772,0.0019724614305626094
6773.692492596892,0.003075694246485065,0.001991462298808399
6773.693492369107,0.003131854727040726,0.0020115646063273095
6773.694492141322,0.00319031687358607,0.0020325610860023598
6773.695491913538,0.003250922738980113,0.002054217838705727
6773.696491685752,0.003313473772387735,0.0020762781143549907
6773.697491457968,0.003377727857417672,0.002098466825236865
6773.698491230183,0.0034433978074143363,0.0021204956533106964
6773.699491002399,0.0035101515161046542,0.002142068593851265
6773.700490774614,0.0035776138769974303,0.002162887788190055
6773.7014905468295,0.0036453705043657044,0.0021826595139116138
6773.702490319044,0.003712973202385399,0.0022011002036765397
6773.70349009126,0.003779947021061644,0.00221794235915695
6773.704489863475,0.0038457986109239994,0.002232940224867269
6773.70548963569,0.003910025476800935,0.0022458750843658607
6773.706489407906,0.003972125685040903,0.0022565600314953054
6773.70748918012,0.004031607625858604,0.0022648440608513615
6773.708488952336,0.004087999538381469,0.0022706153322093713
6773.709488724551,0.004140858587791586,0.002273803499839474
6773.710488496767,0.004189779279293744,0.0022743810537710785
6773.711488268982,0.004234400913586931,0.002272363687771239
6773.712488041197,0.00427441371078453,0.0022678097746531025
6773.713487813412,0.004309563244463127,0.002260819071674067
6773.714487585628,0.004339652967648406,0.0022515307842691035
6773.715487357843,0.004364544822702815,0.0022401210985588792
6773.716487130058,0.004384158110808999,0.002226800275725824
6773.717486902274,0.004398466895506431,0.002211809387762413
6773.718486674488,0.004407496240043422,0.002195416745373592
6773.719486446704,0.00441131758206894,0.002177914012063335
6773.720486218919,0.004410043568968173,0.0021596119310819998
6773.721485991135,0.00440382270028958,0.0021408355585607517
6773.72248576335,0.004392834103382728,0.002121918933695905
6773.723485535565,0.004377282680215325,0.0021031992140946015
6773.72448530778,0.0043573947418616005,0.0020850104066925
6773.725485079995,0.004333414157081531,0.002067676883501326
6773.726484852211,0.004305599016624783,0.002051506877271448
6773.727484624426,0.004274218837539829,0.0020367861255266443
6773.728484396641,0.004239552363080675,0.0020237718033879245
6773.729484168856,0.004201886021470686,0.0020126868809753028
6773.730483941072,0.004161513069635591,0.0020037150624245405
6773.731483713287,0.004118733363935853,0.0019969964889683337
6773.732483485503,0.004073853595706755,0.001992624391495086
6773.733483257718,0.00402718775607592,0.0019906428493118304
6773.734483029933,0.0039790576026263475,0.001991045763445483
6773.735482802148,0.003929792998254684,0.001993777101197899
6773.736482574363,0.003879732126973776,0.001998732420236475
6773.737482346579,0.0038292216890173808,0.002005761636471432
6773.738482118794,0.0037786172015499228,0.0020146729641883966
6773.739481891009,0.0037282834902446927,0.002025237928671647
6773.740481663224,0.0036785953747811794,0.0020371973217486235
6773.74148143544,0.0036299384436147726,0.002050267935456974
6773.742481207655,0.0035827096923354406,0.0020641498777531535
6773.743480979871,0.003537317690150139,0.0020785342577809415
6773.744480752086,0.0034941818776519414,0.0020931110276963118
6773.745480524301,0.0034537306160294925,0.0021075767759071765
6773.746480296516,0.00341639770826082,0.0021216422742647047
6773.747480068731,0.0033826172773908495,0.0021350395844212575
6773.748479840947,0.0033528170797360118,0.00214752852509331
6773.749479613162,0.003327410503656842,0.0021589022987916623
6773.750479385377,0.003306787614026528,0.0021689920929482127
6773.751479157592,0.0032913056358769934,0.0021776705219554637
6773.752478929808,0.0032812792497224344,0.002184853852090449
6773.753478702023,0.0032769710325081967,0.0021905030228362666
6773.754478474239,0.003278582353502506,0.002194623528951343
6773.755478246454,0.003286245036762373,0.00219726425415026
6773.7564780186685,0.0033000141181939243,0.0021985153506661964
6773.757477790884,0.0033198620252177635,0.002198505248810534
6773.758477563099,0.003345674471287165,0.0021973968711911144
6773.759477335315,0.0033772482958371276,0.002195383122379961
6773.76047710753,0.003414291409216367,0.002192681723526462
6773.761476879745,0.0034564249169809973,0.0021895294681309086
6773.76247665196,0.003503187384007381,0.00218617600589667
6773.763476424176,0.0035540410608733766,0.0021828773201300433
6773.764476196391,0.0036083797662350937,0.0021798891234131325
6773.765475968607,0.003665538048051274,0.0021774604165296185
6773.766475740822,0.0037248012644415006,0.002175827424253976
6773.7674755130365,0.0037854163121165654,0.0021752080649185095
6773.768475285252,0.0038466028246341008,0.002175797066356013
6773.769475057467,0.003907564711508312,0.002177761823703096
6773.770474829683,0.003967501908817242,0.0021812390878409933
6773.771474601898,0.004025622194228328,0.002186332550966567
6773.772474374113,0.004081152911602435,0.0021931113508456873
6773.773474146328,0.0041333524583859116,0.0022016094654166455
6773.774473918544,0.004181521404667793,0.0022118259413737894
6773.775473690759,0.004225013120469058,0.0022237259056550893
6773.776473462975,0.00426324377389787,0.0022372423278015784
6773.777473235189,0.004295701528116394,0.0022522785003575027
6773.7784730074045,0.00432195471884997,0.0022687111727084782
6773.77947277962,0.004341658745915772,0.002286394228616985
6773.780472551835,0.004354561390006957,0.002305162757452866
6773.781472324051,0.004360506314370023,0.002324837337466464
6773.782472096266,0.004359434633243034,0.0023452283298438
6773.783471868481,0.004351384559166571,0.0023661399868093198
6773.784471640696,0.004336489210090875,0.002387374211161356
6773.785471412912,0.004314972658357484,0.0024087338557211026
6773.786471185127,0.004287144285547015,0.0024300254997620843
6773.787470957343,0.004253391526545809,0.002451061675169928
6773.788470729557,0.004214171158550861,0.0024716625437252167
6773.7894705017725,0.004169999368451304,0.002491657061998385
6773.790470273988,0.004121440854198059,0.0025108837092027514
6773.791470046203,0.004069097180893032,0.0025291908738915582
6773.792469818419,0.0040135945796880195,0.0025464369869167445
6773.793469590633,0.003955571405506815,0.002562490467027856
6773.794469362849,0.0038956655614312365,0.0025772295340729706
6773.795469135064,0.003834502296746665,0.0025905419506655164
6773.79646890728,0.0037726828222630904,0.002602324770090371
6773.797468679495,0.0037107741368518454,0.0026124841817856876
6773.798468451711,0.0036493003575059292,0.002620935542831642
6773.799468223925,0.0035887357403529144,0.0026276036650774402
6773.8004679961405,0.003529499495353619,0.002632423403670744
6773.801467768356,0.003471952433494876,0.0026353405684579672
6773.802467540571,0.0034163954353269984,0.0026363131507169584
6773.803467312787,0.0033630696819709604,0.0026353128201929915
6773.804467085001,0.0033121585306929535,0.0026323266017229062
6773.805466857217,0.0032637908408844844,0.002627358593706223
6773.806466629432,0.0032180454680255815,0.002620431561931616
6773.807466401648,0.0031749565617380693,0.002611588254444567
6773.808466173863,0.0031345192662077803,0.0026008923346766437
6773.809465946079,0.003096695463830197,0.0025884288906783334
6773.810465718293,0.0030614193199465607,0.0025743045202569477
6773.811465490508,0.0030286025184487323,0.0025586470126271175
6773.812465262724,0.0029981391653255782,0.002541604660594155
6773.813465034939,0.0029699103734126793,0.0025233452522016695
6773.814464807155,0.0029437885537850674,0.002504054796716235
6773.815464579369,0.0029196414390652336,0.0024839360167485582
6773.816464351585,0.002897335847772372,0.0024632065872217607
6773.8174641238,0.0028767411752511404,0.0024420970531927005
6773.818463896016,0.002857732583762725,0.002420848343499759
6773.819463668231,0.0028401938711783065,0.002399708822842632
6773.820463440447,0.0028240200214928717,0.0023789308767363584
6773.821463212661,0.00280911946796689,0.002358767080843317
6773.822462984876,0.002795416108702383,0.002339466051654132
6773.823462757092,0.0027828510878522045,0.002321268101842056
6773.824462529307,0.002771384304590454,0.0023044008327232136
6773.825462301523,0.002760995574194077,0.002289074794712587
6773.826462073737,0.002751685368384427,0.002275479340839841
6773.827461845953,0.0027434750943729986,0.002263778791485332
6773.828461618168,0.0027364069051067814,0.0022541090178405552
6773.829461390384,0.0027305430549587526,0.002246574531009568
6773.830461162599,0.002725964833938636,0.002241246136904126
6773.831460934815,0.0027227711413443044,0.0022381592051332064
6773.832460707029,0.00272107679626201,0.0022373126175663474
6773.833460479244,0.0027210107129577907,0.0022386684875004823
6773.83446025146,0.002722714080155777,0.002242152731994639
6773.835460023675,0.0027263386719398783,0.002247656524149605
6773.836459795891,0.0027320453906041313,0.0022550385762929656
6773.837459568105,0.0027400031091713477,0.002264128150209573
6773.838459340321,0.002750387854541322,0.002274728680159092
6773.839459112536,0.0027633823533642753,0.0022866219190529275
6773.840458884752,0.002779175942235941,0.002299572544308989
6773.841458656967,0.0027979648101454494,0.0023133331594089638
6773.8424584291815,0.002819952492008219,0.0023276496001252965
6773.843458201397,0.002845350476669259,0.0023422664223609487
6773.844457973612,0.00287437874739315,0.0023569324287688286
6773.845457745828,0.0029072660564274755,0.002371406082153102
6773.846457518043,0.0029442497597232152,0.002385460644647663
6773.847457290259,0.0029855750980093544,0.00239888886944821
6773.848457062473,0.003031493881231111,0.0024115070653465825
6773.849456834689,0.0030822625787134427,0.002423158370910156
6773.850456606904,0.0031381398108971787,0.0024337151262280414
6773.85145637912,0.003199383184665683,0.0024430803022826046
6773.852456151335,0.003266245345313727,0.002451188008435518
6773.8534559235495,0.0033389690721128576,0.002458003126047181
6773.854455695765,0.0034177812503734016,0.002463520117355842
6773.85545546798,0.003502885624351982,0.002467761054295507
6773.856455240196,0.0035944543589911727,0.002470772921607916
6773.857455012411,0.003692618568678879,0.002472624281253809
6773.858454784626,0.0037974580564454387,0.0024734014285332073
6773.859454556841,0.003908990538737619,0.002473204198870019
6773.860454329057,0.004027160650578954,0.002472141587185946
6773.861454101272,0.004151829065300171,0.0024703273341341696
6773.862453873488,0.004282762098706163,0.0024678756327462187
6773.863453645703,0.004419622156466964,0.002464897112883868
6773.8644534179175,0.004561959318936758,0.002461495255029733
6773.865453190133,0.004709204272525169,0.0024577633631402
6773.866452962348,0.004860662741394988,0.0024537821899442216
6773.867452734564,0.005015511592180844,0.002449618255618502
6773.868452506779,0.005172796874696513,0.002445322832306853
6773.869452278994,0.005331434157598904,0.002440931496360183
6773.870452051209,0.005490211553448674,0.0024364641052785005
6773.871451823425,0.005647795797325528,0.002431925064482559
6773.87245159564,0.005802741683511888,0.002427303812343608
6773.873451367856,0.005953505107596971,0.0024225755340267093
6773.874451140071,0.006098459918151338,0.0024177021672906972
6773.8754509122855,0.0062359187342572306,0.002412633769321754
6773.876450684501,0.006364157786511434,0.0024073102931787874
6773.877450456716,0.006481445660030914,0.002401663799372725
6773.878450228932,0.006586075579783223,0.0023956211041597803
6773.879450001147,0.006676400625699827,0.0023891068290287443
6773.880449773362,0.006750871026167527,0.0023820467602554767
6773.881449545577,0.006808072469794825,0.0023743713613692792
6773.882449317793,0.0068467642087862955,0.0023660192229974903
6773.883449090008,0.006865915593516649,0.002356940207972465
6773.884448862224,0.006864739556170531,0.0023470980728209677
6773.885448634439,0.006842721485686466,0.002336472415439985
6773.8864484066535,0.0067996420266663886,0.002325059886319603
6773.887448178869,0.006735592691430804,0.002312874677385662
6773.888447951084,0.0066509837240067374,0.002299948353879115
6773.8894477233,0.006546544165325714,0.002286329123365288
6773.890447495515,0.006423314350674676,0.0022720806503935763
6773.89144726773,0.0062826311360628445,0.0022572805286878586
6773.892447039945,0.006126106166245415,0.0022420185147629685
6773.893446812161,0.005955597613189304,0.0022263946148494175
6773.894446584376,0.005773176053701046,0.0022105171132503804
6773.895446356592,0.0055810854429338775,0.002194500630976725
6773.896446128807,0.005381700382306309,0.0021784642861144895
6773.8974459010215,0.005177481013357538,0.0021625299801683326
6773.898445673237,0.004970926877530157,0.0021468207768853666
6773.899445445452,0.004764530994749143,0.002131459306370961
6773.900445217668,0.0045607352815291565,0.0021165661387155615
6773.901444989883,0.004361888290185484,0.0021022581207239786
6773.902444762098,0.0041702061118107,0.0020886467289243375
6773.903444534313,0.00398773713781945,0.0020758365327273997
6773.904444306529,0.003816331218598171,0.002063923867658802
6773.905444078744,0.003657613607302369,0.0020529957936292332
6773.90644385096,0.0035129639445734178,0.0020431293765843
6773.907443623174,0.003383500424133211,0.0020343913041368064
6773.908443395389,0.0032700691643096536,0.002026837833219535
6773.909443167605,0.003173238688107811,0.0020205150590394865
6773.91044293982,0.00309329930557567,0.00201545947297771
6773.911442712036,0.003030267131510976,0.002011698738255193
6773.912442484251,0.0029838924663399173,0.002009252570299261
6773.913442256466,0.0029536722902648443,0.0020081335855911685
6773.914442028681,0.00293886663641466,0.0020083479911994495
6773.915441800897,0.002938518596656255,0.0020098960234814617
6773.916441573112,0.0029514776657646054,0.00201277209418042
6773.917441345328,0.002976426055535908,0.0020169646508783378
6773.918441117542,0.0030119075348396026,0.002022455796870737
6773.919440889757,0.003056358288994137,0.0020292207368932417
6773.920440661973,0.0031081392329897215,0.0020372271179872397
6773.921440434188,0.003165569142371192,0.0020464343249315944
6773.922440206404,0.0032269578839236395,0.002056792775208759
6773.923439978618,0.0032906389578492338,0.0020682432433736806
6773.924439750834,0.003355000529256705,0.0020807162320862333
6773.925439523049,0.003418514141457729,0.0020941313992672906
6773.926439295265,0.003479760377786285,0.00210839704690684
6773.92743906748,0.003537450885384837,0.0021234096816709056
6773.928438839695,0.00359044637137123,0.002139053678522013
6773.92943861191,0.0036377703734564956,0.002155201106179881
6773.930438384125,0.0036786187729056755,0.0021717117850478308
6773.931438156341,0.0037123651845239005,0.0021884336398904423
6773.932437928556,0.0037385625277271558,0.002205203394861571
6773.933437700772,0.003756941209096059,0.002221847644199378
6773.934437472986,0.0037674043984313845,0.002238184313120293
6773.935437245202,0.003770020871347746,0.0022540244983368716
6773.936437017417,0.0037650158482437973,0.0022691746571200625
6773.937436789633,0.0037527601938144133,0.0022834391133363364
6773.938436561848,0.0037337582620371153,0.0022966228664645155
6773.939436334063,0.0037086345972911867,0.002308534701546856
6773.940436106278,0.0036781196504134697,0.002318990583935065
6773.941435878493,0.003643034642044611,0.002327817284704873
6773.942435650709,0.0036042756958324807,0.002334856137653824
6773.943435422924,0.00356279736189832,0.0023399667901745484
6773.94443519514,0.0035195956535993395,0.0023430307784617
6773.945434967354,0.0034756907280961086,0.0023439547303532025
6773.94643473957,0.0034321093494769123,0.002342672989272629
6773.947434511785,0.0033898672769867187,0.00233914948161418
6773.9484342840005,0.003349951725358299,0.0023333787220415447
6773.949434056216,0.0033133040630651893,0.002325385943801108
6773.950433828431,0.003280802952601159,0.002315226417636878
6773.951433600646,0.0032532481876299192,0.002302984054489319
6773.952433372861,0.0032313455416722154,0.0022887693713349983
6773.953433145077,0.003215693009189242,0.002272716865776659
6773.954432917292,0.0032067688671619378,0.002254981838987366
6773.955432689508,0.0032049219750665218,0.002235736752226325
6773.956432461722,0.0032103646546359733,0.0022151672733635116
6773.957432233938,0.003223168379976635,0.0021934682148798527
6773.958432006153,0.0032432623998781816,0.002170839558314098
6773.9594317783685,0.0032704353181367894,0.002147482718013792
6773.960431550584,0.003304339569463264,0.0021235971479523354
6773.961431322799,0.0033444986514612708,0.0020993773531879554
6773.962431095014,0.0033903169197627404,0.0020750103310529983
6773.963430867229,0.0034410917271447132,0.002050673438072572
6773.964430639445,0.003496027675383747,0.0020265326681932353
6773.96543041166,0.0035542527358923986,0.0020027413415336327
6773.966430183876,0.003614835979001961,0.001979439228410429
6773.96742995609,0.003676806631535134,0.001956752149195976
6773.968429728306,0.0037391741425941323,0.001934792081261036
6773.969429500521,0.003800948859856889,0.001913657773105459
6773.9704292727365,0.0038611628176058502,0.0018934358321166648
6773.971429044952,0.003918890068919486,0.0018742022305124099
6773.972428817167,0.003973266009808325,0.0018560241587961925
6773.973428589382,0.004023505237951751,0.0018389621338194503
6773.974428361597,0.004068917604640764,0.0018230722357012363
6773.975428133813,0.004108922199500582,0.0018084083182996534
6773.976427906028,0.004143059046372796,0.001795024033747349
6773.977427678244,0.0041709983145898685,0.0017829745381005213
6773.978427450458,0.004192546880806707,0.0017723177783829497
6773.979427222674,0.004207652102745958,0.0017631152752329152
6773.980426994889,0.00421640267832162,0.0017554323166139728
6773.9814267671045,0.004219026476787337,0.0017493374943752336
6773.98242653932,0.004215885268298541,0.0017449015564575709
6773.983426311535,0.0042074663445649365,0.001742195600446729
6773.98442608375,0.004194371084607544,0.0017412886923823616
6773.985425855965,0.004177300565497796,0.0017422450617225703
6773.986425628181,0.0041570383986646335,0.0017451210875324896
6773.987425400396,0.0041344311389264156,0.001749962323341138
6773.988425172611,0.004110366825729556,0.0017568007933730589
6773.989424944826,0.004085752364088798,0.0017656527462161975
6773.990424717042,0.004061490470867148,0.0017765169990743676
6773.991424489257,0.0040384568321547715,0.0017893739588971684
6773.9924242614725,0.004017478016177017,0.0018041853647809006
6773.993424033688,0.003999310622403324,0.0018208947555744118
6773.994423805902,0.003984622143243945,0.0018394286265271894
6773.995423578118,0.00397397404933718,0.0018596981996577835
6773.996423350333,0.00396780762627938,0.0018816016968746928
6773.997423122549,0.003966433035960091,0.001905026977957089
6773.998422894764,0.003970021941608265,0.0019298543902459791
6773.999422666979,0.0039786038602372615,0.001955959668540359
6774.000422439194,0.003992066237226356,0.0019832167157188183
6774.00142221141,0.004010158103571474,0.0020115000920726913
6774.002421983625,0.0040324970802921006,0.00204068705979762
6774.0034217558405,0.004058579427247125,0.0020706590724712142
6774.004421528056,0.004087792790825812,0.0021013026476105704
6774.00542130027,0.004119431289954012,0.002132509591136113
6774.006421072486,0.004152712587281723,0.0021641765561922453
6774.007420844701,0.0041867966013988175,0.002196203931557936
6774.008420616917,0.004220805505786398,0.00222849407810569
6774.009420389132,0.00425384462503708,0.00226094896831813
6774.010420161347,0.004285023781253712,0.002293467331681278
6774.011419933562,0.004313478566531249,0.0023259414576737012
6774.012419705778,0.004338390939417665,0.0023582538470183143
6774.013419477993,0.004359008507797016,0.0023902739284700357
6774.014419250208,0.004374661902617528,0.002421855067222702
6774.015419022424,0.004384779751894877,0.002452832072439743
6774.016418794638,0.00438890087957858,0.0024830193777878114
6774.017418566854,0.004386683433785638,0.002512210050443382
6774.018418339069,0.004377910694216907,0.0025401757865881665
6774.019418111285,0.004362493376175175,0.0025666680465128663
6774.0204178835,0.004340468405467763,0.0025914204446018303
6774.021417655715,0.00431199438118624,0.0026141524405336714
6774.02241742793,0.004277344184252663,0.0026345742972714863
6774.023417200146,0.004236895336677815,0.0026523931983044326
6774.024416972361,0.0041911187463077,0.0026673203601419904
6774.025416744576,0.004140566424984665,0.002679078929101276
6774.026416516792,0.004085858696205571,0.0026874123995279933
6774.027416289006,0.00402767133122339,0.0026920932356003812
6774.028416061222,0.003966722961828193,0.0026929313453334615
6774.029415833437,0.003903763013159481,0.0026897820617562034
6774.030415605653,0.00383956029651096,0.0026825533201646403
6774.031415377868,0.0037748923118192585,0.00267121175756404
6774.032415150083,0.003710535244143063,0.0026557874965413065
6774.033414922298,0.003647254623044736,0.0026363774215362006
6774.0344146945135,0.003585796658198713,0.002613146811605529
6774.035414466729,0.0035268803310885524,0.0025863292540469385
6774.036414238944,0.0034711903534748356,0.0025562248304869485
6774.037414011159,0.003419371077811892,0.002523196641145021
6774.038413783374,0.0033720213938411877,0.002487665794277038
6774.03941355559,0.0033296906079259467,0.002450105016827734
6774.040413327805,0.003292875280306996,0.0024110310470965104
6774.041413100021,0.003262016968025033,0.002370995975305936
6774.042412872236,0.003237500778438224,0.0023305777161354182
6774.043412644451,0.0032196545934806355,0.002290369823990383
6774.044412416666,0.003208748796989495,0.0022509708862585424
6774.0454121888815,0.0032049963365962824,0.0022129737427544222
6774.046411961097,0.0032085529729338562,0.0021769547772727037
6774.047411733312,0.003219517593578848,0.002143463512057099
6774.048411505527,0.0032379324768683406,0.0021130127119005776
6774.049411277742,0.0032637833783468856,0.002086069177948479
6774.050411049958,0.003296999301661069,0.0020630453962595177
6774.051410822173,0.0033374518361146605,0.0020442922120685403
6774.052410594389,0.0033849540141087727,0.0020300927111403647
6774.053410366603,0.0034392587677997367,0.00202065747320788
6774.054410138819,0.0035000572233039426,0.00201612130517759
6774.055409911034,0.0035669772054419883,0.00201654147500815
6774.0564096832495,0.003639582382596076,0.0020218973734566588
6774.057409455465,0.0037173724559548967,0.0020320914577994674
6774.05840922768,0.0037997847268595266,0.0020469513085753024
6774.059408999895,0.003886197297772388,0.002066232667911947
6774.06040877211,0.003975934089309663,0.002089623398379396
6774.061408544326,0.004068271769348678,0.0021167483559361234
6774.062408316541,0.004162448563062829,0.0021471751808354155
6774.063408088757,0.0042576747439601595,0.002180420985814504
6774.064407860971,0.0043531444312299925,0.0022159598908626657
6774.065407633187,0.0044480481936866045,0.0022532313369935655
6774.066407405402,0.0045415859300910405,0.0022916491010709786
6774.0674071776175,0.004632979555426941,0.0023306109129185132
6774.068406949833,0.004721485113967504,0.0023695085413025854
6774.069406722048,0.004806403992606755,0.0024077381793139677
6774.070406494263,0.004887092893875145,0.0024447109358475983
6774.071406266478,0.004962972187956481,0.0024798632312566494
6774.072406038694,0.00503353228021193,0.0025126668904164855
6774.073405810909,0.005098337756292426,0.002542638709769015
6774.074405583125,0.005157029273005527,0.0025693492459168505
6774.075405355339,0.005209323376211522,0.002592430553049538
6774.076405127555,0.005255010583864063,0.00261158261468242
6774.07740489977,0.005293952142789101,0.002626578289836681
6774.0784046719855,0.005326075859060321,0.002637266711925508
6774.079404444201,0.005351371348192221,0.002643575193783568
6774.080404216416,0.00536988498923399,0.0026455097543513348
6774.081403988631,0.0053817148232732145,0.002643154377911393
6774.082403760846,0.005387005624967146,0.0026366690725421684
6774.083403533062,0.005385944372978703,0.002626286747565613
6774.084403305277,0.005378756296917141,0.00261230890767645
6774.085403077493,0.005365701554974867,0.0025951001813101227
6774.086402849707,0.005347072437710539,0.002575081759823012
6774.087402621923,0.00532319087964517,0.002552723894021621
6774.088402394138,0.00529440603917873,0.002528537644006716
6774.0894021663535,0.005261091748858163,0.0025030660945251576
6774.090401938569,0.00522364366625409,0.0024768752342312185
6774.091401710784,0.00518247593080848,0.002450544662576737
6774.092401482999,0.005138017093937492,0.0024246582448044945
6774.093401255214,0.005090705116498765,0.002399794798180883
6774.09440102743,0.005040981363510605,0.0023765188736624373
6774.095400799645,0.004989283747058678,0.0023553716988027685
6774.096400571861,0.004936039395994334,0.0023368623576672546
6774.097400344075,0.00488165737706127,0.002321459288141728
6774.098400116291,0.004826522014474713,0.002309582179192321
6774.099399888506,0.004770987273155454,0.0023015943648533282
6774.100399660721,0.004715372529313211,0.0022977958401717603
6774.101399432937,0.004659959891626101,0.002298417050690946
6774.102399205151,0.004604993094660904,0.0023036136179697786
6774.103398977367,0.004550677890679306,0.0023134621654374017
6774.104398749582,0.004497183818802394,0.0023279574127156293
6774.105398521798,0.0044446472177378646,0.0023470107036976345
6774.106398294013,0.004393175353884922,0.002370450105269725
6774.107398066229,0.004342851539791916,0.0023980221621633384
6774.108397838443,0.0042937410949569835,0.0024293953406488056
6774.109397610659,0.004245897941086037,0.002464165148622575
6774.110397382874,0.004199371536577715,0.002501860872803047
6774.111397155089,0.004154213758579663,0.0025419538221423
6774.112396927305,0.004110485255797108,0.0025838669216196107
6774.113396699519,0.0040682607591794595,0.0026269854668980936
6774.114396471735,0.004027632907395966,0.0026706688145547385
6774.11539624395,0.003988714341179677,0.002714262735260453
6774.116396016166,0.003951638075988224,0.0027571121099655284
6774.117395788381,0.003916556352926391,0.0027985736199876475
6774.118395560596,0.003883638226459678,0.002838028078003368
6774.119395332811,0.003853066117079578,0.002874892063712405
6774.120395105027,0.0038250315259567005,0.0029086285560196443
6774.121394877242,0.0037997301157548717,0.002938756289043289
6774.122394649457,0.0037773563816145377,0.0029648576062796476
6774.123394421673,0.0037580981346557805,0.002986584646068498
6774.124394193887,0.0037421309968196943,0.003003663756378909
6774.125393966103,0.0037296130790310435,0.0030158981113221446
6774.126393738318,0.0037206799893812668,0.0030231685937770706
6774.127393510534,0.0037154402870889047,0.003025433102645018
6774.128393282749,0.003713971463702396,0.0030227245018500768
6774.129393054964,0.0037163165034490068,0.00301514743149031
6774.130392827179,0.0037224810429034084,0.0030028741645924807
6774.1313925993945,0.0037324311006950704,0.0029861396408926775
6774.13239237161,0.0037460912914298703,0.0029652357621355267
6774.133392143825,0.0037633434221140023,0.0029405050128157558
6774.134391916041,0.0037840254305301518,0.002912333488297296
6774.135391688255,0.0038079307345530657,0.002881143453362889
6774.136391460471,0.0038348081486541804,0.0028473855873796736
6774.137391232686,0.003864362548729492,0.0028115310794287435
6774.138391004902,0.0038962564448361287,0.0027740637172711064
6774.139390777117,0.003930112588171678,0.002735472074320652
6774.140390549332,0.00396551770723281,0.0026962418555207817
6774.141390321547,0.004002027426556106,0.002656848442757384
6774.1423900937625,0.004039172354067013,0.0026177496982083158
6774.143389865978,0.004076465228193196,0.002579379126395152
6774.144389638193,0.0041134089064700724,0.0025421395317753786
6774.145389410409,0.004149504879706799,0.0025063973151178945
6774.146389182623,0.004184261948450544,0.0024724775270545916
6774.147388954839,0.004217204730513154,0.0024406597570307653
6774.148388727054,0.004247881769102717,0.002411174900539862
6774.14938849927,0.004275873130768143,0.0023842028303198517
6774.150388271485,0.00430079746509584,0.0023598709969248795
6774.1513880437,0.004322318518060361,0.0023382539846770094
6774.152387815915,0.004340151064558969,0.002319374037324878
6774.1533875881305,0.0043540661893532355,0.0023032025529315793
6774.154387360346,0.004363895824070905,0.0022896625455358557
6774.155387132561,0.004369536453882792,0.0022786320740610898
6774.156386904777,0.0043709519536686645,0.0022699486247215995
6774.157386676991,0.0043681755901295695,0.0022634144005746403
6774.158386449207,0.004361311282641246,0.0022588024400547837
6774.159386221422,0.004350534201651564,0.0022558634648712195
6774.160385993638,0.004336090700381234,0.0022543333363898
6774.161385765853,0.00431829746306095,0.0022539409635964477
6774.162385538068,0.0042975396405968685,0.002254416448593001
6774.163385310283,0.004274267643035064,0.0022554991830223067
6774.1643850824985,0.004248992198341202,0.0022569455413556905
6774.165384854714,0.00422227733183397,0.0022585357888079316
6774.166384626929,0.004194731099979253,0.0022600798578858534
6774.167384399145,0.004166994162078019,0.002261421735423441
6774.168384171359,0.004139726480784815,0.0022624423026743916
6774.169383943575,0.004113592545755886,0.0022630605615242567
6774.17038371579,0.004089245535459137,0.002263233262760128
6774.171383488006,0.004067310829578068,0.002262953032426034
6774.172383260221,0.004048369311121895,0.0022622451630099553
6774.173383032436,0.0040329409750371375,0.0022611632846080486
6774.174382804651,0.004021469457347009,0.002259784150754863
6774.1753825768665,0.004014308144912205,0.002258201773825944
6774.176382349082,0.004011708476597578,0.0022565211412484926
6774.177382121297,0.004013810925530729,0.0022548517384679404
6774.178381893512,0.004020639016187076,0.002253301091036058
6774.179381665727,0.0040320966131611215,0.0022519685201205283
6774.180381437943,0.004047968614517743,0.0022509392963469444
6774.181381210158,0.004067925066835972,0.0022502793798267143
6774.182380982374,0.004091528579148895,0.002250030936998369
6774.183380754588,0.004118244759684388,0.0022502088093893625
6774.184380526804,0.004147455253099931,0.002250798065993008
6774.185380299019,0.004178472842650452,0.002251752706998506
6774.186380071234,0.004210558038235168,0.0022529955224051784
6774.18737984345,0.004242936615997067,0.0022544190629814184
6774.188379615665,0.00427481766485497,0.0022558876567961663
6774.18937938788,0.004305411749744402,0.0022572403913861602
6774.190379160095,0.004333948782996669,0.0022582949669995305
6774.191378932311,0.004359695138785722,0.0022588523081836093
6774.192378704526,0.00438196950822493,0.00225870180446741
6774.193378476742,0.0044001570076202985,0.00225762703626542
6774.194378248956,0.004413721131272322,0.0022554118251733976
6774.195378021172,0.004422213281403414,0.0022518464329642457
6774.196377793387,0.004425279780117919,0.002246733736220813
6774.197377565602,0.004422666413782456,0.002239895233355216
6774.198377337818,0.004414220637281296,0.002231176783972687
6774.199377110033,0.004399891585951597,0.002220454004578189
6774.200376882248,0.004379728058430244,0.002207637226952813
6774.201376654463,0.004353874681401056,0.002192675876791987
6774.202376426679,0.004322566528643582,0.0021755620858035546
6774.203376198894,0.004286122492372815,0.0021563333396114287
6774.20437597111,0.0042449376783409805,0.002135073988553837
6774.205375743324,0.0041994750508667095,0.0021119154958838013
6774.20637551554,0.004150256524630268,0.0020870353641455584
6774.207375287755,0.004097853686580954,0.002060654765318322
6774.20837505997,0.004042878317106199,0.0020330349852886293
6774.209374832186,0.003985972857552627,0.002004472850618672
6774.210374604401,0.003927800942072749,0.0019752953257752186
6774.211374376616,0.003869038082262453,0.0019458534639397401
6774.212374148831,0.0038103625755507887,0.0019165158817987418
6774.213373921047,0.0037524467060888055,0.0018876619189726587
6774.214373693262,0.00369594831042946,0.0018596746346516671
6774.215373465478,0.003641502782583401,0.001832933780062237
6774.216373237692,0.003589715592375525,0.0018078088641950716
6774.217373009908,0.003541155386399083,0.001784652407875711
6774.218372782123,0.0034963477362613773,0.0017637934656677707
6774.219372554338,0.003455769600343701,0.001745531495414042
6774.220372326554,0.0034198445716566105,0.0017301306750172726
6774.221372098769,0.0033889389876594657,0.0017178147927714154
6774.222371870984,0.0033633589714329995,0.00170876285326377
6774.223371643199,0.003343348459719805,0.0017031055418998812
6774.224371415415,0.0033290882653574275,0.001700922682102559
6774.22537118763,0.003320696229693324,0.001702241796675038
6774.226370959846,0.003318228531831942,0.0017070378426041976
6774.22737073206,0.0033216822032502984,0.001715234131962525
6774.228370504276,0.0033309988297562415,0.0017267043932681259
6774.229370276491,0.0033460693301712373,0.0017412758751627832
6774.230370048706,0.0033667396270713997,0.0017587333478218132
6774.231369820922,0.0033928169943854233,0.001778823819106194
6774.232369593137,0.003424076866115825,0.0018012617613991206
6774.233369365352,0.003460269883707427,0.0018257346506571456
6774.234369137567,0.0035011289253514925,0.0018519086489391767
6774.235368909783,0.003546375820367252,0.0018794342989757803
6774.236368681998,0.0035957274483431347,0.0019079521252406725
6774.2373684542135,0.003648900967573463,0.0019370980454956296
6774.238368226428,0.0037056179793337972,0.0019665085024985285
6774.239367998644,0.003765607480764169,0.001995825244294534
6774.240367770859,0.003828607490388894,0.0020246997181341733
6774.241367543074,0.003894365273831363,0.0020527970837985765
6774.24236731529,0.003962636173581292,0.0020797998745517576
6774.243367087504,0.004033181142941181,0.0021054113303686146
6774.24436685972,0.004105763159658208,0.0021293584144016675
6774.245366631935,0.004180142722125512,0.0021513945197063544
6774.246366404151,0.004256072629749003,0.0021713018812770913
6774.247366176366,0.004333292253622011,0.0021888937130590904
6774.248365948581,0.004411521510517984,0.002204016075407842
6774.249365720796,0.00449045473498498,0.0022165494493974394
6774.250365493012,0.004569754604462076,0.0022264099729086798
6774.251365265227,0.0046490462500243645,0.0022335502960130374
6774.252365037442,0.0047279117152877114,0.0022379600313815725
6774.253364809658,0.004805885011110859,0.0022396657867548484
6774.254364581872,0.00488244812269456,0.002238730759341792
6774.255364354088,0.004957028406123536,0.0022352538541404467
6774.256364126303,0.005028997821744722,0.0022293682764390095
6774.257363898519,0.005097674391825597,0.0022212395584624216
6774.258363670734,0.005162326172358108,0.0022110630137148982
6774.259363442949,0.005222177924500357,0.002199060651065937
6774.260363215164,0.00527642057348205,0.002185477599407181
6774.26136298738,0.005324223452072787,0.0021705780905707955
6774.262362759595,0.005364749231242043,0.0021546410447451326
6774.26336253181,0.005397171324096209,0.002137955316910922
6774.264362304026,0.005420693401146975,0.0021208146911017326
6774.26536207624,0.005434570498252884,0.002103512736856529
6774.266361848456,0.005438131074532005,0.0020863376575444357
6774.267361620671,0.0054307992901374905,0.0020695672541818587
6774.268361392887,0.005412116686504537,0.0020534640994239596
6774.269361165102,0.005381762364073228,0.0020382709822797827
6774.270360937317,0.005339570720726759,0.002024206673186661
6774.271360709532,0.005285545871874688,0.0020114620860418285
6774.272360481748,0.005219872001552528,0.0020001969643719457
6774.273360253963,0.005142919084387807,0.0019905372581223058
6774.274360026178,0.005055243685295583,0.0019825733576601602
6774.275359798394,0.004957584862724557,0.0019763593124571175
6774.276359570608,0.004850855497549938,0.0019719131047305593
6774.277359342824,0.0047361295786426515,0.0019692179929294
6774.278359115039,0.004614626076014639,0.00196822488994581
6774.279358887255,0.00448769002776486,0.0019688556888934963
6774.28035865947,0.004356771376243422,0.001971007392606382
6774.281358431685,0.004223401953579893,0.0019745568482920366
6774.2823582039,0.004089170907797083,0.0019793658451062422
6774.283357976115,0.003955698849016166,0.0019852863105436326
6774.284357748331,0.003824611088165274,0.0019921653550374744
6774.285357520546,0.0036975104609823645,0.001999849968918317
6774.286357292762,0.0035759502925880055,0.002008191255956921
6774.287357064976,0.003461408050957873,0.0020170481584019903
6774.288356837192,0.0033552602037677,0.0020262906603591598
6774.289356609407,0.003258758755445556,0.002035802448785973
6774.290356381623,0.003173009886247643,0.0020454829910312926
6774.291356153838,0.0030989550382475614,0.002055248983899384
6774.292355926053,0.003037354724767044,0.0020650351485361853
6774.293355698268,0.002988775309722029,0.0020747943723586995
6774.294355470483,0.0029535790007082213,0.0020844972165630664
6774.295355242699,0.002931917289231343,0.002094130813901577
6774.296355014914,0.0029237280389900516,0.0021036971852732025
6774.29735478713,0.0029287363848868914,0.0021132110071658003
6774.298354559344,0.00294645957387207,0.002122696862594183
6774.29935433156,0.0029762158352473565,0.0021321860158687086
6774.300354103775,0.0030171372824268493,0.002141712782023415
6774.301353875991,0.0030681867149576366,0.002151310614691965
6774.302353648206,0.00312817803395211,0.0021610080914975754
6774.3033534204205,0.0031957998391706935,0.002170825005777237
6774.304353192636,0.0032696416648230467,0.00218076876092454
6774.305352964851,0.0033482222440811226,0.0021908312171830383
6774.306352737067,0.0034300191690902473,0.0022009860840213986
6774.307352509282,0.0035134993187803344,0.0022111869040843946
6774.308352281497,0.003597149429265361,0.002221365649141598
6774.309352053712,0.0036795061498367306,0.002231431949461507
6774.310351825928,0.0037591848581373685,0.0022412729999789203
6774.311351598143,0.0038349064357449275,0.0022507542135915873
6774.312351370359,0.003905521185173656,0.0022597207036274946
6774.313351142573,0.003970029148196108,0.0022679996603605463
6774.3143509147885,0.004027596277208548,0.002275403644544251
6774.315350687004,0.00407756617493389,0.0022817347699023408
6774.316350459219,0.004119467365968235,0.002286789694845596
6774.317350231435,0.004153016229504548,0.0022903652904917187
6774.31835000365,0.0041781158144464986,0.0022922648010029784
6774.319349775865,0.004194850827445428,0.002292304273061718
6774.32034954808,0.004203479159304678,0.0022903190083645923
6774.321349320296,0.004204420387410782,0.0022861697830185977
6774.322349092511,0.0041982417414936635,0.002279748575559611
6774.323348864727,0.004185642033241048,0.0022709835485634046
6774.324348636941,0.004167434028968368,0.002259843044078796
6774.3253484091565,0.004144525708615266,0.002246338395951274
6774.326348181372,0.0041179008238756715,0.0022305254387309003
6774.327347953587,0.0040885991439376405,0.002212504684401872
6774.328347725803,0.004057696747904427,0.0021924202135993913
6774.329347498018,0.0040262866806169036,0.0021704573713718883
6774.330347270233,0.0039954602263769885,0.002146839378758381
6774.331347042448,0.003966288966685897,0.002121822991134975
6774.332346814664,0.003939807684696286,0.0020956933605843545
6774.333346586879,0.003916998101563698,0.0020687582845111915
6774.334346359095,0.0038987734314320723,0.0020413420389588286
6774.335346131309,0.0038859638415482786,0.0020137790020765137
6774.3363459035245,0.003879303054536237,0.001986407268181181
6774.33734567574,0.0038794164464312276,0.001959562431601883
6774.338345447955,0.003886811024685247,0.0019335716871932594
6774.339345220171,0.0039018676254597385,0.0019087483617659775
6774.340344992386,0.003924835583481196,0.0018853869593770539
6774.341344764601,0.003955830017868001,0.0018637587694579853
6774.342344536816,0.003994831751448119,0.001844108054824295
6774.343344309032,0.004041689757716465,0.0018266488164920222
6774.344344081247,0.004096125929019356,0.0018115621251817478
6774.345343853463,0.00415774188910236,0.0017989940089374505
6774.346343625677,0.004226027532715625,0.0017890538889938417
6774.3473433978925,0.004300370959505567,0.0017818135635087448
6774.348343170108,0.004380069466079901,0.0017773067500723302
6774.349342942323,0.004464341267063918,0.0017755292081211064
6774.350342714539,0.004552337649663213,0.0017764394687716815
6774.351342486754,0.004643155329754338,0.001779960200774381
6774.352342258969,0.0047358488563061804,0.0017859802340736838
6774.353342031184,0.0048294430086736105,0.0017943572447588398
6774.3543418034,0.004922945253930799,0.0018049210761388083
6774.355341575615,0.005015358434855207,0.0018174776302597767
6774.356341347831,0.0051056938756864215,0.0018318132185970793
6774.357341120045,0.0051929850138542465,0.0018476992199432326
6774.3583408922605,0.005276301551818206,0.0018648968636874213
6774.359340664476,0.005354764024814867,0.001883161944599133
6774.360340436691,0.005427558585337021,0.0019022492916121157
6774.361340208907,0.005493951671237164,0.0019219168573054025
6774.362339981122,0.005553304041615995,0.0019419293483372473
6774.363339753337,0.005605083477184065,0.0019620613607513886
6774.364339525552,0.005648875321163594,0.001982100010314288
6774.365339297768,0.005684390040914996,0.002001847057099752
6774.366339069983,0.0057114671427235635,0.0020211205225238627
6774.367338842199,0.005730075051498169,0.0020397558049444057
6774.368338614413,0.005740306888876208,0.0020576063340683594
6774.369338386628,0.0057423723341551965,0.00207454385248725
6774.370338158844,0.00573658589919405,0.0020904584394823883
6774.371337931059,0.00572335206687444,0.0021052583823164372
6774.372337703275,0.0057031478986566886,0.00211886997034061
6774.373337475489,0.005676503876464383,0.0021312372566895227
6774.374337247705,0.005643983839549675,0.002142321808220567
6774.37533701992,0.0056061648983418925,0.002152102452968951
6774.376336792136,0.005563618187266199,0.002160575040381319
6774.377336564351,0.005516891266592437,0.002167752243353135
6774.378336336566,0.005466492880833368,0.0021736634342129726
6774.379336108781,0.00541288062063373,0.002178354651232669
6774.380335880996,0.005356451832557464,0.0021818886448777206
6774.381335653212,0.005297537907226079,0.0021843449637561846
6774.382335425427,0.005236401894000024,0.0021858200131690216
6774.383335197643,0.0051732392798053755,0.002186426993288883
6774.384334969857,0.005108181736402977,0.002186295600652076
6774.385334742073,0.005041303648366312,0.002185571366438337
6774.386334514288,0.004972631228329365,0.0021844145191222478
6774.387334286504,0.004902153961685697,0.0021829982936372905
6774.388334058719,0.004829837990086307,0.0021815066513299532
6774.3893338309335,0.004755640873369225,0.002180131421729644
6774.390333603149,0.004679527012207108,0.0021790689320966266
6774.391333375364,0.004601482910099031,0.002178516244965002
6774.39233314758,0.004521531429645407,0.0021786671570040374
6774.393332919795,0.004439744262434481,0.0021797081141734643
6774.394332692011,0.004356251971730937,0.002181814180182676
6774.395332464225,0.004271251153172373,0.0021851451796405146
6774.396332236441,0.004185008448703356,0.0021898421352335128
6774.397332008656,0.004097861303587703,0.0021960241210682617
6774.398331780872,0.00401021547318658,0.0022037856437756922
6774.399331553087,0.003922539405600332,0.002213194631277532
6774.4003313253015,0.0038353557806033133,0.002224291066212842
6774.401331097517,0.0037492306557413073,0.0022370862642493226
6774.402330869732,0.003664760807092795,0.00225156277762425
6774.403330641948,0.003582559918501971,0.0022676748980350733
6774.404330414163,0.003503244262392337,0.0022853497261409632
6774.405330186379,0.003427418444590855,0.0023044887560924356
6774.406329958593,0.0033556616841082343,0.0023249698973714958
6774.407329730809,0.0032885149904506145,0.002346649838926495
6774.408329503024,0.003226469494783914,0.002369366659548567
6774.40932927524,0.003169956097324892,0.002392942593331642
6774.410329047455,0.0031193365368932286,0.0024171868568702427
6774.4113288196695,0.0030748959812627076,0.002441898435002247
6774.412328591885,0.0030368372456756783,0.002466868714583302
6774.4133283641,0.0030052767239603494,0.0024918838638104987
6774.414328136316,0.002980242053126913,0.002516726883301026
6774.415327908531,0.0029616714586320173,0.0025411792952856577
6774.416327680747,0.002949414675613696,0.002565022473940785
6774.417327452961,0.0029432353257024396,0.0025880386461877335
6774.418327225177,0.0029428146541791967,0.002610011612190544
6774.419326997392,0.002947756593003645,0.0026307272581185736
6774.420326769608,0.0029575941826944026,0.002649973965482662
6774.421326541823,0.0029717974162241497,0.002667543051544996
6774.4223263140375,0.002989782535689363,0.002683229386979331
6774.423326086253,0.003010922728338908,0.002696832323451572
6774.424325858468,0.003034560065221949,0.002708157030880839
6774.425325630684,0.003060018433731531,0.002717016301421392
6774.426325402899,0.0030866171512940904,0.0027232328337986017
6774.427325175115,0.003113684918493393,0.002726641972053801
6774.428324947329,0.0031405737749936866,0.0027270948325722084
6774.429324719545,0.0031666727418336025,0.0027244617053242726
6774.43032449176,0.0031914208402154484,0.0027186355618480313
6774.431324263976,0.0032143191652592167,0.0027095354607514716
6774.432324036191,0.0032349416998901947,0.002697109637228566
6774.4333238084055,0.003252944625252139,0.002681338109647875
6774.434323580621,0.003268074020880524,0.002662234711811951
6774.435323352836,0.0032801719884371183,0.0026398485192303494
6774.436323125052,0.0032891813013702803,0.002614264661286844
6774.437322897267,0.0032951486530384123,0.0025856045233481344
6774.438322669482,0.0032982264784589023,0.0025540253753380208
6774.439322441697,0.003298673214249069,0.002519719508313712
6774.440322213913,0.0032968517875495173,0.0024829129782947437
6774.441321986128,0.003293226116065101,0.0024438640231601735
6774.442321758344,0.003288355453197735,0.0024028611524573615
6774.443321530558,0.003282886495371621,0.002360220853315308
6774.4443213027735,0.003277543254837603,0.0023162848393226444
6774.445321074989,0.0032731147846251736,0.0022714167951111675
6774.446320847204,0.0032704409339285854,0.002225998615304173
6774.44732061942,0.0032703964064241353,0.0021804261781161968
6774.448320391635,0.0032738734537333778,0.002135104724137708
6774.44932016385,0.0032817635340035853,0.0020904439382802057
6774.450319936065,0.0032949382282031286,0.0020468528634091545
6774.451319708281,0.003314229699882151,0.002004734797563666
6774.452319480496,0.0033404110574557664,0.001964482325490502
6774.453319252712,0.003374177120564437,0.0019264726086742894
6774.454319024926,0.003416126229030004,0.0018910630245881689
6774.455318797141,0.0034667437803153666,0.0018585872167810723
6774.456318569357,0.0035263881133000196,0.001829351585100023
6774.457318341572,0.0035952792104471704,0.001803632206334688
6774.458318113788,0.0036734905200255445,0.0017816721441352287
6774.459317886003,0.0037609440370251247,0.001763679095049816
6774.460317658218,0.0038574086361262655,0.0017498233168482377
6774.461317430433,0.003962501523105364,0.0017402357825612468
6774.462317202649,0.004075692559675461,0.0017350065045842078
6774.463316974864,0.0041963111174331165,0.0017341829991430794
6774.46431674708,0.004323555033055102,0.0017377689192988868
6774.465316519294,0.00445650118826228,0.0017457229507806026
6774.466316291509,0.0045941172513058615,0.0017579581059294729
6774.467316063725,0.004735274204747039,0.0017743415528179755
6774.46831583594,0.004878759421219557,0.0017946950867720947
6774.469315608156,0.0050232901669296235,0.0018187963045748015
6774.470315380371,0.005167527450640337,0.0018463804907813213
6774.471315152586,0.0053100901020141965,0.0018771431788843162
6774.472314924801,0.005449568929351236,0.0019107433082147694
6774.473314697017,0.005584540837478421,0.001946806865601534
6774.474314469232,0.005713582887825889,0.0019849308980054887
6774.475314241447,0.005835286414550772,0.0020246878194638603
6774.476314013662,0.00594827142634486,0.0020656299899150764
6774.477313785877,0.006051201585595055,0.002107294574649509
6774.478313558093,0.006142800035576198,0.002149208681050314
6774.479313330308,0.006221866238507298,0.002190894729295618
6774.480313102524,0.006287293826662321,0.002231875983647114
6774.481312874739,0.00633808929984172,0.0022716821769243637
6774.482312646954,0.006373391238421206,0.002309855189273846
6774.483312419169,0.006392489520391979,0.002345954757952197
6774.484312191385,0.006394843827530565,0.002379564181510935
6774.4853119636,0.006380100558071714,0.002410295951043753
6774.486311735815,0.006348107225575106,0.002437797207908331
6774.48731150803,0.006298923557717747,0.002461754894714235
6774.488311280245,0.006232828746466198,0.0024819004335868565
6774.489311052461,0.006150324508836334,0.002498013739711679
6774.490310824676,0.0060521337066756315,0.0025099263727616913
6774.491310596892,0.005939194270749067,0.0025175236552879895
6774.492310369107,0.00581264818760976,0.0025207456486851442
6774.493310141322,0.0056738254447881,0.0025195869689715457
6774.494309913537,0.005524223126387221,0.002514095528544799
6774.4953096857525,0.005365480233942183,0.002504370372858725
6774.496309457968,0.0051993491255558355,0.0024905588156843832
6774.497309230183,0.005027664601419004,0.0024728530705199216
6774.498309002398,0.004852311620934693,0.0024514865570950516
6774.499308774613,0.004675192518838736,0.0024267300429583255
6774.500308546829,0.0044981944917602485,0.0023988877518062294
6774.501308319044,0.004323158074742971,0.0023682935266372118
6774.50230809126,0.004151847284222503,0.0023353070838436807
6774.503307863474,0.003985922033917182,0.0023003103435781055
6774.50430763569,0.0038269133314497742,0.00226370378012954
6774.505307407905,0.00367620166545369,0.0022259027088325253
6774.5063071801205,0.003534998919661047,0.002187333411372684
6774.507306952336,0.003404334087392471,0.0021484289996334116
6774.508306724551,0.0032850429702627557,0.002109624940824115
6774.509306496766,0.0031777619176991947,0.002071354217734995
6774.510306268981,0.0030829255216088215,0.002034042159329209
6774.511306041197,0.00300076804840247,0.0019981010256095847
6774.512305813412,0.0029313282857699025,0.0019639244621648547
6774.513305585628,0.0028744574240084494,0.001931881965392006
6774.514305357842,0.0028298295919986487,0.001902313524604565
6774.515305130058,0.0027969547086265987,0.0018755246185374892
6774.516304902273,0.0027751933634039953,0.001851781727659549
6774.5173046744885,0.0027637734905854006,0.0018313084929915454
6774.518304446704,0.0027618086386613926,0.0018142826315125224
6774.519304218919,0.0027683176484411326,0.0018008337082418156
6774.520303991134,0.0027822455401360913,0.0017910418444562139
6774.521303763349,0.0028024853858055984,0.0017849374019181289
6774.522303535565,0.002827900901592328,0.0017825016405845471
6774.52330330778,0.002857349412598856,0.0017836683189846997
6774.524303079996,0.0028897047242368748,0.001788326187669855
6774.52530285221,0.002923879318692161,0.0017963223001179667
6774.526302624426,0.00295884523790215,0.0018074660312698374
6774.527302396641,0.002993653040900577,0.001821533669266572
6774.5283021688565,0.003027448311372665,0.0018382734400649986
6774.529301941072,0.0030594852980171585,0.0018574108245879308
