Time,Filtered_EMG_Bicep,Filtered_EMG_Tricep
6970.222961779707,0.0077977301061938785,0.006143176874059906
6970.223961551629,0.008387850930433207,0.006251389914740479
6970.224961323553,0.00896683106543932,0.006355455354343315
6970.225961095475,0.009528982686351639,0.006454213725554067
6970.226960867398,0.010068671238773867,0.0065465315821938656
6970.22796063932,0.010580410170890474,0.006631319056626439
6970.228960411243,0.01105895673184393,0.006707547040191935
6970.2299601831655,0.011499406739466589,0.00677426379325438
6970.230959955089,0.01189728607855858,0.006830610883284871
6970.231959727012,0.01224863661214848,0.006875838373823869
6970.232959498934,0.01255009433715952,0.006909319135699588
6970.233959270857,0.012798957992772676,0.006930562036869417
6970.23495904278,0.012993246711644476,0.00693922360782863
6970.235958814703,0.013131745494394444,0.006935117619128606
6970.236958586625,0.01321403733444256,0.006918221933705432
6970.237958358548,0.013240520932895862,0.0068886821006623735
6970.238958130471,0.013212413277736665,0.006846811443967506
6970.239957902393,0.013131736920047878,0.006793087748060067
6970.240957674317,0.013001292438016471,0.006728146884659615
6970.241957446239,0.012824617152100896,0.006652773770564024
6970.242957218162,0.012605931476787185,0.00656789092045542
6970.243956990084,0.012350074326899248,0.006474544659922858
6970.244956762007,0.012062428889161007,0.006373888922945197
6970.24595653393,0.011748840052287384,0.006267166591175512
6970.246956305853,0.011415524946274168,0.006155688552004348
6970.247956077776,0.011068978245677706,0.006040810935205285
6970.248955849698,0.010715873987172827,0.0059239111832281735
6970.249955621621,0.010362965629173191,0.005806363668449092
6970.250955393543,0.010016986022119754,0.005689515542768114
6970.251955165467,0.009684548888934417,0.005574663451138505
6970.252954937389,0.009372053287026467,0.005463031675748963
6970.253954709312,0.009085592304831561,0.005355752187662514
6970.254954481235,0.00883086698325079,0.0052538469615935
6970.255954253157,0.008613106219522427,0.005158212770852885
6970.256954025081,0.008436993229147982,0.005069608554039993
6970.257953797003,0.008306598989076078,0.004988645374108341
6970.258953568926,0.00822532297998502,0.004915778991137288
6970.259953340848,0.008195841558067633,0.00485130509846549
6970.260953112771,0.008220064458724516,0.0047953572603076115
6970.2619528846935,0.008299100208665963,0.0047479075323315365
6970.262952656617,0.008433231461594186,0.004708769707556612
6970.26395242854,0.008621901349862883,0.004677605147336976
6970.264952200462,0.00886371183470328,0.00465393119656789
6970.265951972385,0.009156434807346531,0.0046371321959774
6970.266951744308,0.009497036409370893,0.004626473092914621
6970.267951516231,0.009881714722351845,0.004621115632673743
6970.268951288153,0.010305950631564677,0.004620137065256522
6970.269951060076,0.010764571313095668,0.004622551191436465
6970.270950831999,0.01125182543555671,0.004627331406814671
6970.271950603921,0.011761468803879476,0.004633435246245013
6970.272950375845,0.012286858810451209,0.004639829840463568
6970.273950147767,0.012821055722534022,0.004645517672339398
6970.27494991969,0.013356928581597679,0.004649562020838897
6970.275949691612,0.01388726341120591,0.004651111478819183
6970.276949463535,0.014404871564150948,0.0046494229372817785
6970.277949235458,0.014902696281721532,0.004643882466295632
6970.278949007381,0.015373915727327641,0.004634023583703726
6970.279948779304,0.015812040868830896,0.004619542446240352
6970.280948551226,0.016211006763392127,0.004600309499543786
6970.281948323149,0.016565256187360527,0.004576377116990491
6970.282948095071,0.016869815116391403,0.004547982803167569
6970.283947866995,0.017120360079473446,0.004515547666681845
6970.284947638917,0.017313277656450264,0.00447967006615184
6970.28594741084,0.017445716294698682,0.004441114559527034
6970.286947182763,0.01751563026564398,0.004400796481824516
6970.287946954686,0.017521815071534046,0.004359762612421951
6970.288946726609,0.017463933059044937,0.00431916850472497
6970.289946498531,0.017342527579564525,0.004280253178521699
6970.290946270454,0.017159023976431997,0.004244311996753927
6970.291946042376,0.016915716045917198,0.004212668604968802
6970.292945814299,0.01661573719118321,0.004186646775982005
6970.293945586222,0.01626301596237191,0.004167542896442788
6970.294945358145,0.015862216030601686,0.004156599698804037
6970.295945130068,0.015418661135189008,0.004154981715405386
6970.29694490199,0.014938246304709362,0.004163752823736066
6970.297944673913,0.014427337473791647,0.004183856158851367
6970.298944445836,0.01389266216535604,0.004216096579709822
6970.299944217759,0.013341194043514028,0.004261125784970656
6970.300943989681,0.012780033981821837,0.004319430083280198
6970.301943761604,0.012216290035655941,0.004391320740161565
6970.302943533527,0.011656958493145663,0.00447692675646384
6970.303943305449,0.011108808060378108,0.0045761898932684
6970.304943077373,0.01057826919340944,0.004688861756782505
6970.305942849295,0.010071330544786235,0.0048145028048096955
6970.306942621218,0.009593444389317248,0.00495248324667488
6970.30794239314,0.009149442745205582,0.0051019859714994415
6970.308942165063,0.008743465740845618,0.005262011787830206
6970.309941936986,0.00837890358585258,0.005431387300600013
6970.310941708909,0.00805835325950193,0.005608775666892146
6970.311941480832,0.007783590726114927,0.005792690323451183
6970.312941252754,0.007555559151875765,0.005981511641237859
6970.313941024677,0.007374373256585713,0.00617350636052125
6970.314940796599,0.007239339584334303,0.006366849574123416
6970.315940568523,0.007148992106545282,0.006559648929903072
6970.316940340445,0.007101142188281318,0.00674997060750002
6970.317940112368,0.007092941580703964,0.0069358665026210044
6970.318939884291,0.007120956762081169,0.007115401971397386
6970.319939656214,0.007181252622736424,0.007286683513193113
6970.320939428137,0.0072694831666991,0.007447885917441789
6970.321939200059,0.0073809866391549425,0.007597278598953257
6970.322938971982,0.007510882428777327,0.007733251008582305
6970.323938743904,0.007654167374100126,0.007854337076554507
6970.324938515827,0.007805809662997317,0.007959238583093001
6970.32593828775,0.007960839079751337,0.008046847149906854
6970.326938059673,0.008114432684739933,0.008116264294302235
6970.327937831596,0.008261995084450626,0.008166818831217898
6970.328937603518,0.008399232371244155,0.008198080928565683
6970.329937375441,0.008522218693296488,0.008209872264364699
6970.330937147364,0.008627454357300068,0.008202271866074749
6970.331936919287,0.008711914439886816,0.008175617234247862
6970.332936691209,0.008773087075656641,0.008130500289717043
6970.333936463132,0.008809000831505816,0.008067757688319872
6970.334936235055,0.008818240801007555,0.007988455280542687
6970.335936006977,0.008799953216428432,0.007893866960000231
6970.336935778901,0.00875383851646485,0.007785448658826539
6970.337935550823,0.00868013306377173,0.007664808591157708
6970.338935322746,0.008579580168811241,0.00753367493783375
6970.339935094668,0.008453391624025919,0.0073938620783410855
6970.340934866592,0.008303201339354471,0.007247236329542765
6970.341934638514,0.008131012771982983,0.007095682023324088
6970.342934410437,0.007939141755836737,0.006941068664610806
6970.34393418236,0.007730156249921936,0.006785219836050532
6970.344933954282,0.007506814529128394,0.006629884424581795
6970.345933726205,0.007272003360130899,0.006476710627425963
6970.346933498128,0.007028677616426565,0.006327223077172691
6970.347933270051,0.006779802570212373,0.006182803339492455
6970.348933041973,0.0065282998377768665,0.006044673970800244
6970.349932813896,0.006276997732898942,0.005913886229759618
6970.350932585819,0.006028586626428481,0.005791311399600084
6970.351932357742,0.005785579809104277,0.005677635555185702
6970.352932129665,0.005550280285083233,0.005573357582501082
6970.353931901587,0.005324753853899817,0.005478790335828724
6970.35493167351,0.0051108087431211155,0.005394064904759117
6970.355931445432,0.004909981933100507,0.005319137958367251
6970.356931217355,0.004723532187167679,0.00525380202539465
6970.357930989278,0.004552439676401001,0.005197698424070317
6970.358930761201,0.004397411964226172,0.005150332446914924
6970.359930533124,0.004258895983505196,0.005111090359243184
6970.360930305046,0.004137095494987727,0.005079257755235268
6970.361930076969,0.004031993375435725,0.005054038795900783
6970.362929848892,0.003943377972759805,0.005034575840553038
6970.363929620815,0.0038708726944359983,0.005019969023500982
6970.364929392737,0.003813967942506886,0.005009295426754463
6970.36592916466,0.003772054453041282,0.0050016275955250865
6970.366928936583,0.0037444570660958736,0.004996051175343934
6970.367928708505,0.003730467994846011,0.00499168142586073
6970.368928480429,0.003729378781485159,0.004987678333542261
6970.369928252351,0.003740510260421465,0.004983260026107317
6970.370928024274,0.0037632399404388026,0.004977714183563166
6970.371927796196,0.0037970262666396385,0.004970407152495296
6970.37292756812,0.003841429251040709,0.004960790530208928
6970.373927340042,0.003896126966911988,0.004948405116767002
6970.374927111965,0.00396092738180392,0.0049328823163752485
6970.375926883888,0.0040357749872264636,0.004913943235559484
6970.37692665581,0.004120751726573897,0.004891395803863469
6970.377926427733,0.004216071869743394,0.0048651302243980215
6970.378926199656,0.004322070729251872,0.004835113010274719
6970.379925971579,0.0044391874067451105,0.004801379858727523
6970.380925743501,0.004567942033321187,0.0047640276764723604
6970.381925515424,0.004708908198222405,0.004723206140002222
6970.382925287347,0.004862681476742981,0.004679109190348905
6970.38392505927,0.0050298451738135545,0.004631966826846909
6970.384924831193,0.0052109345332875725,0.004582037526463263
6970.385924603115,0.00540640066492926,0.004529601588687865
6970.386924375038,0.005616575319334808,0.004474955655784805
6970.38792414696,0.0058416374578607305,0.004418408561017761
6970.388923918883,0.006081582391405516,0.004360278539535424
6970.389923690806,0.006336194134151356,0.004300891746612975
6970.390923462729,0.006605021519295198,0.004240581992945296
6970.391923234652,0.006887358534821998,0.004179691610094342
6970.392923006574,0.007182229287578377,0.004118573353123179
6970.393922778497,0.007488378016717358,0.004057593190269204
6970.39492255042,0.007804264602489022,0.003997133714755948
6970.395922322343,0.008128065990841728,0.003937597772655095
6970.396922094265,0.008457683900080103,0.0038794117819797897
6970.397921866188,0.008790759148233388,0.0038230281552887337
6970.398921638111,0.00912469291127499,0.0037689262308459306
6970.399921410033,0.009456675100410974,0.0037176111555071705
6970.400921181957,0.009783719790289165,0.0036696102652949794
6970.401920953879,0.010102707282847194,0.003625466719466889
6970.402920725802,0.01041043201721965,0.0035857304583184
6970.403920497724,0.010703655185197938,0.0035509468865479506
6970.404920269648,0.010979160652532773,0.003521643921734322
6970.40592004157,0.011233812686071723,0.0034983181431652763
6970.406919813493,0.011464614009402995,0.003481420754742461
6970.407919585416,0.011668762718997978,0.0034713439908302586
6970.408919357338,0.011843706549660295,0.0034684084934413074
6970.409919129261,0.011987193043094061,0.0034728521003533704
6970.410918901184,0.01209731449059336,0.003484820410560107
6970.411918673107,0.012172546973294358,0.0035043594273825767
6970.412918445029,0.01221178311907477,0.003531410517826368
6970.413918216952,0.012214358160304384,0.00356580786977891
6970.414917988875,0.012180068612127948,0.0036072785622120198
6970.415917760798,0.012109182684147016,0.0036554452681862933
6970.416917532721,0.012002441645126373,0.0037098314910391245
6970.417917304643,0.011861051804546996,0.003769869120198024
6970.418917076566,0.011686667317706867,0.0038349080113648723
6970.419916848488,0.011481364383705056,0.0039042272578372846
6970.420916620411,0.011247607558203017,0.003977047823487207
6970.421916392334,0.010988209063735689,0.004052546234053019
6970.422916164257,0.01070628229468397,0.00412986904461297
6970.42391593618,0.010405191043625382,0.00420814780977392
6970.424915708102,0.010088496080311187,0.004286514296594774
6970.425915480026,0.009759900536414347,0.004364115713104948
6970.426915251948,0.009423195232335563,0.00444012976647046
6970.427915023871,0.009082204791908547,0.0045137793884313816
6970.428914795793,0.00874073520304222,0.004584346961993156
6970.429914567716,0.008402523398793412,0.0046511878709791545
6970.430914339639,0.00807118941023288,0.004713743190628879
6970.431914111562,0.007750191610281638,0.004771551329425901
6970.432913883485,0.00744278549132249,0.004824258391700957
6970.433913655407,0.007151986341964462,0.0048716269527313005
6970.43491342733,0.006880536169771225,0.004913542847979401
6970.435913199252,0.006630875250687223,0.00495001951807156
6970.436912971176,0.00640511871948735,0.0049811994711739535
6970.437912743098,0.0062050386127841025,0.005007352543347411
6970.438912515021,0.00603205172560111,0.005028870800133687
6970.439912286944,0.0058872135425428246,0.0050462600423734705
6970.440912058866,0.0057712183646132925,0.005060127929923512
6970.441911830789,0.005684405588757147,0.005071168768595194
6970.442911602712,0.00562677192316587,0.005080145092446635
6970.443911374635,0.005597989154901801,0.005087866371182289
6970.444911146557,0.00559742695732929,0.0050951654676411225
6970.44591091848,0.005624180164698576,0.005102873750370955
6970.446910690403,0.005677099945601869,0.005111795904683448
6970.447910462326,0.005754828315750768,0.005122685465206528
6970.448910234249,0.005855835375445376,0.0051362219918795905
6970.449910006171,0.005978458531266947,0.005152990692556599
6970.450909778094,0.0061209428253216295,0.005173465163894811
6970.451909550016,0.006281481412720098,0.005197993769047405
6970.452909321939,0.006458255203199949,0.005226790003397324
6970.453909093862,0.006649470674144058,0.005259927020330985
6970.454908865785,0.006853394844752765,0.005297336287447806
6970.455908637708,0.007068386374901356,0.005338810140730261
6970.45690840963,0.00729292171634249,0.00538400787059139
6970.457908181554,0.007525615231666289,0.005432464960686732
6970.458907953476,0.007765232302905479,0.005483605163424786
6970.459907725399,0.008010694744101429,0.005536755126617825
6970.460907497321,0.008261078248952383,0.005591161221120473
6970.461907269244,0.008515602005107838,0.005646008083009452
6970.462907041167,0.008773610915992386,0.005700438225353927
6970.46390681309,0.00903455113751119,0.005753571940696154
6970.464906585013,0.009297939943615245,0.005804526678345271
6970.465906356935,0.009563331283502789,0.0058524351958561364
6970.466906128858,0.009830278695108701,0.005896461999363611
6970.46790590078,0.010098297407013856,0.005935817786420833
6970.468905672704,0.01036682747925931,0.005969771747692317
6970.469905444626,0.010635199734223241,0.005997661711822345
6970.470905216549,0.010902606036594192,0.006018902236538372
6970.471904988472,0.011168075213312551,0.006032990810774828
6970.472904760394,0.011430455583012575,0.0060395123245656325
6970.473904532317,0.011688404717509862,0.006038141927401898
6970.47490430424,0.011940386724183369,0.0060286463660107845
6970.475904076163,0.012184677060616511,0.006010883870677256
6970.476903848085,0.01241937468101881,0.005984802650112535
6970.477903620008,0.012642421145420564,0.005950438087774268
6970.4789033919305,0.012851626196783351,0.005907908819984169
6970.479903163854,0.013044699251448109,0.00585741196926006
6970.480902935777,0.013219286232883225,0.005799217828982434
6970.481902707699,0.01337301112840532,0.005733664221940413
6970.482902479622,0.013503521514171607,0.0056611506334103
6970.483902251544,0.013608537097121357,0.00558213212681783
6970.484902023468,0.013685900100854012,0.005497113036264214
6970.48590179539,0.013733626113536393,0.005406640490058719
6970.486901567313,0.01374995389589278,0.0053112979019244305
6970.487901339236,0.013733392675026202,0.005211698605128527
6970.488901111158,0.013682765563884647,0.005108479761474222
6970.489900883082,0.013597247809769059,0.005002296574190822
6970.490900655004,0.013476398557923475,0.004893816726735396
6970.491900426927,0.013320184884874065,0.004783714888104282
6970.492900198849,0.013128997210218703,0.004672667077388023
6970.493899970772,0.01290365578722536,0.004561344703465273
6970.494899742695,0.012645408488449302,0.0044504082275896705
6970.495899514618,0.012355920292743731,0.004340500586546005
6970.496899286541,0.012037254820459291,0.004232240645611148
6970.497899058463,0.011691848238103847,0.004126216967155303
6970.498898830386,0.011322476056663236,0.00402298212705335
6970.499898602308,0.01093221373578203,0.003923047752712119
6970.500898374232,0.010524392361791523,0.003826880417444088
6970.501898146154,0.01010255077192694,0.003734898505079771
6970.502897918077,0.009670385290634633,0.003647470152945903
6970.50389769,0.009231697865129406,0.003564912374954036
6970.504897461922,0.008790343068769125,0.003487491433476929
6970.505897233845,0.008350174359906329,0.0034154244611203587
6970.506897005768,0.00791499015489134,0.0033488822485497312
6970.507896777691,0.007488480547311026,0.003287993030749075
6970.508896549613,0.007074175707299969,0.0032328470302872662
6970.509896321536,0.006675397066625341,0.0031835014575219566
6970.510896093459,0.006295212373610374,0.0031399856242534277
6970.511895865382,0.005936395616336511,0.003102305798726973
6970.512895637305,0.005601392666108095,0.0030704494340140815
6970.513895409227,0.005292293301701715,0.00304438846346582
6970.51489518115,0.0050108100704742775,0.0030240814657172357
6970.515894953072,0.0047582642468038255,0.0030094746125479883
6970.516894724996,0.0045355789625009645,0.0030005013980608695
6970.517894496918,0.0043432793995617,0.0029970812203453704
6970.518894268841,0.004181499753034881,0.0029991169643657583
6970.519894040764,0.004049996506481924,0.0030064918073477408
6970.520893812686,0.003948167437409213,0.003019065522303948
6970.52189358461,0.0038750757012166277,0.0030366705985646883
6970.522893356532,0.003829478328431746,0.003059108532312082
6970.523893128455,0.003809858485796697,0.003086146648917394
6970.524892900377,0.0038144608562026986,0.003117515795167305
6970.5258926723,0.0038413294613562246,0.0031529091922866967
6970.526892444223,0.003888347195062944,0.0031919826759335868
6970.527892216146,0.003953276279631511,0.0032343564663185427
6970.528891988069,0.004033798824996608,0.00327961851031355
6970.529891759991,0.0041275566828123025,0.003327329324790045
6970.530891531914,0.004232189864916126,0.0033770281657432527
6970.531891303836,0.004345372928250156,0.0034282402706634248
6970.53289107576,0.00446484887932286,0.003480484874558462
6970.533890847682,0.0045884602929508545,0.0035332836770710957
6970.534890619605,0.004714177476898316,0.003586169436548072
6970.535890391528,0.004840123650037962,0.0036386943799535556
6970.53689016345,0.00496459720867526,0.003690438140298244
6970.537889935373,0.005086091203817018,0.003741014973889615
6970.538889707296,0.005203310141344316,0.0037900800721090656
6970.539889479219,0.0053151841518964274,0.00383733485281413
6970.540889251141,0.005420880453106272,0.003882531177143202
6970.541889023064,0.005519811865987386,0.003925474479665192
6970.542888794987,0.005611642015766196,0.003966025829677254
6970.54388856691,0.005696286818544734,0.004004102977861756
6970.544888338833,0.005773911957536871,0.004039680490503935
6970.545888110755,0.005844926246922985,0.004072789108012201
6970.546887882678,0.0059099709960262065,0.004103514463583177
6970.5478876546,0.005969905676052135,0.004131995277649071
6970.548887426524,0.0060257903443790735,0.004158421135879197
6970.549887198446,0.006078865389181093,0.004183029964707549
6970.550886970369,0.006130529201234459,0.004206105309972651
6970.551886742292,0.006182314334771035,0.004227973480283742
6970.552886514214,0.006235862574001878,0.004249000542605701
6970.553886286138,0.006292899114840625,0.0042695890673001904
6970.55488605806,0.0063552058925442625,0.004290174422701689
6970.555885829983,0.0064245940182543785,0.004311220339502495
6970.556885601905,0.006502875344033583,0.00433321345526447
6970.557885373828,0.006591833309320894,0.004356656643395042
6970.558885145751,0.006693193376432294,0.004382061084683843
6970.559884917674,0.006808593488104829,0.004409937163616377
6970.560884689597,0.006939555016773289,0.0044407843308990735
6970.561884461519,0.007087454587441779,0.004475080106554048
6970.562884233442,0.007253496979030935,0.00451326844410859
6970.563884005365,0.007438689150017994,0.004555747739500657
6970.564883777288,0.007643815416628295,0.004602858845248684
6970.56588354921,0.007869413979429148,0.004654873537380126
6970.566883321133,0.008115755260525409,0.004711983947420197
6970.567883093056,0.008382822740296177,0.004774293468327804
6970.568882864978,0.00867029708098413,0.004841809562844336
6970.569882636902,0.008977544267378349,0.0049144387832810174
6970.570882408824,0.009303608309297771,0.004991984198769202
6970.571882180747,0.009647208829569683,0.0050741453401153104
6970.572881952669,0.010006743712909936,0.005160520706296215
6970.573881724592,0.01038029694103839,0.0052506128076835025
6970.574881496515,0.010765651717253832,0.0053438356306055
6970.575881268438,0.011160308911965426,0.005439524298247226
6970.576881040361,0.01156151071308389,0.005536946598205464
6970.577880812283,0.011966269152973332,0.005635315977553043
6970.578880584206,0.01237139896161248,0.005733805594430793
6970.579880356128,0.012773554079620502,0.00583156306012113
6970.580880128052,0.01316926724417639,0.005927725563256262
6970.581879899974,0.013554992259436422,0.006021435070600008
6970.582879671897,0.013927148670005973,0.006111853224204805
6970.58387944382,0.014282168446036976,0.006198175454295835
6970.584879215742,0.014616544060233537,0.006279643778511884
6970.585878987666,0.014926877194564888,0.006355557816004258
6970.586878759588,0.01520992734957401,0.00642528371723572
6970.587878531511,0.01546265974747684,0.006488260934620843
6970.588878303433,0.015682291956377624,0.00654400692715634
6970.589878075356,0.01586633855711489,0.006592119933925809
6970.590877847279,0.016012653048081017,0.00663227988812004
6970.591877619202,0.01611946620971719,0.006664247464095586
6970.592877391125,0.01618542033087272,0.0066878612503567525
6970.593877163047,0.01620959885614229,0.006703033165869834
6970.59487693497,0.01619155104827637,0.0067097424552967
6970.595876706893,0.016131311305879817,0.00670802881631063
6970.596876478816,0.016029413002734465,0.006697985314572395
6970.597876250738,0.015886897055972887,0.006679751670109231
6970.598876022661,0.015705315616794887,0.006653508298227609
6970.599875794584,0.015486731115105618,0.006619471263077763
6970.600875566506,0.015233710430478116,0.006577888129951626
6970.60187533843,0.014949313417742987,0.006529034608617757
6970.602875110352,0.014637074586471495,0.0064732118622247104
6970.603874882275,0.01430097653121687,0.006410744388859133
6970.604874654197,0.01394541377701357,0.006341978415764413
6970.60587442612,0.013575146054720632,0.006267280746875759
6970.606874198043,0.013195240606632094,0.006187037986756343
6970.607873969966,0.01281100378544658,0.006101656050958
6970.608873741889,0.012427902769656522,0.006011559864807811
6970.609873513811,0.012051478658397655,0.005917193152383635
6970.610873285734,0.011687252645002363,0.005819018231763457
6970.611873057656,0.011340627427833663,0.005717515736499142
6970.61287282958,0.01101678637123564,0.005613184141890614
6970.613872601502,0.010720593051956164,0.005506538916051478
6970.614872373425,0.010456493724431313,0.005398111122528108
6970.615872145348,0.0102284250367449,0.005288445405921339
6970.61687191727,0.01003972915898378,0.005178097425830372
6970.617871689194,0.009893078372311565,0.005067630869656497
6970.618871461116,0.009790411027013723,0.004957614136312061
6970.619871233039,0.009732880535005746,0.004848616685577614
6970.620871004961,0.00972081872272888,0.004741204970865614
6970.621870776884,0.009753714479470694,0.0046359378686339076
6970.622870548807,0.009830208241559068,0.004533361576365556
6970.62387032073,0.00994810251052776,0.004434004019465449
6970.624870092653,0.010104388345594755,0.004338368841871817
6970.625869864575,0.010295287573873482,0.004246929062088988
6970.626869636498,0.010516310286565266,0.004160120495982316
6970.627869408421,0.010762327025282705,0.004078335101086995
6970.628869180344,0.011027654902764018,0.004001914464308026
6970.629868952266,0.01130615671149216,0.003931143702666743
6970.630868724189,0.011591351813883391,0.0038662460667564123
6970.631868496112,0.01187653727814445,0.0038073785521561807
6970.632868268034,0.012154917351505925,0.003754628850870186
6970.633868039958,0.012419738954562312,0.0037080139820599143
6970.63486781188,0.012664430414755864,0.003667480883825393
6970.635867583803,0.012882740147820215,0.0036329091262249182
6970.636867355725,0.013068871581040392,0.0036041157600213885
6970.637867127648,0.013217610526748715,0.0035808621767779224
6970.638866899571,0.013324441571793123,0.0035628627324396783
6970.639866671494,0.013385650638418928,0.003549794782829792
6970.640866443417,0.013398411321471413,0.0035413097065327315
6970.641866215339,0.01336085279228033,0.003537044457036311
6970.642865987262,0.013272107233181653,0.003536633184180628
6970.643865759184,0.013132335248552427,0.003539718475454064
6970.644865531108,0.012942728549869475,0.0035459617758145092
6970.64586530303,0.012705490216240132,0.00355505254751652
6970.646865074953,0.012423793697997218,0.0035667157386444215
6970.647864846876,0.012101722301965248,0.0035807171690202394
6970.648864618799,0.011744191205927795,0.003596866557955856
6970.649864390722,0.011356854222836688,0.0036150181294865324
6970.650864162644,0.010945997661690363,0.003635068984560258
6970.651863934567,0.0105184237262815,0.003656955622979546
6970.652863706489,0.010081325944473607,0.0036806490713640534
6970.653863478412,0.009642159132256379,0.0037061490575665355
6970.654863250335,0.00920850637152034,0.0037334776291371354
6970.655863022258,0.008787945408966054,0.003762672569929681
6970.656862794181,0.008387916763261305,0.003793780919479819
6970.657862566103,0.008015595673062894,0.0038268528421550674
6970.658862338026,0.007677769845218757,0.0038619360295070767
6970.659862109949,0.007380724769313626,0.0038990707436898126
6970.660861881872,0.007130138134445802,0.0039382855208182615
6970.661861653794,0.006930984611313193,0.003979593471295592
6970.662861425717,0.0067874519919334225,0.0040229890686858585
6970.66386119764,0.006702869489672949,0.00406844531721318
6970.664860969562,0.006679648929934929,0.004115911210023144
6970.665860741486,0.006719239559731329,0.004165309418316934
6970.666860513408,0.006822097193771829,0.00421653419630885
6970.667860285331,0.006987668348674488,0.004269449562157605
6970.668860057253,0.007214389881121333,0.004323887891963379
6970.669859829176,0.007499704440012453,0.004379649086074843
6970.670859601099,0.00784009178715621,0.004436500415821805
6970.671859373022,0.008231115771915895,0.004494177084730935
6970.672859144945,0.008667486485166121,0.0045523835120853135
6970.673858916867,0.009143136865309761,0.004610795382362999
6970.67485868879,0.0096513127746162,0.004669062544683429
6970.675858460712,0.010184675312910235,0.004726812833860436
6970.676858232636,0.010735413921951691,0.004783656824046653
6970.677858004558,0.011295368689486331,0.004839193469796835
6970.678857776481,0.011856160153468354,0.00489301657227234
6970.679857548404,0.012409324756137157,0.004944722005000694
6970.680857320327,0.012946453874333462,0.004993915587746786
6970.68185709225,0.013459334074897852,0.005040221387140998
6970.682856864172,0.013940085904323406,0.005083290083115703
6970.683856636095,0.014381298125275884,0.00512280693613915
6970.684856408017,0.014776153997721513,0.005158498892220773
6970.68585617994,0.015118546207864906,0.005190140505215596
6970.686855951863,0.015403177495432293,0.005217558590027375
6970.687855723786,0.01562564476561725,0.005240635732521836
6970.688855495709,0.015782505155890785,0.005259312877118262
6970.689855267631,0.015871322905976086,0.0052735911695334795
6970.690855039554,0.015890696016898857,0.005283533096021352
6970.691854811477,0.015840261921370162,0.0052892628109548236
6970.6928545834,0.015720682020366663,0.005290965443760646
6970.693854355322,0.015533605961576977,0.0052888851293463246
6970.694854127245,0.015281617644078517,0.005283321494587989
6970.695853899168,0.014968165736371579,0.0052746243768819305
6970.69685367109,0.014597481743416003,0.005263186685032012
6970.697853443014,0.01417448840608847,0.005249435514975173
6970.698853214936,0.013704700753799195,0.005233821821775104
6970.699852986859,0.013194121755986634,0.005216809061713388
6970.700852758781,0.012649134374873241,0.005198861255461363
6970.701852530705,0.012076391895734343,0.005180430922310996
6970.702852302627,0.011482708592992465,0.005161947320981144
6970.70385207455,0.01087495293706028,0.005143805407186438
6970.704851846473,0.010259945539388877,0.005126355878648906
6970.705851618395,0.00964436383497975,0.005109896623725637
6970.706851390318,0.009034655162760651,0.005094665824030596
6970.707851162241,0.00843695950202953,0.005080836893279223
6970.708850934164,0.007857042712668637,0.005068515367658757
6970.709850706086,0.007300240743817667,0.005057737788356497
6970.710850478009,0.006771414943102184,0.005048472530390857
6970.711850249932,0.006274918309139432,0.005040622449460098
6970.712850021855,0.005814572250305765,0.005034029159596273
6970.713849793778,0.0053936531268793525,0.005028478724003566
6970.7148495657,0.005014887594383895,0.005023708535433738
6970.715849337623,0.004680455584724864,0.005019415171758896
6970.716849109545,0.00439199967930214,0.005015263023412596
6970.717848881468,0.004150639642454677,0.005010893496687297
6970.718848653391,0.003956991009759106,0.00500593460175021
6970.719848425314,0.0038111868705337022,0.0050000107226964565
6970.720848197237,0.003712902281120818,0.004992752321318592
6970.721847969159,0.0036613809867228897,0.004983805269809965
6970.722847741082,0.0036554642634921536,0.004972839502721367
6970.723847513005,0.003693621742513506,0.004959556758123963
6970.724847284928,0.0037739840762582738,0.00494369729912742
6970.72584705685,0.003894377269591836,0.004925045588939979
6970.726846828773,0.004052358432379543,0.004903434893123606
6970.727846600696,0.004245252628757949,0.004878750735949644
6970.728846372618,0.004470190403680511,0.0048509331252117255
6970.729846144542,0.004724145469149805,0.004819977534238635
6970.730845916464,0.00500397194287833,0.0047859347608281
6970.731845688387,0.005306440468159068,0.004748909880930779
6970.732845460309,0.005628272543415026,0.004709060511991864
6970.733845232233,0.005966172497980825,0.0046665945005995284
6970.734845004155,0.006316856776826965,0.004621767002015872
6970.735844776078,0.006677080505491149,0.004574876780880405
6970.736844548001,0.007043661629745063,0.004526261492991986
6970.737844319923,0.007413503172274226,0.004476291762969638
6970.738844091846,0.0077836142502827645,0.004425364042890952
6970.739843863769,0.00815113045599121,0.004373892429262471
6970.740843635692,0.008513334072950683,0.0043222997386728355
6970.741843407614,0.008867674430661736,0.004271008188714851
6970.742843179537,0.009211788502740417,0.004220430039174364
6970.74384295146,0.009543521631364153,0.004170958533532632
6970.744842723383,0.00986094800574682,0.004122959438924345
6970.745842495306,0.010162390213912117,0.004076763423387269
6970.746842267228,0.01044643681846856,0.004032659447177512
6970.747842039151,0.010711956546565428,0.003990889291809483
6970.748841811073,0.0109581074858983,0.003951643317640732
6970.749841582996,0.011184339778506722,0.003915057523276513
6970.750841354919,0.011390390672729,0.0038812119554166085
6970.751841126842,0.011576271223918858,0.0038501304783984057
6970.752840898765,0.011742244240801789,0.003821781872867027
6970.753840670687,0.011888793311677354,0.003796082198550722
6970.75484044261,0.012016583163614312,0.003772898316729296
6970.755840214533,0.01212641235751811,0.003752052420210766
6970.756839986456,0.012219160232951096,0.003733327375753893
6970.757839758378,0.012295730720308809,0.003716472669189508
6970.758839530301,0.012356995907801937,0.003701210778937026
6970.759839302224,0.01240374218023228,0.0036872438819584466
6970.760839074146,0.012436621572723681,0.003674260865701132
6970.76183884607,0.012456110811991564,0.003661944631750187
6970.762838617992,0.012462480279845067,0.0036499796485355298
6970.763838389915,0.012455774732226168,0.0036380597019287537
6970.764838161837,0.012435807039104959,0.0036258958265724095
6970.765837933761,0.01240216554740573,0.0036132244350107045
6970.766837705683,0.012354234980169082,0.0035998156415585764
6970.767837477606,0.0122912301056184,0.003585481689617147
6970.768837249529,0.012212240755400606,0.003570085264971138
6970.769837021451,0.01211628615196099,0.0035535473605359863
6970.770836793374,0.012002375935626475,0.0035358542815443813
6970.771836565297,0.01186957481620226,0.00351706334370634
6970.77283633722,0.011717067538163465,0.003497306810165038
6970.773836109142,0.01154422097892408,0.003476793645323455
6970.774835881065,0.011350640670445722,0.0034558087482746865
6970.775835652988,0.011136219603740434,0.003434709453970184
6970.776835424911,0.010901177611171115,0.0034139192344934772
6970.777835196834,0.010646089938519841,0.003393918692049103
6970.778834968756,0.010371904006381287,0.003375234105726301
6970.779834740679,0.010079943936030488,0.003358423941947095
6970.780834512601,0.009771903131579168,0.003344063826201847
6970.781834284524,0.00944982591978914,0.003332730507312628
6970.782834056447,0.009116079776162208,0.0033249853598023072
6970.78383382837,0.008773319882091145,0.003321357976470138
6970.784833600293,0.008424447660001921,0.003322330390530937
6970.785833372215,0.008072564652840822,0.003328322435182461
6970.786833144139,0.007720922830731342,0.003339678707124631
6970.787832916061,0.007372872251979052,0.00335665754837352
6970.788832687984,0.00703180700556039,0.0033794223970647205
6970.789832459906,0.0067011104394247125,0.0034080357875711054
6970.790832231829,0.006384100723116482,0.003442456197905961
6970.791832003752,0.0060839777641651435,0.0034825378366831494
6970.792831775675,0.005803772431178681,0.0035280333406834197
6970.793831547598,0.005546298963127808,0.003578599245171336
6970.79483131952,0.005314111348711481,0.003633804009592134
6970.795831091443,0.00510946431979513,0.0036931383237230157
6970.796830863365,0.004934279436668274,0.003756027370657558
6970.797830635289,0.004790116602497518,0.00382184467718429
6970.798830407211,0.004678151266466093,0.0038899271386124857
6970.799830179134,0.004599157544468437,0.0039595907688716805
6970.800829951057,0.0045534974490344425,0.004030146700878333
6970.801829722979,0.004541116328976835,0.00410091694626954
6970.802829494902,0.004561544470308019,0.0041712494344645365
6970.803829266825,0.004613904639485874,0.004240531913767323
6970.804829038748,0.004696925195999158,0.004308204393210566
6970.80582881067,0.004808958286663248,0.0043737698681717025
6970.806828582593,0.004948002589798568,0.0044368030669898915
6970.807828354516,0.005111730133913358,0.004496956918693931
6970.808828126439,0.005297516839830347,0.004553966462030299
6970.809827898362,0.0055024765283818566,0.004607650058610111
6970.810827670284,0.005723498127834768,0.004657908020390847
6970.811827442207,0.005957285725212512,0.004704719018733828
6970.812827214129,0.006200401000509279,0.004748134806724727
6970.813826986052,0.006449307517903325,0.004788273811643111
6970.814826757975,0.006700416341873087,0.004825314054496731
6970.815826529898,0.006950132480004678,0.004859485677591983
6970.816826301821,0.007194901692446961,0.004891063172619963
6970.817826073743,0.0074312572213153455,0.004920357257327283
6970.818825845667,0.007655865986368823,0.004947706271742068
6970.819825617589,0.007865573810103426,0.004973466942892428
6970.820825389512,0.00805744929486072,0.004998004392831187
6970.821825161434,0.008228826007727622,0.00502168136451533
6970.822824933357,0.008377342535530257,0.005044846826780212
6970.82382470528,0.008500979727084012,0.005067824331624554
6970.824824477203,0.00859809411733654,0.005090900626401245
6970.825824249126,0.008667446250990626,0.00511431500769071
6970.826824021048,0.008708222513153825,0.005138249767136364
6970.827823792971,0.00872004921667292,0.005162821903279448
6970.828823564893,0.008702998086117903,0.005188076143991762
6970.829823336817,0.008657582781773867,0.005213979293838099
6970.830823108739,0.008584746527766189,0.005240415988208953
6970.831822880662,0.008485841165687985,0.005267186052120014
6970.832822652585,0.008362598164541251,0.005294003757594371
6970.833822424507,0.00821709243848479,0.0053204992990455915
6970.83482219643,0.008051700235517609,0.005346222746807854
6970.835821968353,0.007869052666585441,0.005370650604599462
6970.836821740276,0.007671986497079809,0.005393194912456632
6970.837821512198,0.007463493659867284,0.005413214655225327
6970.838821284121,0.007246670715039291,0.005430029124656482
6970.839821056044,0.007024669284036003,0.005442932862987167
6970.840820827967,0.0068006483365368915,0.00545121183656458
6970.84182059989,0.006577729057790353,0.005454160481685052
6970.842820371812,0.006358952849604578,0.0054510992212926535
6970.843820143735,0.006147242872279567,0.005441392008383531
6970.844819915657,0.005945369473429572,0.005424463428671271
6970.845819687581,0.005755919844489277,0.005399814878317737
6970.846819459503,0.005581272215397416,0.005367039320590635
6970.847819231426,0.005423574804040519,0.0053258341378662035
6970.848819003349,0.005284729603340025,0.005276011648269001
6970.849818775271,0.005166380952027486,0.00521750695082385
6970.850818547195,0.005069908722946525,0.005150382888926589
6970.851818319117,0.004996425893923448,0.00507483206277968
6970.85281809104,0.004946780223328937,0.004991175960897585
6970.853817862962,0.00492155968479875,0.004899861398961714
6970.854817634885,0.004921101206466693,0.004801454536351459
6970.855817406808,0.004945502151858278,0.004696632804302396
6970.856817178731,0.004994633910059938,0.004586175158570481
6970.857816950654,0.00506815691488914,0.004470951152073741
6970.858816722576,0.0051655363481032945,0.004351909349558774
6970.859816494499,0.005286057707431295,0.004230065538446426
6970.860816266421,0.005428841408809626,0.0041064910454798416
6970.861816038345,0.005592855722522565,0.0039823012960527844
6970.862815810267,0.005776927611906062,0.0038586446066747695
6970.86381558219,0.0059797513442489125,0.003736691126992925
6970.864815354113,0.006199894950283544,0.003617621861474442
6970.865815126035,0.006435804684869064,0.003502617777875012
6970.866814897958,0.006685807663942292,0.003392849098036014
6970.867814669881,0.006948112928641621,0.0032894649141438953
6970.868814441804,0.007220811358103739,0.0031935832683529434
6970.869814213726,0.007501875082082563,0.0031062818111337992
6970.870813985649,0.007789157268698263,0.0030285891439919615
6970.871813757572,0.008080393315306383,0.0029614769427116256
6970.872813529495,0.008373204501512703,0.0029058529234571645
6970.873813301418,0.008665105071022857,0.0028625546561563977
6970.87481307334,0.008953513532719108,0.002832344163551398
6970.875812845263,0.0092357687422596,0.0028159031805763675
6970.876812617185,0.00950915105900745,0.0028138288948252274
6970.877812389109,0.00977090859664223,0.002826629958142264
6970.878812161031,0.010018288321903837,0.002854722562845591
6970.879811932954,0.010248571483687942,0.0028984264103175147
6970.880811704877,0.010459112534947607,0.0029579604475127113
6970.881811476799,0.010647380368977095,0.0030334382907460044
6970.882811248723,0.010811000460277616,0.003124863295524771
6970.883811020645,0.010947796514140571,0.003232123280782211
6970.884810792568,0.01105583046243331,0.0033549849754704497
6970.88581056449,0.011133439886218007,0.0034930883022202906
6970.886810336413,0.011179272002912282,0.0036459406424788907
6970.887810108336,0.011192313247307972,0.0038129112798548875
6970.888809880259,0.011171913406776273,0.003993226328308388
6970.889809652182,0.011117803417262194,0.004185964586309266
6970.890809424104,0.011030106293725443,0.004390054834579636
6970.891809196027,0.010909341119455242,0.004604275069049583
6970.892808967949,0.010756420371906236,0.004827254069677679
6970.893808739873,0.010572640996422578,0.0050574756144066615
6970.894808511795,0.010359669566220968,0.005293285575022962
6970.895808283718,0.010119521717359994,0.005532902053068274
6970.896808055641,0.009854535976667302,0.0057744286119799084
6970.897807827563,0.009567342203277951,0.0060158705528932516
6970.898807599486,0.009260825121199375,0.006255154089655005
6970.899807371409,0.008938083701826282,0.006490148203087052
6970.900807143332,0.008602387312295318,0.006718688890646954
6970.901806915254,0.008257129538426628,0.0069386054988550185
6970.902806687177,0.007905780531561215,0.007147748854189914
6970.9038064591,0.0075518387489523974,0.007344020957390631
6970.904806231023,0.007198783046036465,0.0075254059915541155
6970.905806002946,0.0068500261186401545,0.007690002254384838
6970.906805774868,0.006508870230033198,0.007836054367751158
6970.907805546791,0.006178466032673129,0.007961984808101638
6970.908805318713,0.005861775147795717,0.008066423530796096
6970.909805090637,0.005561537009772735,0.008148234332314689
6970.910804862559,0.005280240334673314,0.008206536690249696
6970.911804634482,0.005020099451390385,0.00824072214668756
6970.912804406405,0.00478303563238804,0.008250464738028622
6970.913804178327,0.004570663456485698,0.00823572534406811
6970.914803950251,0.004384282111992112,0.008196750046742864
6970.915803722173,0.00422487141564892,0.008134062726701197
6970.916803494096,0.004093092215535356,0.008048452283137792
6970.917803266018,0.003989290782804854,0.007940955035198108
6970.918803037941,0.003913506755885567,0.00781283298690411
6970.919802809864,0.003865484158668687,0.007665548699977189
6970.920802581787,0.003844684991539395,0.007500737568103662
6970.92180235371,0.0038503049256302254,0.007320178336878548
6970.922802125632,0.003881290708031474,0.007125762711531177
6970.923801897555,0.003936358958117931,0.006919464790816781
6970.924801669478,0.004014016063161979,0.0067033108771346215
6970.925801441401,0.004112578878911534,0.006479350007872384
6970.926801213323,0.004230195962517507,0.006249625425398719
6970.927800985246,0.004364869144487337,0.006016147229452459
6970.928800757169,0.004514475352175244,0.00578086660886381
6970.929800529091,0.0046767886708028285,0.005545652193608685
6970.930800301015,0.004849502649758314,0.005312269082745393
6970.931800072937,0.005030252861209308,0.005082360978654286
6970.93279984486,0.005216639725434297,0.004857435662123995
6970.933799616782,0.005406251632270119,0.00463885385354107
6970.934799388705,0.005596688394068024,0.004427821368614953
6970.935799160628,0.005785585048250991,0.00422538439772127
6970.936798932551,0.005970635968464308,0.004032427700951308
6970.937798704474,0.006149619127339331,0.0038496755048834544
6970.938798476396,0.006320420196307586,0.003677694898726403
6970.939798248319,0.006481056007583497,0.0035169015350021877
6970.940798020241,0.006629696769282794,0.0033675674291927657
6970.941797792165,0.0067646863394660445,0.0032298306252096175
6970.942797564087,0.006884559880739934,0.00310370645439487
6970.94379733601,0.006988058388853279,0.0029891000710160153
6970.944797107933,0.007074139876312879,0.002885819911943219
6970.945796879855,0.007141987240405604,0.0027935917217153106
6970.946796651779,0.007191012913556433,0.0027120728084869825
6970.947796423701,0.007220860282849478,0.002640866227973274
6970.948796195624,0.007231401707184743,0.00257953460699212
6970.949795967546,0.007222732921865539,0.0025276133126520555
6970.950795739469,0.007195163794490659,0.002484622658569173
6970.951795511392,0.007149205727099959,0.002450078832115938
6970.952795283315,0.007085556314366599,0.002423503254906949
6970.953795055238,0.00700508201975244,0.002404430178972782
6970.95479482716,0.00690879960066278,0.002392412461951228
6970.955794599083,0.006797856857102721,0.0023870256021046167
6970.956794371006,0.006673513057415082,0.0023878701973455577
6970.957794142929,0.006537119178431814,0.002394573017573572
6970.958793914851,0.00639009796106215,0.0024067868783399773
6970.959793686774,0.006233923757700154,0.002424189501205566
6970.960793458697,0.00607010221059662,0.002446481542323499
6970.961793230619,0.005900149908811889,0.002473383955770697
6970.962793002543,0.005725574286141996,0.0025046348275807643
6970.963792774465,0.005547854109522053,0.0025399857809326617
6970.964792546388,0.005368420952929169,0.0025791980371622555
6970.96579231831,0.005188642055973448,0.0026220382349521148
6970.966792090233,0.005009804923939494,0.002668274145338959
6970.967791862156,0.004833103944569622,0.002717670445387794
6970.968791634079,0.004659629216205664,0.00276998471123232
6970.969791406002,0.0044903577377585924,0.0028249637594720367
6970.970791177924,0.004326147103140449,0.002882340421857946
6970.971790949847,0.004167731856540539,0.0029418308100994965
6970.972790721769,0.004015722680470004,0.003003132126543633
6970.973790493693,0.0038706085677981915,0.003065921092017151
6970.974790265615,0.003732762046502597,0.0031298530876542174
6970.975790037538,0.0036024474057107427,0.0031945621403423703
6970.976789809461,0.003479831754881388,0.0032596619031767648
6970.977789581383,0.0033649986466259838,0.003324747770040533
6970.978789353307,0.0032579639054903316,0.0033894002129169773
6970.979789125229,0.003158693235182246,0.0034531893549995685
6970.980788897152,0.003067121118690683,0.003515680712415288
6970.981788669074,0.002983170459942412,0.003576441973873874
6970.982788440997,0.0029067723425783565,0.0036350506542414934
6970.98378821292,0.00283788522224311,0.0036911024538494614
6970.984787984843,0.0027765128357684927,0.003744220168128648
6970.985787756766,0.0027227201057687155,0.0037940630056313004
6970.986787528688,0.0026766463471328866,0.003840336168877995
6970.987787300611,0.0026385151423104717,0.0038828005143805968
6970.988787072534,0.002608640336509862,0.003921282030983397
6970.989786844457,0.0025874277151596036,0.0039556807807567245
6970.990786616379,0.0025753720834294906,0.003985978870470422
6970.991786388302,0.0025730496744643836,0.004012246990219358
6970.992786160225,0.002581106034371896,0.004034649078931292
6970.993785932147,0.0026002397195269747,0.0040534447483492496
6970.994785704071,0.002631182272009669,0.004068989189078623
6970.995785475993,0.002674675023220629,0.004081730374619858
6970.996785247916,0.0027314433418321946,0.004092203506202514
6970.997785019838,0.002802169010794786,0.004101022841634176
6970.998784791761,0.002887461492171647,0.004108871273817401
6970.999784563684,0.0029878289109318903,0.004116488154886804
6971.000784335607,0.003103649649506416,0.004124655844089428
6971.00178410753,0.003235145483708045,0.004134185333359267
6971.002783879452,0.0033823571986618963,0.004145901150533695
6971.003783651375,0.0035451235894318808,0.004160625611095695
6971.004783423297,0.0037230646639227847,0.0041791624160360495
6971.005783195221,0.003915569727690935,0.0042022795968229875
6971.006782967143,0.0041217908600026925,0.004230691887807577
6971.007782739066,0.004340642113352948,0.004265042721883213
6971.008782510989,0.004570804609933851,0.004305886147334596
6971.009782282912,0.0048107375809363934,0.004353669046982011
6971.010782054835,0.005058695284294105,0.004408714134569586
6971.011781826757,0.005312749614141176,0.004471204305521299
6971.01278159868,0.005570818070806834,0.004541168980499512
6971.013781370602,0.005830696623562543,0.004618473065133343
6971.014781142525,0.006090096916248427,0.004702809066986654
6971.015780914448,0.006346687247242862,0.004793692784237191
6971.016780686371,0.006598136750373973,0.0048904628342967315
6971.017780458294,0.006842162163245434,0.004992284171467052
6971.018780230216,0.007076576503716108,0.005098155695354144
6971.019780002139,0.007299338909023677,0.005206922056106647
6971.020779774062,0.00750860479781604,0.005317289740758741
6971.021779545985,0.007702775346831094,0.005427847426651818
6971.022779317907,0.007880545042068823,0.005537090431352992
6971.02377908983,0.008040945825820208,0.005643448917075495
6971.024778861753,0.008183386155733652,0.005745319343344092
6971.025778633675,0.008307683149344007,0.0058410985037892485
6971.026778405599,0.008414085973817391,0.0059292193308534856
6971.027778177521,0.00850328882964767,0.006008187515820465
6971.028777949444,0.008576432255348094,0.00607661787551377
6971.029777721366,0.008635091936773273,0.0061332692926705235
6971.030777493289,0.008681254652009744,0.006177076967713893
6971.031777265212,0.008717281449202663,0.006207180682622229
6971.032777037135,0.00874585869753706,0.006222947852570222
6971.033776809058,0.008769938225669693,0.006223990373083155
6971.03477658098,0.00879266825796102,0.006210174640889536
6971.035776352903,0.00881731722714258,0.006181624537333501
6971.036776124825,0.008847192797962523,0.006138717504234415
6971.037775896749,0.00888555858141341,0.006082074084850912
6971.038775668671,0.008935551025842444,0.006012541499557192
6971.039775440594,0.009000098839241381,0.005931172024778145
6971.040775212517,0.009081847085617134,0.005839197136763875
6971.04177498444,0.00918308788612163,0.0057379985261049715
6971.042774756363,0.009305699471784447,0.00562907713778316
6971.043774528285,0.009451095144502339,0.005514021317190868
6971.044774300208,0.009620183460974268,0.005394474965286953
6971.04577407213,0.009813340655083507,0.005272106397511344
6971.046773844053,0.010030395990091558,0.005148578440321497
6971.047773615976,0.010270630414716679,0.005025520218251053
6971.048773387899,0.010532788583605738,0.004904501046594207
6971.049773159822,0.010815103956263972,0.004787006782558078
6971.050772931744,0.011115336274872826,0.004674418873887046
6971.051772703667,0.011430820239851338,0.004567996214539437
6971.05277247559,0.0117585237033317,0.004468859819483458
6971.053772247513,0.0120951133064159,0.004377980270412827
6971.054772019435,0.012437025346563014,0.004296167826673278
6971.055771791358,0.012780539813874517,0.004224065015007565
6971.056771563281,0.013121855818535201,0.004162141431699423
6971.057771335203,0.013457166818677292,0.00411069046643
6971.058771107127,0.01378273406871601,0.00406982772381849
6971.059770879049,0.01409495666108672,0.004039491077054883
6971.060770650972,0.014390436613021097,0.004019442508581895
6971.061770422894,0.014666037745633837,0.004009272100119811
6971.062770194818,0.014918937530551395,0.00400840463309441
6971.06376996674,0.015146671409980696,0.004016109212922265
6971.064769738663,0.01534716911851267,0.004031512177960867
6971.065769510586,0.015518782252918317,0.004053613357038293
6971.066769282508,0.015660302013717205,0.004081305533798143
6971.067769054431,0.01577096603017168,0.00411339678136279
6971.068768826354,0.01585045363448667,0.0041486351713294674
6971.069768598277,0.015898869674186522,0.004185735262801953
6971.070768370199,0.015916717558053427,0.004223405744161855
6971.071768142122,0.015904862516128635,0.004260377599869933
6971.072767914045,0.0158644861682947,0.0042954321568529266
6971.073767685968,0.015797033737864754,0.0043274283073984334
6971.074767457891,0.015704155743654656,0.004355328144200721
6971.075767229813,0.015587646603493387,0.004378220250225826
6971.076767001736,0.015449383004573361,0.004395339994107935
6971.077766773658,0.01529126496878751,0.004406086341975707
6971.078766545581,0.015115162289675979,0.004410034831200232
6971.079766317504,0.014922868573156963,0.004406946437917165
6971.080766089427,0.014716064602917588,0.004396772154412658
6971.08176586135,0.014496292249149065,0.0043796532208912765
6971.082765633272,0.014264939649544506,0.004355917113955534
6971.083765405195,0.014023237877612286,0.004326069532346014
6971.084765177118,0.013772268789903841,0.004290782719774029
6971.085764949041,0.013512983285961441,0.004250880537254677
6971.086764720963,0.01324622885709544,0.004207320749916529
6971.087764492886,0.012972784981134291,0.004161175025098449
6971.088764264809,0.012693404560326003,0.004113607156162973
6971.089764036731,0.0124088592061083,0.004065850029039264
6971.090763808655,0.012119985842024098,0.0040191818145208485
6971.091763580577,0.011827731901774222,0.003974901782171413
6971.0927633525,0.011533196319426836,0.003934306015619721
6971.093763124422,0.011237663474651933,0.003898663230773383
6971.094762896346,0.010942627314025254,0.003869190915922354
6971.095762668268,0.010649803231361775,0.0038470321055229296
6971.096762440191,0.01036112613810607,0.003833233177847341
6971.097762212114,0.010078734385240094,0.0038287230711309254
6971.098761984036,0.009804940410122665,0.003834294264903521
6971.099761755959,0.009542189770948789,0.0038505858139071185
6971.100761527882,0.009293010507999003,0.0038780686620089014
6971.101761299805,0.00905995477539171,0.0039170334154390056
6971.102761071727,0.008845534712853714,0.00396758075277009
6971.10376084365,0.008652154674327563,0.004029614701469008
6971.104760615573,0.008482042117399237,0.004102839070259756
6971.105760387496,0.0083371795685582,0.004186757336072378
6971.106760159419,0.008219240049300405,0.0042806762295283475
6971.107759931341,0.008129528167634348,0.004383713166693263
6971.108759703264,0.008068928784978842,0.004494807567108758
6971.109759475186,0.00803786482134112,0.00461273599702887
6971.110759247109,0.008036265408260744,0.004736130979259565
6971.111759019032,0.008063545256773774,0.004863503198317442
6971.112758790955,0.00811859578832428,0.004993266691830734
6971.113758562878,0.008199788285179399,0.005123766468156491
6971.1147583348,0.008304989036799148,0.005253307849329475
6971.115758106723,0.008431586179581665,0.005380186738297862
6971.116757878646,0.008576527670474144,0.005502719988282298
6971.117757650569,0.008736369616666543,0.005619275125452315
6971.118757422491,0.008907333991712325,0.005728298804287896
6971.119757194414,0.009085374597497057,0.00582834349085963
6971.120756966337,0.009266249994372557,0.005918091944027973
6971.121756738259,0.009445602004666345,0.005996379128360689
6971.122756510183,0.009619038250303929,0.006062211275435955
6971.123756282105,0.009782216990728274,0.006114781881986719
6971.124756054028,0.00993093231726233,0.006153484442408207
6971.12575582595,0.010061197605139072,0.006177921669150715
6971.126755597874,0.010169325102094508,0.006187910923365853
6971.127755369796,0.010251999675139229,0.006183485611584407
6971.128755141719,0.010306344975355888,0.006164892412366978
6971.129754913642,0.010329980510379264,0.006132584361615851
6971.130754685564,0.010321068346292072,0.00608721000495881
6971.131754457487,0.010278348498620743,0.006029598971738102
6971.13275422941,0.010201162531520112,0.005960744412628193
6971.133754001333,0.01008946535190145,0.005881782768220391
6971.134753773255,0.00994382555951199,0.005793971308260973
6971.135753545178,0.009765414970818016,0.005698663848719705
6971.136753317101,0.009555988060319912,0.005597285086695784
6971.137753089024,0.009317852039106659,0.005491304093828335
6971.138752860947,0.009053828172514176,0.005382207592707646
6971.139752632869,0.008767204868874003,0.005271473640822651
6971.140752404792,0.008461683162891925,0.005160546284470201
6971.141752176714,0.008141315449158673,0.005050811676715585
6971.142751948637,0.007810438573886374,0.004943576094359215
6971.14375172056,0.0074736025700138315,0.004840046218864424
6971.144751492483,0.007135496401699164,0.004741311962301739
6971.145751264406,0.0068008720776016095,0.0046483320503054055
6971.146751036328,0.006474468414473911,0.004561922537126553
6971.147750808252,0.006160935640670648,0.004482748396911672
6971.148750580174,0.005864761996776322,0.004411318275038507
6971.149750352097,0.005590203516872165,0.0043479823994460615
6971.150750124019,0.005341218173990349,0.0042929335794879816
6971.151749895942,0.005121405478440102,0.0042462111733108515
6971.152749667865,0.0049339524354148805,0.004207707867897799
6971.153749439788,0.004781586539824091,0.004177179075979205
6971.154749211711,0.004666536246557795,0.004154254717965821
6971.155748983633,0.0045904991434686125,0.004138453130430401
6971.156748755556,0.004554617918836953,0.004129196816523591
6971.157748527478,0.004559464171555046,0.004125829724920537
6971.158748299402,0.0046050301201149,0.004127635727482761
6971.159748071324,0.004690728254578993,0.0041338579678601136
6971.160747843247,0.004815398899788442,0.004143718748506445
6971.16174761517,0.004977325526350191,0.004156439582510304
6971.162747387092,0.005174257500702596,0.004171260966579906
6971.163747159015,0.005403439861653858,0.004187461378056389
6971.164746930938,0.005661649699696782,0.004204375002204819
6971.165746702861,0.005945238804311863,0.004221407744120154
6971.166746474783,0.006250182359930759,0.004238051121202893
6971.167746246706,0.006572133504445572,0.004253893643623685
6971.168746018629,0.006906483464576515,0.004268629298043764
6971.169745790552,0.00724842678043627,0.0042820627857362405
6971.170745562475,0.007593030890326165,0.004294111237786166
6971.171745334397,0.007935309134121066,0.004304802233845468
6971.17274510632,0.00827029611270042,0.004314268082044443
6971.173744878242,0.008593124328133686,0.004322736472380511
6971.174744650165,0.00889910106123598,0.00433051779624155
6971.175744422088,0.009183784419748297,0.004337989621085107
6971.176744194011,0.009443057358524866,0.004345578980352034
6971.177743965934,0.00967319825743288,0.004353743231606705
6971.178743737856,0.009870946415280595,0.004362950226279413
6971.17974350978,0.010033560662749692,0.00437365844830145
6971.180743281702,0.010158869273578137,0.004386297685664134
6971.181743053625,0.01024530944262954,0.0044012507589758125
6971.182742825547,0.010291954716640019,0.004418836835588656
6971.18374259747,0.010298528896372224,0.00443929684639767
6971.184742369393,0.010265405230763948,0.004462781457136283
6971.185742141316,0.010193590354714397,0.00448934193549804
6971.186741913239,0.010084693308395499,0.0045189241252387635
6971.187741685161,0.009940880826755708,0.00455136561218419
6971.188741457084,0.009764820670656853,0.004586396059186283
6971.189741229006,0.009559615086781482,0.004623640592886329
6971.19074100093,0.009328726655205377,0.00466262603022994
6971.191740772852,0.009075898883354316,0.004702789639280574
6971.192740544775,0.008805073937551717,0.004743490060191374
6971.193740316698,0.008520309858828628,0.004784019987834654
6971.19474008862,0.008225699479932144,0.004823620237830466
6971.195739860543,0.007925293052613294,0.00486149486562617
6971.196739632466,0.0076230263360610746,0.004896827052701181
6971.197739404389,0.007322655608113022,0.0049287954878425464
6971.198739176311,0.007027700740114763,0.004956590962724447
6971.199738948234,0.006741397128578399,0.0049794329034328205
6971.200738720157,0.00646665692382933,0.004996585584641312
6971.20173849208,0.006206039662510158,0.005007373799835934
6971.202738264003,0.005961732116003903,0.005011197773639831
6971.203738035925,0.0057355369283080375,0.00500754709921245
6971.204737807848,0.005528869446123971,0.004996013448310922
6971.20573757977,0.005342762032246826,0.004976301719635839
6971.206737351694,0.005177875084122615,0.004948239205034738
6971.207737123616,0.005034513953672608,0.004911782343216307
6971.208736895539,0.00491265099027973,0.004867020725367825
6971.209736667462,0.0048119519848938246,0.004814178165212193
6971.210736439384,0.004731806322960735,0.00475361078507783
6971.211736211308,0.0046713601130430795,0.004685802180640906
6971.21273598323,0.0046295514732694835,0.0046113558149549145
6971.213735755153,0.004605147119164431,0.004530984855823395
6971.214735527075,0.004596779466204673,0.004445499711087371
6971.215735298998,0.004602983600548387,0.004355793550762475
6971.216735070921,0.004622233590146866,0.0042628261534426205
6971.217734842844,0.004652977666044897,0.004167606481360335
6971.218734614767,0.004693671840760025,0.00407117444880065
6971.219734386689,0.004742811605044585,0.003974582360778501
6971.220734158612,0.004798961462322984,0.003878876451805155
6971.221733930534,0.004860782164845829,0.0037850788850768585
6971.222733702458,0.004927055537544372,0.003694170520389323
6971.22373347438,0.00499670669888395,0.0036070747283939207
6971.224733246303,0.005068823373529621,0.0035246425006427917
6971.225733018226,0.005142671932273198,0.0034476390623908123
6971.226732790148,0.005217709830755068,0.0033767321350662524
6971.227732562071,0.005293594193804777,0.0033124819382814594
6971.228732333994,0.005370186317940975,0.003255333001400375
6971.229732105917,0.0054475518293312635,0.003205607881176619
6971.230731877839,0.005525956219596689,0.0031635029262793543
6971.231731649762,0.005605855553899607,0.0031290862576390157
6971.2327314216855,0.005687882268484122,0.003102298130171268
6971.233731193608,0.005772826071603492,0.003082953806343716
6971.234730965531,0.005861610041467799,0.0030707490114000747
6971.235730737453,0.005955262160818007,0.0030652679582915694
6971.236730509376,0.006054882767047482,0.0030659938289515926
6971.237730281298,0.006161608660787221,0.00307232148579538
6971.238730053222,0.0062765748331362475,0.0030835720820029224
6971.239729825144,0.0064008749298400305,0.003099009161944315
6971.240729597067,0.006535521682705685,0.0031178558038254017
6971.24172936899,0.0066814086022812524,0.003139312345246051
6971.242729140912,0.00683927422433691,0.003162574229913835
6971.243728912836,0.0070096701210162395,0.003186849515370127
6971.244728684758,0.007192933731288075,0.003211375600806678
6971.245728456681,0.007389166867496851,0.0032354347891426416
6971.246728228603,0.007598220550539157,0.0032583683950531102
6971.247728000526,0.007819686618069787,0.003279589229276867
6971.248727772449,0.008052896314935616,0.0032985923854665614
6971.249727544372,0.008296925805506571,0.003314964297759541
6971.250727316295,0.008550608267212169,0.0033283900297035166
6971.251727088217,0.008812551956401446,0.0033386587254122797
6971.25272686014,0.009081163379923722,0.0033456671245086895
6971.253726632062,0.009354674459728964,0.0033494210165198905
6971.254726403986,0.009631172387177202,0.0033500344829733067
6971.255726175908,0.009908630791850972,0.003347726761099031
6971.256725947831,0.010184940904130253,0.003342816597329172
6971.257725719754,0.01045794149551779,0.003335714062816393
6971.258725491676,0.010725446451874125,0.0033269099561662172
6971.259725263599,0.010985268893481321,0.0033169630719043506
6971.260725035522,0.011235240940631481,0.003306485726958765
6971.261724807445,0.011473228662014487,0.003296127997636839
6971.262724579367,0.011697142408876976,0.003286561128617186
6971.26372435129,0.011904943441620755,0.0032784605460600955
6971.264724123213,0.012094648292414042,0.003272488866568119
6971.265723895136,0.012264332598885628,0.0032692792757931357
6971.266723667059,0.012412136213572088,0.003269419670122047
6971.267723438981,0.012536271262644288,0.0032734379923307013
6971.268723210904,0.012635034505673588,0.00328178920439752
6971.269722982826,0.012706824887017746,0.0032948442991066577
6971.27072275475,0.01275016665545765,0.0033128816650118222
6971.271722526672,0.012763737928178686,0.0033360810121397673
6971.272722298595,0.012746404099599803,0.003364519952914456
6971.273722070518,0.012697255023374203,0.003398173219103796
6971.27472184244,0.012615644414223626,0.0034369143884829417
6971.275721614364,0.012501229452956137,0.0034805199026776367
6971.276721386286,0.012354008245611534,0.003528675082184949
6971.277721158209,0.012174352765913986,0.003580981778146206
6971.278720930131,0.011963035264866027,0.0036369672363586315
6971.279720702054,0.011721246657486509,0.003696093705290872
6971.2807204739765,0.011450605785840277,0.0037577683377165525
6971.2817202459,0.01115315864024589,0.0038213530360007445
6971.282720017823,0.010831366822290061,0.0038861740451110282
6971.283719789745,0.010488084981374877,0.0039515312475308
6971.284719561668,0.010126527634621412,0.0040167072121993766
6971.285719333591,0.00975022646303653,0.004080976080822308
6971.286719105514,0.00936297962024296,0.004143612364063624
6971.287718877436,0.008968794687006105,0.0042038997018683235
6971.288718649359,0.008571826730325364,0.004261139618119097
6971.289718421282,0.0081763126748811,0.004314660244979234
6971.290718193204,0.007786503073000975,0.0043638249026271
6971.291717965128,0.00740659246891172,0.004408040327129774
6971.29271773705,0.0070406498209433545,0.004446764282280498
6971.293717508973,0.006692550685034768,0.004479512301080628
6971.294717280895,0.0063659129330443185,0.0045058633939032595
6971.295717052818,0.006064037667022649,0.004525464705391314
6971.296716824741,0.005789856762999194,0.004538035230662156
6971.297716596664,0.00554588820575385,0.004543368761477314
6971.298716368587,0.0053342000957931025,0.004541336232266364
6971.299716140509,0.0051563839242442224,0.004531887603387371
6971.300715912432,0.00501353742165288,0.004515053358183156
6971.301715684354,0.004906257018033811,0.004490945597331764
6971.302715456278,0.004834639733570121,0.004459758618309572
6971.3037152282,0.004798294146984491,0.004421768818115338
6971.304715000123,0.004796359931846276,0.0043773337729292715
6971.305714772046,0.004827535302669543,0.004326890407986632
6971.306714543968,0.004890111592637224,0.004270952236395276
6971.307714315892,0.004982014095278126,0.004210105679338991
6971.308714087814,0.005100848210203619,0.00414500546132923
6971.309713859737,0.005243949810811284,0.004076369013929236
6971.310713631659,0.00540843862590582,0.004004969755636684
6971.311713403582,0.005591273370563166,0.003931629088940961
6971.3127131755045,0.005789307425918115,0.0038572070081031025
6971.313712947428,0.005999344016399704,0.0037825913475759503
6971.314712719351,0.006218189961871521,0.003708685864036991
6971.315712491273,0.0064427071153266,0.0036363974551224467
6971.316712263196,0.006669860543482089,0.0035666228479565945
6971.317712035119,0.006896762430101702,0.0035002350778398717
6971.318711807042,0.007120710654467864,0.003438070065884061
6971.319711578964,0.007339221090126576,0.003380913603447409
6971.320711350887,0.007550052908803763,0.0033294890493560684
6971.32171112281,0.007751226515711551,0.003284446033427105
6971.322710894732,0.007941034098983519,0.0032463504335127403
6971.323710666656,0.008118043056925523,0.0032156758569194368
6971.324710438578,0.008281092701944224,0.0031927968205554733
6971.325710210501,0.008429284652857623,0.00317798379411237
6971.326709982423,0.008561967371249868,0.00317140024135819
6971.327709754346,0.008678715519964639,0.0031731017537413894
6971.328709526269,0.008779305180084674,0.003183037316028799
6971.329709298192,0.008863686250817472,0.0032010526903039622
6971.330709070115,0.00893195342246723,0.003226895863954417
6971.331708842037,0.008984316980671786,0.003260224468959941
6971.33270861396,0.009021074488032093,0.0033006150215322515
6971.333708385882,0.009042584197077975,0.00334757374346323
6971.334708157806,0.009049240933054222,0.003400548624533329
6971.335707929728,0.009041455145230389,0.0034589422987240962
6971.336707701651,0.009019635787500454,0.003522125257627877
6971.337707473574,0.008984177569945592,0.003589448910583674
6971.338707245496,0.008935452917649323,0.003660258008968107
6971.33970701742,0.008873808732323716,0.0037339019874505315
6971.340706789342,0.008799567796960452,0.003809744860633975
6971.341706561265,0.008713034376600254,0.0038871734387184273
6971.342706333187,0.008614503248364686,0.003965603735621962
6971.34370610511,0.008504271085684929,0.004044485506890935
6971.3447058770325,0.008382648929736175,0.004123304904819057
6971.345705648956,0.008249974529828001,0.004201585312350577
6971.346705420879,0.008106623627198283,0.004278886510888578
6971.347705192801,0.007953019621522072,0.004354802425237409
6971.348704964724,0.007789641328005152,0.0044289577546040414
6971.349704736647,0.007617028711068499,0.0045010038383988624
6971.35070450857,0.007435786678729959,0.004570614129187638
6971.351704280492,0.007246587289644845,0.004637479656250628
6971.352704052415,0.007050170999033898,0.004701304842882619
6971.353703824338,0.006847347731734542,0.004761803967675744
6971.35470359626,0.006638998541025449,0.004818698441058521
6971.355703368184,0.00642607841175089,0.004871714944687642
6971.356703140106,0.006209620483066689,0.004920584410442458
6971.357702912029,0.005990741672744637,0.004965041825525545
6971.358702683951,0.005770649417516468,0.005004826903100066
6971.359702455874,0.0055506490363473006,0.005039685686186322
6971.360702227797,0.005332151113797395,0.005069373134432131
6971.36170199972,0.005116678290448582,0.005093656719815398
6971.362701771643,0.004905870884407919,0.005112321064419686
6971.363701543565,0.004701490783460481,0.005125173662810884
6971.364701315488,0.004505423006200348,0.005132051679813708
6971.36570108741,0.004319674256945772,0.005132829680323463
6971.366700859334,0.004146367762171624,0.005127427976211129
6971.367700631256,0.003987733723377776,0.005115821128723132
6971.368700403179,0.0038460948351161334,0.005098046051971466
6971.369700175102,0.0037238464591286286,0.005074209124401716
6971.370699947025,0.0036234312229990566,0.005044491737598095
6971.371699718948,0.0035473080594564804,0.0050091538119888005
6971.37269949087,0.0034979160105260677,0.004968534975883833
6971.373699262793,0.003477633415371082,0.004923053284410094
6971.374699034715,0.003488733316562754,0.004873201496617276
6971.375698806638,0.0035333360607671185,0.004819541032107947
6971.376698578561,0.003613360173650663,0.004762693824566744
6971.377698350484,0.0037304726628453466,0.004703332379326382
6971.378698122407,0.0038860399298821257,0.0046421683928651964
6971.379697894329,0.0040810804469603714,0.004579940297879681
6971.380697666252,0.004316220289665409,0.004517400094057657
6971.381697438175,0.0045916525337233284,0.0044552998343994725
6971.382697210098,0.004907101450870209,0.004394378141764882
6971.38369698202,0.005261792389589583,0.0043353471093912485
6971.384696753943,0.005654428179970287,0.004278879897181473
6971.385696525866,0.006083172834869768,0.0042255992844965635
6971.386696297788,0.0065456432457453315,0.004176067385040362
6971.387696069712,0.007038909514556982,0.0041307766773696795
6971.388695841634,0.007559504505297701,0.004090142457909547
6971.389695613557,0.008103443094112425,0.004054496769074459
6971.390695385479,0.008666251431378627,0.004024083790551449
6971.391695157402,0.009243006342664806,0.0039990566350495615
6971.392694929325,0.009828384840377121,0.003979475488861035
6971.393694701248,0.010416723596388556,0.003965307077800555
6971.394694473171,0.011002088083546023,0.003956425491843361
6971.395694245093,0.011578350885584034,0.003952614434262374
6971.396694017016,0.012139278406214211,0.003953570947662503
6971.397693788938,0.012678624893135714,0.0039589106056333095
6971.398693560862,0.013190232320581292,0.003968174073675949
6971.399693332784,0.013668134234066652,0.0039808348863171455
6971.400693104707,0.014106661164679705,0.003996308287418556
6971.40169287663,0.014500544711625249,0.00401396101785465
6971.402692648553,0.014845016966274346,0.004033121969259768
6971.403692420476,0.01513590175267614,0.004053093636629505
6971.404692192398,0.015369694328107137,0.0040731642966971545
6971.405691964321,0.015543626731981121,0.004092620804764698
6971.406691736243,0.015655716672605225,0.004110761824371121
6971.407691508166,0.015704798416643934,0.004126911189053266
6971.408691280089,0.015690534590122034,0.004140430992398103
6971.409691052012,0.015613408415079464,0.00415073397781104
6971.410690823935,0.015474696912695268,0.004157294877144068
6971.411690595857,0.015276426816576772,0.004159660477553717
6971.41269036778,0.01502131590638398,0.004157458300223134
6971.413690139703,0.014712702881976812,0.004150403817167215
6971.414689911626,0.014354468806575081,0.004138306126252866
6971.415689683548,0.013950952833835416,0.004121071967877702
6971.416689455471,0.01350686463627249,0.004098707909118087
6971.417689227394,0.013027195744648517,0.004071320465252268
6971.418688999316,0.012517131843544894,0.0040391139196983335
6971.41968877124,0.011981967882175605,0.0040023856896088655
6971.420688543162,0.011427027640574511,0.003961519271375805
6971.421688315085,0.010857589172793305,0.0039169750213910205
6971.422688087007,0.010278817329190741,0.003869279185427342
6971.423687858931,0.009695704274099545,0.0038190116395919183
6971.424687630853,0.009113018516636425,0.0037667927799546748
6971.425687402776,0.008535262509604276,0.0037132699604930245
6971.426687174699,0.007966638459726413,0.003659103865611314
6971.427686946621,0.007411021745093819,0.003604955204818754
6971.428686718544,0.006871941306578312,0.0035514721047213375
6971.429686490467,0.006352566514076483,0.0034992785296196626
6971.43068626239,0.00585570016347561,0.0034489639893868678
6971.431686034312,0.0053837773212202,0.0034010747110951576
6971.432685806235,0.004938869689753161,0.003356106379696304
6971.433685578158,0.004522695071274219,0.0033144984977245915
6971.434685350081,0.0041366314063284605,0.0032766303672889688
6971.435685122004,0.003781734785560141,0.0032428186558000117
6971.436684893926,0.003458760789319721,0.0032133164708691643
6971.437684665849,0.003168188488894916,0.0031883138443634146
6971.438684437771,0.002910246424417399,0.0031679395215292324
6971.439684209694,0.002684939855387547,0.0031522639676296042
6971.440683981617,0.002492078568279989,0.0031413035136380204
6971.44168375354,0.0023313045205336767,0.003135025535557357
6971.442683525463,0.002202118601377693,0.00313335450492688
6971.443683297385,0.0021039058147748133,0.0031361786940585262
6971.444683069308,0.002035958258394074,0.0031433572934577163
6971.445682841231,0.0019974953893666125,0.003154727699168995
6971.446682613154,0.0019876812256649145,0.003170112739631772
6971.447682385076,0.0020056383105240853,0.0031893276293947052
6971.448682156999,0.002050458421445711,0.0032121864629507018
6971.449681928922,0.0021212100922311243,0.003238508092123599
6971.450681700844,0.0022169430417863342,0.0032681212579562884
6971.451681472768,0.0023366896231548626,0.003300868865078989
6971.45268124469,0.0024794634764917856,0.0033366112771848863
6971.453681016613,0.0026442556941101616,0.0033752284757390537
6971.454680788535,0.0028300289342268084,0.003416620903464763
6971.455680560459,0.003035709998436275,0.003460708857031814
6971.456680332381,0.0032601813985080764,0.0035074303886744305
6971.457680104304,0.0035022723969798603,0.0035567377743618875
6971.458679876227,0.0037607499418194725,0.0036085926864902933
6971.459679648149,0.0040343098514958,0.0036629602872711407
6971.460679420072,0.004321568556794357,0.0037198025404206973
6971.461679191995,0.004621055687924046,0.0037790711077991595
6971.462678963918,0.004931207830452566,0.0038407002426238245
6971.46367873584,0.005250363842633043,0.0039046001071333936
6971.464678507763,0.005576762165588206,0.003970650914773659
6971.465678279686,0.005908540529654171,0.004038698206190703
6971.466678051609,0.006243738400723345,0.004108549419687907
6971.467677823532,0.006580302474681997,0.004179971744555968
6971.468677595454,0.006916095520610417,0.004252691096462977
6971.469677367377,0.007248908843583673,0.004326391973696994
6971.470677139299,0.007576478531690131,0.004400717964853664
6971.471676911222,0.007896505467034735,0.004475272755507645
6971.472676683145,0.008206678864173558,0.004549621561933635
6971.473676455068,0.008504702898234524,0.004623292969415279
6971.474676226991,0.008788325811614438,0.00469578119493594
6971.475675998913,0.009055370726569213,0.004766548873556009
6971.476675770836,0.009303767241022533,0.004835030589527128
6971.477675542759,0.009531582812103163,0.0049006374853940975
6971.478675314682,0.009737053017609043,0.004962763316010465
6971.479675086604,0.009918610001249316,0.005020792238512844
6971.480674858527,0.010074908623313762,0.005074108469961712
6971.48167463045,0.010204849978960083,0.005122107752850854
6971.482674402372,0.010307602032498479,0.005164210379578775
6971.483674174296,0.010382617146505511,0.005199875359906121
6971.484673946218,0.010429646202254337,0.0052286152020987395
6971.485673718141,0.010448748803043964,0.0052500107488909825
6971.486673490063,0.01044029881189826,0.005263725550275573
6971.487673261987,0.010404984330926785,0.005269519316193974
6971.488673033909,0.010343801292691199,0.005267260034197597
6971.489672805832,0.010258040136113694,0.005256934349896606
6971.490672577755,0.010149265479775451,0.005238655794979872
6971.491672349677,0.01001928910727647,0.005212670418324326
6971.4926721216,0.009870136863852949,0.005179359350748511
6971.493671893523,0.009704010314231497,0.005139237842377976
6971.494671665446,0.009523244323835068,0.005092950375617998
6971.495671437368,0.00933026206078683,0.005041261589189012
6971.496671209291,0.009127529145755871,0.00498504296313418
6971.497670981214,0.008917508708657297,0.004925255497279038
6971.498670753137,0.008702618952608706,0.004862928893551547
6971.49967052506,0.00848519455687007,0.004799137948461882
6971.500670296982,0.008267452954907032,0.0047349769641115685
6971.501670068905,0.008051466230206767,0.004671533026433096
6971.502669840827,0.007839139069911377,0.0046098590027811226
6971.50366961275,0.007632192908314035,0.004550947091627928
6971.504669384673,0.007432156107972534,0.004495703725530386
6971.505669156596,0.007240359788771132,0.004444926584854093
6971.506668928519,0.007057938723760539,0.0043992844192747875
6971.507668700441,0.006885836558743467,0.004359300298278105
6971.508668472365,0.006724814480063331,0.004325338822040095
6971.509668244287,0.006575462394765117,0.004297597716276137
6971.51066801621,0.006438211759386098,0.00427610410701622
6971.511667788132,0.006313349406613133,0.004260715624105151
6971.512667560055,0.0062010319885092155,0.004251126315690037
6971.513667331978,0.0061013008582759196,0.004246877178960699
6971.514667103901,0.006014097306744971,0.004247370945944584
6971.515666875824,0.00593927811189208,0.004251890626174969
6971.516666647746,0.005876631387952112,0.004259621200894227
6971.517666419669,0.005825892691217432,0.004269673763666916
6971.518666191591,0.005786761204920399,0.004281111282743738
6971.519665963515,0.005758915614207529,0.004292975032361978
6971.520665735437,0.005742029082844397,0.004304310677533892
6971.52166550736,0.005735782628455723,0.004314193079283243
6971.522665279283,0.005739876160424779,0.004321749098588366
6971.523665051205,0.005754036461976642,0.004326177900912283
6971.524664823128,0.005778021494119694,0.004326768401159677
6971.525664595051,0.005811620627891844,0.004322913557720973
6971.526664366974,0.005854650735865289,0.0043141213148868915
6971.527664138896,0.0059069483798589095,0.004300022150193246
6971.528663910819,0.0059683585595220355,0.0042803733546043984
6971.529663682742,0.006038720681060824,0.004255060287228931
6971.530663454665,0.006117852625491674,0.0042240948961661
6971.531663226588,0.0062055340175254615,0.004187611817150926
6971.53266299851,0.006301489934585448,0.004145862368571761
6971.533662770433,0.006405376296507898,0.004099206762425975
6971.534662542355,0.006516768056334881,0.00404810486516396
6971.535662314278,0.006635151118329909,0.00399310587418897
6971.536662086201,0.00675991867426331,0.0039348372935390456
6971.537661858124,0.006890372390811446,0.0038739935672909083
6971.538661630047,0.007025728617229149,0.00381132467455185
6971.539661401969,0.007165129533036763,0.0037476249380706747
6971.540661173893,0.007307658933433827,0.0036837222573138056
6971.541660945815,0.007452362151560345,0.00362046793040298
6971.542660717738,0.007598269420653681,0.003558727171972519
6971.54366048966,0.007744421766447878,0.0034993703777025705
6971.544660261583,0.007889898286818034,0.003443265136179908
6971.545660033506,0.008033843425716131,0.0033912689367832497
6971.546659805429,0.008175492606809597,0.0033442224665731213
6971.547659577352,0.008314194452812413,0.0033029433380066093
6971.548659349274,0.0084494279292004,0.003268220046801881
6971.549659121197,0.00858081317643618,0.0032408059253605324
6971.550658893119,0.00870811538461608,0.003221412843810336
6971.551658665043,0.008831241584708315,0.003210704447688255
6971.552658436965,0.008950230608676214,0.0032092888309854673
6971.553658208888,0.009065236812881773,0.003217710701134448
6971.554657980811,0.009176508517977858,0.0032364432292877592
6971.555657752733,0.009284362379500713,0.0032658798399471103
6971.556657524656,0.00938915493730687,0.0033063261804578857
6971.557657296579,0.009491252407418493,0.0033579924591932023
6971.558657068502,0.009590999499189205,0.0034209862800055136
6971.559656840424,0.009688687817261205,0.003495306040913685
6971.560656612347,0.009784524362241434,0.0035808349151143348
6971.56165638427,0.009878600785214057,0.003677335406848802
6971.562656156193,0.009970864259572571,0.003784444486800443
6971.563655928116,0.010061090992648977,0.0039016693600439863
6971.564655700038,0.010148863510376801,0.00402838399139317
6971.565655471961,0.010233552954314905,0.004163826601203287
6971.566655243883,0.010314307696544955,0.0043070984453728615
6971.567655015807,0.010390049519112828,0.004457164285445443
6971.568654787729,0.010459478390860656,0.004612855004593728
6971.569654559652,0.01052108654840661,0.004772872818888215
6971.570654331575,0.010573182200596604,0.0049357994862656495
6971.571654103497,0.01061392275261386,0.005100107844833199
6971.572653875421,0.010641357007695642,0.005264176915338787
6971.573653647343,0.01065347538266092,0.005426310671001072
6971.574653419266,0.010648266814057459,0.005584760411093666
6971.575653191188,0.010623780781895915,0.005737750482020645
6971.576652963111,0.01057819274190984,0.005883506893082102
6971.577652735034,0.010509871187306216,0.00602028820485179
6971.578652506957,0.010417444508871918,0.006146417937102942
6971.57965227888,0.01029986576562709,0.006260317624166943
6971.580652050802,0.010156473421966877,0.006360539514579242
6971.581651822725,0.009987046094008236,0.006445797796078824
6971.582651594647,0.009791849400267753,0.006514997185700209
6971.583651366571,0.009571673069825263,0.006567257784381178
6971.584651138493,0.009327856487687287,0.006601935223220875
6971.585650910416,0.009062300971023346,0.00661863527271762
6971.586650682339,0.00877746744978313,0.0066172222442097625
6971.587650454261,0.008476358901535577,0.006597820752413278
6971.588650226184,0.008162487695066944,0.006560810791033724
6971.589649998107,0.007839828695778126,0.0065068165366519905
6971.59064977003,0.007512759450439625,0.006436689668050097
6971.591649541952,0.007185989032985085,0.006351488166960768
6971.592649313875,0.0068644772837703465,0.006252451607037782
6971.593649085799,0.006553346252747333,0.006140973927261952
6971.594648857721,0.006257785703799778,0.006018574630507509
6971.595648629644,0.0059829546427360636,0.005886869229782232
6971.596648401566,0.005733881029904928,0.005747539615340233
6971.597648173489,0.005515362021236642,0.0056023048882796285
6971.598647945411,0.005331867104472159,0.005452893121872257
6971.599647717335,0.005187446336815417,0.005301014458323515
6971.600647489257,0.005085645634192456,0.005148335906790216
6971.60164726118,0.005029430795047556,0.0049964581751080215
6971.602647033103,0.0050211216876980755,0.004846894850633296
6971.603646805025,0.005062337781860008,0.004701054234773221
6971.604646576949,0.005153955958523014,0.0045602240979866395
6971.605646348871,0.005296081292274692,0.004425559534736107
6971.606646120794,0.005488031271152759,0.004298073974243462
6971.607645892716,0.005728333712492091,0.004178633282410175
6971.608645664639,0.006014738466720225,0.004067952808432439
6971.609645436562,0.006344242878631528,0.003966597186928421
6971.610645208485,0.006713130875119738,0.0038749826707981834
6971.611644980408,0.007117025429230323,0.003793381722979809
6971.61264475233,0.007550953973367193,0.003721929558525761
6971.613644524253,0.008009426083760724,0.00366063233233229
6971.614644296175,0.008486522446894825,0.003609376715455182
6971.615644068099,0.008975993769722638,0.003567940672425287
6971.616643840021,0.00947136792644094,0.0035360053113791
6971.617643611944,0.009966063256245638,0.0035131677017318248
6971.618643383867,0.010453505548894394,0.003498954540223579
6971.619643155789,0.010927245898526988,0.0034928365177786455
6971.620642927712,0.01138107632262783,0.0034942432100224224
6971.621642699635,0.011809139922593168,0.0035025782738256775
6971.622642471558,0.012206032483042995,0.0035172346689007297
6971.62364224348,0.012566892734329175,0.0035376095452585347
6971.624642015403,0.012887478875873003,0.0035631183693608302
6971.625641787327,0.013164229254826042,0.0035932078197692253
6971.626641559249,0.013394305396432918,0.0036273669554862643
6971.627641331172,0.013575616099599749,0.0036651361403790077
6971.628641103094,0.013706822145464481,0.00370611324022764
6971.629640875017,0.013787322182912698,0.0037499567584254687
6971.630640646939,0.013817221275074626,0.0037963858285975345
6971.631640418863,0.013797284221198617,0.003845177235401536
6971.632640190785,0.013728876145089877,0.003896159804688041
6971.633639962708,0.013613893128609385,0.003949206598334971
6971.634639734631,0.013454685937990363,0.004004225415312454
6971.635639506553,0.013253980065115988,0.004061148156764764
6971.636639278477,0.013014795291879853,0.004119919648307995
6971.637639050399,0.01274036777519997,0.0041804865153988735
6971.638638822322,0.012434077296745333,0.004242786672494254
6971.639638594244,0.012099381879422005,0.004306739917321802
6971.640638366167,0.011739761474422216,0.004372240025997264
6971.64163813809,0.011358671887392464,0.0044391486263028485
6971.642637910013,0.010959509559174125,0.004507290989420571
6971.643637681936,0.01054558726001267,0.004576453743497221
6971.644637453858,0.010120120195435638,0.004646384406263574
6971.645637225781,0.009686221457912297,0.004716792580775782
6971.646636997704,0.009246905234400075,0.004787352648318524
6971.647636769627,0.00880509579987896,0.004857707784898734
6971.648636541549,0.008363640190878725,0.004927475094109387
6971.649636313472,0.007925322547962542,0.004996251613082463
6971.650636085395,0.007492878318066178,0.005063620957004935
6971.651635857317,0.007069006719005164,0.005129160421444917
6971.652635629241,0.0066563801052543755,0.0051924484058143115
6971.653635401163,0.006257649205889036,0.005253072014918104
6971.654635173086,0.005875443656605339,0.0053106346470494425
6971.655634945008,0.005512367749527637,0.0053647633126430545
6971.656634716931,0.0051709917379114895,0.005415115377154105
6971.657634488855,0.004853839240304243,0.005461384433150968
6971.658634260777,0.004563371281001702,0.005503305117731968
6971.6596340327,0.004301967368212516,0.005540656872259435
6971.660633804622,0.0040719038567575685,0.0055732667925886496
6971.661633576545,0.003875329745944573,0.005601011757473361
6971.662633348467,0.003714240062654023,0.005623819961826744
6971.663633120391,0.0035904470798259276,0.0056416718944723495
6971.664632892313,0.003505549794283998,0.005654600741657181
6971.665632664236,0.0034609022762935563,0.0056626921690855914
6971.666632436159,0.003457581648320308,0.00566608341430994
6971.667632208081,0.003496356530159443,0.0056649616059996095
6971.668631980005,0.003577656808668791,0.005659561243600033
6971.669631751927,0.0037015455638467745,0.005650160837304442
6971.67063152385,0.0038676939222223802,0.005637078792946303
6971.671631295772,0.0040753595391900335,0.005620668667434914
6971.672631067695,0.004323369366861554,0.005601313880804486
6971.6736308396175,0.004610107354855979,0.005579421866446921
6971.674630611541,0.004933507731306641,0.005555417526648528
6971.675630383464,0.005291054484427673,0.005529735808630955
6971.676630155386,0.005679787604559861,0.005502813283538917
6971.677629927309,0.006096316564775637,0.005475078791794334
6971.678629699232,0.006536841418287881,0.005446943437023955
6971.679629471155,0.006997181770433238,0.005418790373951434
6971.680629243077,0.007472813744174814,0.005390964893557536
6971.681629015,0.007958914907609293,0.005363765274637907
6971.682628786923,0.00845041697991619,0.00533743479911243
6971.683628558845,0.008942065986825292,0.0053121552732260414
6971.684628330769,0.00942848939016497,0.005288042373454638
6971.685628102691,0.009904269537927349,0.005265143113279515
6971.686627874614,0.010364022541727119,0.00524343565826322
6971.687627646536,0.010802481396860226,0.005222831580776424
6971.688627418459,0.011214581863997075,0.005203180464641275
6971.689627190382,0.011595549367224,0.005184276595960421
6971.690626962305,0.011940984923511982,0.005165867353053775
6971.691626734228,0.012246947884085561,0.005147662842345415
6971.69262650615,0.012510033074264628,0.005129346304671637
6971.693626278073,0.012727439883377859,0.005110584832789783
6971.694626049995,0.012897031101071767,0.005091039990185236
6971.695625821919,0.013017379806772075,0.00507037798129859
6971.696625593841,0.013087803196074395,0.0050482790735832785
6971.697625365764,0.013108382605777815,0.00502444601247519
6971.698625137687,0.013079969064925234,0.00499861120896518
6971.699624909609,0.013004173612407178,0.004970542520351128
6971.700624681533,0.012883341692151653,0.004940047503108854
6971.701624453455,0.012720511374915958,0.0049069761160358315
6971.702624225378,0.012519355927879037,0.004871221985324036
6971.7036239973,0.01228411211313955,0.0048327224606724345
6971.704623769223,0.0120194962353578,0.004791457743440531
6971.7056235411455,0.011730610203240538,0.0047474493458859535
6971.706623313069,0.011422839796011164,0.004700758068262899
6971.707623084992,0.011101747195240989,0.004651481592806936
6971.708622856914,0.01077295989407923,0.0045997517290030585
6971.709622628837,0.010442058367256299,0.004545731335334477
6971.71062240076,0.010114465208585202,0.0044896110000357415
6971.711622172683,0.009795338609994915,0.004431605659016472
6971.712621944605,0.009489472972273054,0.004371951398438036
6971.713621716528,0.0092012091389613,0.004310902686543982
6971.714621488451,0.008934356326671274,0.0042487302245106
6971.715621260373,0.008692127373622046,0.004185719549297645
6971.716621032297,0.008477088490879327,0.004122170478785382
6971.717620804219,0.008291124285440257,0.004058397438117731
6971.718620576142,0.00813541842337482,0.003994730621577926
6971.719620348064,0.008010449924388494,0.0039315178265443345
6971.720620119987,0.00791600474687392,0.0038691266671084857
6971.72161989191,0.007851202033234384,0.0038079467573383257
6971.722619663833,0.007814534128522167,0.0037483913639640744
6971.723619435756,0.007803919275354788,0.003690897994097838
6971.724619207678,0.007816765733333573,0.0036359274487187546
6971.725618979601,0.007850045931753544,0.0035839610514931705
6971.726618751523,0.00790037908774334,0.003535496003577299
6971.727618523447,0.007964120499318272,0.003491039027841426
6971.728618295369,0.008037455480923491,0.0034510985860222027
6971.729618067292,0.008116495686431182,0.003416175982303013
6971.730617839215,0.008197375417600171,0.0033867556648207427
6971.731617611138,0.008276345494600964,0.003363295057946757
6971.732617383061,0.008349862343888563,0.003346214301825248
6971.733617154983,0.00841467004249669,0.0033358862993478075
6971.734616926906,0.008467873120982924,0.0033326274497394656
6971.735616698828,0.008506998106175044,0.0033366893911800414
6971.736616470751,0.008530042232210261,0.003348251994265756
6971.737616242674,0.008535508400380901,0.003367417745088894
6971.738616014597,0.008522426063825396,0.003394207541494829
6971.73961578652,0.00849035805999159,0.003428557825697051
6971.740615558442,0.008439393559427747,0.0034703189124055877
6971.741615330365,0.008370127446559154,0.003519254344283216
6971.742615102288,0.008283626770890583,0.003575041112504338
6971.743614874211,0.008181385425728771,0.0036372706278199516
6971.744614646133,0.00806526877769672,0.0037054504164142615
6971.745614418056,0.007937450373806349,0.0037790066135546655
6971.746614189979,0.007800342974061854,0.0038572873952294378
6971.747613961901,0.007656526033949735,0.003939567509728634
6971.748613733825,0.00750867153593359,0.0040250540646700845
6971.749613505747,0.007359469893241498,0.0041128937154241135
6971.75061327767,0.007211557596638244,0.004202181398772774
6971.751613049592,0.007067448310249729,0.004291970745403036
6971.752612821515,0.006929469146420553,0.004381286257361876
6971.753612593438,0.006799703777529683,0.004469137240055402
6971.754612365361,0.006679943850499108,0.004554533353047079
6971.755612137284,0.006571649887070823,0.004636501524105054
6971.756611909206,0.006475922527001555,0.004714103872098706
6971.757611681129,0.006393484633951616,0.004786456191011514
6971.758611453051,0.00632467444824264,0.004852746441288768
6971.759611224975,0.00626944965183077,0.004912252593555141
6971.760610996897,0.006227401933348894,0.0049643591215734586
6971.76161076882,0.006197781413903734,0.005008571467953208
6971.762610540743,0.006179530092278011,0.005044527867296419
6971.763610312666,0.0061713232658819036,0.005072007954781252
6971.764610084589,0.006171617693693785,0.005090937624292902
6971.765609856511,0.00617870511271841,0.005101389698681217
6971.766609628434,0.006190769593991495,0.005103580190886428
6971.767609400356,0.006205947115290302,0.005097860253093374
6971.768609172279,0.006222385652712551,0.005084704245342066
6971.769608944202,0.0062383040797144235,0.005064694599938935
6971.770608716125,0.00625204821664076,0.005038504262978294
6971.771608488048,0.006262142486850239,0.005006877487752791
6971.77260825997,0.00626733578102335,0.004970609694830962
6971.773608031893,0.006266640265916453,0.0049305270396987205
6971.774607803816,0.00625936200238812,0.004887466266397133
6971.775607575739,0.006245122454868471,0.004842255393254741
6971.776607347661,0.0062238703570194585,0.004795695768931188
6971.777607119584,0.006195883874153381,0.004748546024624626
6971.778606891507,0.006161763413010259,0.004701508409600071
6971.779606663429,0.006122415706308238,0.004655217928286273
6971.780606435353,0.006079030006873566,0.004610234596924181
6971.781606207275,0.006033047426926366,0.004567039004842702
6971.782605979198,0.005986124630062249,0.00452603120848564
6971.78360575112,0.0059400931748780535,0.004487532821583183
6971.784605523044,0.005896915799637218,0.004451792006981409
6971.785605294966,0.005858640834994439,0.004418990934969772
6971.786605066889,0.005827355765008261,0.004389255150471264
6971.787604838812,0.005805140777354701,0.0043626641773782966
6971.788604610734,0.005794023011412455,0.004339262589825033
6971.789604382657,0.005795932162788,0.004319070745313892
6971.79060415458,0.005812658125096966,0.004302094445096426
6971.791603926503,0.005845811401113318,0.004288332927050971
6971.792603698425,0.00589678705303044,0.004277784723784761
6971.793603470348,0.005966732962950721,0.004270451019283221
6971.794603242271,0.006056523126843012,0.004266336285268125
6971.795603014194,0.006166736597150054,0.0042654462298201915
6971.796602786117,0.0062976425277453335,0.004267783403249861
6971.797602558039,0.006449191595101064,0.004273341073010553
6971.798602329962,0.0066210139144984425,0.004282096116772444
6971.799602101884,0.006812423456206596,0.004294001681373194
6971.800601873807,0.007022428869616242,0.004308980264045362
6971.80160164573,0.007249750500914556,0.004326917743143883
6971.802601417653,0.007492843217962175,0.004347658744313892
6971.803601189576,0.00774992444756511,0.00437100358525115
6971.804600961498,0.008019006633699052,0.004396706908326058
6971.805600733421,0.008297933210862567,0.004424477998603868
6971.806600505344,0.00858441719473042,0.004453982710424975
6971.807600277267,0.008876081561738872,0.004484846898707361
6971.808600049189,0.009170500587600989,0.004516661261948755
6971.809599821112,0.009465241172192948,0.004548987516985816
6971.810599593035,0.009757902950211013,0.004581365800208761
6971.811599364957,0.010046155789897497,0.004613323117666772
6971.812599136881,0.010327773239241196,0.004644382575122151
6971.813598908803,0.010600660695278598,0.004674073037835433
6971.814598680726,0.010862877538022056,0.004701938815846601
6971.815598452648,0.011112652995750632,0.004727548963579209
6971.816598224572,0.011348395875176508,0.00475050583835119
6971.817597996494,0.011568698489022868,0.004770452670143508
6971.818597768417,0.011772335332056934,0.004787080016264259
6971.81959754034,0.01195825742901376,0.004800131060608176
6971.820597312262,0.012125583723339757,0.004809405737213455
6971.821597084185,0.012273591180935368,0.004814763619532875
6971.822596856108,0.012401705291184787,0.004816125451111701
6971.823596628031,0.012509492359794247,0.004813473130548699
6971.824596399953,0.012596654520884728,0.004806847944252434
6971.825596171876,0.012663027882427952,0.004796346914992822
6971.826595943799,0.01270858375248762,0.004782117309620474
6971.827595715722,0.012733432515159286,0.004764349559117287
6971.828595487645,0.012737829425467511,0.004743269006016622
6971.829595259567,0.012722181339867253,0.004719126979453878
6971.83059503149,0.012687053204984988,0.004692191724133805
6971.831594803412,0.01263317307783251,0.0046627396900606
6971.832594575335,0.012561434614486847,0.0046310476194720345
6971.833594347258,0.01247289626489898,0.004597385743994264
6971.834594119181,0.012368776662327552,0.004562012244939646
6971.835593891104,0.012250445786956736,0.004525168963121425
6971.836593663026,0.012119411486447015,0.004487078213867281
6971.837593434949,0.011977301016967036,0.004447940513481996
6971.838593206872,0.011825837541105893,0.004407933067249685
6971.839592978795,0.01166681196953541,0.004367208964995028
6971.840592750717,0.011502051012203056,0.004325897120955332
6971.84159252264,0.01133338261638783,0.004284103045995405
6971.842592294563,0.011162600027854883,0.004241910538603224
6971.843592066485,0.01099142561167157,0.004199384330566631
6971.844591838409,0.010821475485623748,0.004156573646551536
6971.845591610331,0.010654226054978098,0.004113516552666307
6971.846591382254,0.01049098365912499,0.004070244879114129
6971.847591154176,0.010332858633598235,0.004026789414101321
6971.8485909261,0.010180745060668154,0.003983185009975227
6971.849590698022,0.01003530729753179,0.003939475256742284
6971.850590469945,0.00989697404958507,0.003895716483630225
6971.851590241868,0.009765940347862993,0.0038519810143184405
6971.85259001379,0.009642177362807283,0.003808359742702206
6971.853589785713,0.00952544958648029,0.00376496415244072
6971.854589557636,0.009415338547105665,0.00372192789166326
6971.855589329559,0.00931127187519312,0.0036794079837963747
6971.856589101481,0.009212556226259997,0.0036375857258515755
6971.857588873404,0.00911841231891765,0.0035966672966104
6971.858588645327,0.009028010242022997,0.0035568840803518126
6971.85958841725,0.008940503273592188,0.003518492710011574
6971.860588189173,0.00885505868549631,0.003481774820880958
6971.861587961095,0.008770884257282275,0.003447036460205252
6971.862587733018,0.008687249433880214,0.003414607031516885
6971.86358750494,0.008603500307869362,0.0033848375902551164
6971.864587276863,0.008519067994361517,0.0033580982659839635
6971.865587048786,0.008433470503832642,0.0033347745828681058
6971.866586820709,0.008346308784078651,0.0033152624986956124
6971.867586592632,0.008257258058480937,0.0032999620800942178
6971.868586364554,0.00816605588919225,0.003289269850126238
6971.869586136478,0.008072488548013998,0.003283569944543839
6971.8705859084,0.00797637726582067,0.0032832242666469376
6971.871585680323,0.007877565747283141,0.003288561836421299
6971.872585452245,0.007775910044484285,0.0032998675127007293
6971.873585224168,0.007671271573411945,0.003317370276736301
6971.874584996091,0.007563513788686009,0.003341231344803928
6971.875584768014,0.007452502811101799,0.0033715325079071534
6971.876584539937,0.007338112098907203,0.003408265201977986
6971.877584311859,0.007220231024211324,0.00345132083820338
6971.878584083782,0.007098776942892827,0.0035004828855205792
6971.879583855704,0.0069737100474540166,0.003555421138231343
6971.880583627628,0.006845049993685858,0.0036156885356295253
6971.88158339955,0.006712893035595392,0.003680720820731375
6971.882583171473,0.006577428291444353,0.0037498392363214503
6971.883582943396,0.006438951916749197,0.003822256369281975
6971.884582715318,0.006297878362074435,0.0038970851633642186
6971.885582487241,0.0061547483550188084,0.003973351018904286
6971.886582259164,0.006010233587090907,0.004050006797610979
6971.887582031087,0.005865138285394481,0.004125950463667253
6971.888581803009,0.005720397966190448,0.004200045004659791
6971.889581574932,0.00557707572614482,0.004271140169130978
6971.890581346855,0.005436356426201758,0.004338095451628859
6971.891581118778,0.005299539084579368,0.004399803696113282
6971.892580890701,0.005168027749514758,0.004455214686097557
6971.893580662623,0.0050433210716490096,0.004503358100363498
6971.894580434546,0.004927000717312664,0.004543365188918416
6971.895580206468,0.004820718648445693,0.004574488484211056
6971.896579978391,0.004726183183554948,0.004596118881020056
6971.897579750314,0.004645143711681286,0.004607799530386529
6971.898579522237,0.004579373967632682,0.00460923615312858
6971.89957929416,0.004530653827191809,0.00460030352855296
6971.900579066082,0.004500749585066445,0.004581048044733631
6971.901578838006,0.004491392643199431,0.004551686312793714
6971.902578609928,0.004504256518115926,0.004512599924081474
6971.903578381851,0.0045409321279470775,0.004464326453555494
6971.904578153773,0.00460290145627207,0.0044075468411920995
6971.905577925696,0.004691509863294849,0.004343069401758536
6971.906577697619,0.004807937452223448,0.004271810935707813
6971.907577469542,0.0049531699693201306,0.004194775646917163
6971.908577241465,0.00512796974286439,0.0041130327047561146
6971.909577013387,0.005332847177688275,0.004027693296799032
6971.91057678531,0.0055680333261586825,0.003939887967050311
6971.911576557232,0.005833454065539557,0.0038507449779053133
6971.912576329156,0.00612870645490779,0.0037613703722450837
6971.913576101078,0.006453037932575053,0.0036728303200437643
6971.914575873001,0.006805329113089627,0.0035861361994662115
6971.915575644924,0.007184081010627093,0.0035022326926458236
6971.916575416846,0.007587407542538234,0.0034219889873546233
6971.917575188769,0.008013034149957046,0.0033461929819199494
6971.918574960692,0.008458303295339344,0.003275548199384998
6971.919574732615,0.008920187459229097,0.0032106729370692455
6971.920574504537,0.009395310090872659,0.0031521010379686404
6971.92157427646,0.009879974791163926,0.003100283624980633
6971.922574048383,0.010370202808726067,0.00305559123294761
6971.923573820306,0.010861778695242639,0.0030183159792013608
6971.924573592229,0.0113503037011002,0.002988673621525182
6971.925573364151,0.011831256201272709,0.002966805465302703
6971.926573136074,0.012300058117955362,0.0029527800953810593
6971.927572907996,0.012752145964458686,0.0029465948848057927
6971.92857267992,0.013183044813180547,0.0029481772294736395
6971.929572451842,0.013588443232631735,0.0029573854991567137
6971.930572223765,0.013964267087985451,0.0029740097674363824
6971.931571995688,0.014306750085174711,0.0029977724451135355
6971.93257176761,0.014612499037112196,0.003028328962484652
6971.933571539534,0.014878551980475396,0.0030652686243009767
6971.934571311456,0.015102427468746715,0.003108115713871135
6971.935571083379,0.015282163717974404,0.003156330880230604
6971.936570855301,0.015416346870562961,0.003209312850346959
6971.937570627224,0.015504128343948586,0.0032664005925761882
6971.938570399147,0.015545231747493487,0.003326876184026235
6971.93957017107,0.015539949971439392,0.003389968729823457
6971.940569942993,0.015489132836486529,0.0034548596914943325
6971.941569714915,0.015394165420405387,0.003520689898981814
6971.942569486838,0.015256937142484028,0.0035865683799417842
6971.94356925876,0.015079801979468512,0.003651582984349852
6971.944569030684,0.01486553062823201,0.0037148126399603174
6971.945568802606,0.01461725574198571,0.0037753409514292187
6971.946568574529,0.01433841142720074,0.0038322707452945965
6971.947568346452,0.01403266810532662,0.0038847390562599046
6971.948568118374,0.013703863815503894,0.0039319319632095335
6971.949567890297,0.013355933190442938,0.0039730986670947375
6971.95056766222,0.012992835655504586,0.0040075643007491096
6971.951567434143,0.012618484709910423,0.004034741146254951
6971.952567206065,0.012236680242089395,0.00405413812365699
6971.953566977988,0.011851045639455628,0.004065368543000439
6971.954566749912,0.011464971103019717,0.004068156174955345
6971.955566521834,0.011081564261570757,0.004062339708282308
6971.956566293757,0.010703608988365029,0.004047875631392365
6971.957566065679,0.010333533209722492,0.004024839508878855
6971.958565837602,0.009973386377607354,0.0039934255444590075
6971.959565609524,0.009624827123106522,0.003953944263692123
6971.960565381448,0.009289121413162526,0.003906818149286826
6971.96156515337,0.008967151278200042,0.0038525751429688755
6971.962564925293,0.008659433837821943,0.0037918400908417355
6971.963564697216,0.008366149958144893,0.003725324413691148
6971.964564469138,0.008087181511415067,0.003653814449012162
6971.965564241062,0.00782215592054839,0.0035781589644112355
6971.966564012984,0.007570496427641176,0.00349925627453761
6971.967563784907,0.00733147629403555,0.003418041262908287
6971.968563556829,0.007104274934018282,0.003335472490744268
6971.969563328752,0.006888033824975892,0.0032525195178219296
6971.970563100675,0.006681909945127042,0.0031701505705275085
6971.971562872598,0.006485124544603901,0.003089320733887276
6971.972562644521,0.006297005368294407,0.0030109608722901924
6971.973562416443,0.006117021034549653,0.00293596747461866
6971.974562188366,0.005944806983768876,0.002865193574367794
6971.975561960288,0.005780183031017612,0.002799440823263995
6971.976561732212,0.00562316296388967,0.002739452708512327
6971.977561504134,0.005473956831151732,0.0026859088162881455
6971.978561276057,0.005332966640512701,0.002639419977606455
6971.97956104798,0.005200776194479161,0.0026005240957691165
6971.980560819902,0.005078135804118714,0.0025696824414262686
6971.981560591825,0.004965942676772844,0.0025472762085382355
6971.982560363748,0.0048652178628504645,0.0025336031655309346
6971.983560135671,0.004777080698938641,0.0025288743250404364
6971.984559907593,0.0047027216409919175,0.0025332106758683003
6971.985559679516,0.004643374248257022,0.0025466401295519336
6971.98655945144,0.004600286908213502,0.002569094903044364
6971.987559223362,0.004574694741355798,0.0026004095840019277
6971.988558995285,0.004567792033247431,0.0026403201083439218
6971.989558767207,0.004580705525265851,0.002688463832367917
6971.99055853913,0.004614468932575779,0.00274438082765083
6971.991558311052,0.004669999109664235,0.0028075164824656867
6971.992558082976,0.004748074332177233,0.0028772254549222645
6971.993557854898,0.004849315199994693,0.002952776984268623
6971.994557626821,0.004974168662762166,0.003033361537195798
6971.995557398744,0.005122895598090447,0.00311809875964972
6971.996557170666,0.005295562239024435,0.0032060467157968963
6971.99755694259,0.00549203558362932,0.0032962124032095428
6971.998556714512,0.005711982759097313,0.0033875635265227045
6971.999556486435,0.005954874167330759,0.0034790414907072084
6972.000556258357,0.00621999010033255,0.0035695755312831964
6972.00155603028,0.006506430377552173,0.0036580978255782723
6972.002555802203,0.006813126434163265,0.0037435593458093365
6972.003555574126,0.007138855188347335,0.0038249461515839057
6972.004555346049,0.007482253928858136,0.0039012957777341904
6972.005555117971,0.007841835384194787,0.003971713327642031
6972.006554889894,0.008216002083217414,0.004035386822311361
6972.007554661817,0.00860305911528036,0.0040916013054292325
6972.00855443374,0.009001224422702158,0.004139751207676843
6972.009554205662,0.009408635799660238,0.004179350569444313
6972.010553977585,0.009823353928679139,0.004210040907064224
6972.011553749508,0.01024336120486468,0.004231596710243322
6972.01255352143,0.010666556770689551,0.004243928681483229
6972.013553293354,0.011090748879157142,0.004247084837366461
6972.014553065276,0.011513646168858211,0.004241249531401058
6972.015552837199,0.01193284963449252,0.004226740400076445
6972.016552609121,0.012345847148425624,0.004204003219817359
6972.017552381044,0.012750012408190445,0.004173604687714964
6972.018552152968,0.013142610079546427,0.0041362231780764916
6972.01955192489,0.013520808590264331,0.004092637568603784
6972.020551696813,0.01388170152073067,0.004043714274583238
6972.021551468735,0.014222337918205994,0.003990392669134197
6972.022551240658,0.014539761221854219,0.00393366909382392
6972.02355101258,0.014831055886582173,0.0038745796907943336
6972.024550784504,0.015093400252414638,0.003814182349941074
6972.025550556426,0.015324123720908613,0.0037535381767911185
6972.026550328349,0.015520765911072518,0.0036936930011651297
6972.027550100272,0.01568113526598336,0.0036356594850648683
6972.028549872194,0.015803364633119547,0.0035804003220955044
6972.029549644118,0.015885961616685883,0.003528812896052685
6972.03054941604,0.01592785188983855,0.003481715647492909
6972.031549187963,0.01592841401760161,0.0034398363135703758
6972.032548959885,0.01588750456411954,0.0034038021512633053
6972.033548731808,0.015805472357747714,0.003374132209612428
6972.034548503731,0.015683160950617895,0.003351231670316706
6972.035548275654,0.015521898756797454,0.0033353882221214787
6972.036548047577,0.015323477137600102,0.0033267703710561083
6972.037547819499,0.015090117621494453,0.0033254275217958003
6972.038547591422,0.014824430156453804,0.0033312916194525523
6972.039547363345,0.014529364555275794,0.003344180150889298
6972.040547135268,0.01420815713689695,0.0033638003822933334
6972.04154690719,0.013864274217718148,0.0033897548238236053
6972.042546679113,0.013501353800348965,0.003421548005769908
6972.043546451036,0.013123146658991088,0.0034585946781251734
6972.044546222958,0.012733458026904601,0.003500229500377873
6972.045545994882,0.012336091162255678,0.0035457182053312344
6972.046545766804,0.011934794082963029,0.0035942701468818857
6972.047545538727,0.011533210655148373,0.0036450520968321996
6972.048545310649,0.01113483701962881,0.0036972031189686214
6972.049545082572,0.010742984090920123,0.0037498502900164122
6972.050544854496,0.010360746569095403,0.0038021249571307827
6972.051544626418,0.009990978567317,0.0038531791459218406
6972.052544398341,0.00963627561442283,0.0039022016840344763
6972.053544170263,0.009298962502047124,0.003948433593586781
6972.054543942186,0.00898108624916085,0.003991182334105486
6972.055543714108,0.008684413355530511,0.004029834543845014
6972.056543486032,0.008410430497822384,0.00406386702436819
6972.057543257954,0.008160347883710744,0.004092855815229568
6972.058543029877,0.007935104601413431,0.004116483264009004
6972.0595428018,0.007735375430769619,0.004134542980912896
6972.060542573722,0.007561578659006707,0.004146942508503917
6972.061542345646,0.007413884465960313,0.004153703515512764
6972.062542117568,0.007292223475128943,0.004154959400114964
6972.063541889491,0.0071962951742374414,0.004150950348001879
6972.064541661413,0.007125576083349915,0.004142016053641451
6972.065541433336,0.007079327712011098,0.004128586407742754
6972.0665412052585,0.007056604413369003,0.004111170481245072
6972.067540977182,0.007056261191518011,0.00409034415163053
6972.068540749105,0.0070769614300427155,0.004066736751971278
6972.069540521027,0.007117184510665598,0.004041017144708262
6972.07054029295,0.0071752334383039735,0.004013879587209265
6972.071540064873,0.007249242830852161,0.003986029669897303
6972.072539836796,0.007337187866251642,0.003958170511229225
6972.073539608718,0.007436894928248677,0.003930989320808087
6972.074539380641,0.007546054725157929,0.0039051444099000416
6972.075539152564,0.007662238571943422,0.003881252750453455
6972.076538924486,0.007782918349383618,0.0038598782613284877
6972.07753869641,0.007905490440024957,0.0038415211035449843
6972.078538468332,0.008027303740199799,0.003826608337194826
6972.079538240255,0.008145691659092704,0.003815486286946699
6972.080538012177,0.008258007799957187,0.00380841487903946
6972.0815377841,0.008361664759782936,0.003805564081616305
6972.082537556023,0.008454175214248754,0.0038070124435053625
6972.083537327946,0.008533194217643602,0.003812747617045157
6972.084537099869,0.008596561451833582,0.0038226686818208207
6972.085536871791,0.00864234198104343,0.0038365900561090575
6972.086536643714,0.008668863916565066,0.003854246785254202
6972.087536415636,0.008674751352069838,0.003875301024141257
6972.08853618756,0.008658951085110176,0.0038993495746899942
6972.089535959482,0.008620751958397873,0.003925932387589419
6972.090535731405,0.00855979600409062,0.003954541977891342
6972.091535503328,0.008476080904471786,0.003984633720055006
6972.092535275251,0.008369953676297417,0.004015636960961678
6972.093535047174,0.008242096005389405,0.004046966813800851
6972.094534819096,0.008093502211637495,0.004078036392284054
6972.095534591019,0.007925451239465418,0.004108269147236156
6972.096534362941,0.007739474251188926,0.004137110901361837
6972.097534134864,0.007537319384010407,0.0041640411598774804
6972.098533906787,0.007320915096897425,0.004188583315030367
6972.09953367871,0.00709233334108888,0.004210313443122307
6972.100533450633,0.006853753571841049,0.004228867464080304
6972.101533222555,0.006607428402890324,0.004243946461893646
6972.102532994478,0.00635565150983752,0.004255319972202499
6972.103532766401,0.006100728223515083,0.004262827085566266
6972.104532538324,0.005844949098252264,0.004266375319428029
6972.105532310246,0.005590566562661553,0.0042659373672078865
6972.106532082169,0.005339774577911487,0.004261546012375241
6972.107531854092,0.005094691101120994,0.004253287653479225
6972.108531626014,0.004857343116394384,0.0042412949601866425
6972.109531397938,0.004629654029483005,0.004225739139091504
6972.11053116986,0.004413433273081175,0.004206822162208016
6972.111530941783,0.0042103679980436135,0.004184769164287829
6972.112530713705,0.004022016715931558,0.00415982111098616
6972.113530485628,0.0038498047269356793,0.0041322278170418435
6972.114530257551,0.003695021146679781,0.004102241430973863
6972.115530029474,0.003558817346463606,0.0040701105344351255
6972.116529801397,0.003442206625480086,0.004036074997528194
6972.117529573319,0.0033460649161604853,0.00400036171344997
6972.118529345242,0.0032711322785822744,0.0039631813319174584
6972.119529117164,0.0032180148952009866,0.0039247261029753434
6972.120528889088,0.0031871872825151508,0.0038851689022990467
6972.12152866101,0.0031789945050100976,0.0038446634379837104
6972.122528432933,0.0031936542595324183,0.003803345572564632
6972.123528204856,0.00323125873826271,0.0037613356663727554
6972.124527976779,0.0032917761765543195,0.0037187418537965936
6972.125527748702,0.003375051999546013,0.0036756641680730433
6972.126527520624,0.0034808095360182034,0.0036321994093507165
6972.127527292547,0.003608650347076756,0.003588446603138462
6972.128527064469,0.003758054268263087,0.00354451282653166
6972.129526836392,0.003928379275698994,0.0035005190968662786
6972.130526608315,0.0041188613005773865,0.003456605945756089
6972.131526380238,0.004328614150137711,0.0034129382772940093
6972.132526152161,0.004556629706511136,0.003369709156479454
6972.133525924083,0.004801778533687321,0.003327142279622644
6972.134525696006,0.005062810966239247,0.003285493004322695
6972.135525467929,0.005338358756004097,0.0032450479381298967
6972.136525239852,0.00562693743268368,0.0032061231973338914
6972.137525011774,0.0059269496276399495,0.0031690615322802857
6972.138524783697,0.006236689646132928,0.0031342285423871024
6972.13952455562,0.006554349550736189,0.003102008170685525
6972.140524327542,0.0068780269940678165,0.003072797608085808
6972.141524099466,0.007205735044532626,0.0030470016846398367
6972.142523871388,0.007535414244460921,0.003025026790860967
6972.143523643311,0.007864947069730711,0.0030072743586659336
6972.144523415233,0.008192174837547405,0.002994133940436544
6972.145523187157,0.008514917004583265,0.002985975953095137
6972.146522959079,0.008830992743865923,0.0029831441926583733
6972.147522731002,0.00913824464191746,0.0029859482646760064
6972.148522502925,0.009434564252835034,0.002994656107871332
6972.149522274847,0.009717919062246245,0.0030094867985970284
6972.15052204677,0.009986380182450624,0.0030306038043257477
6972.151521818693,0.010238149877380308,0.003058108808133939
6972.152521590616,0.01047158786710565,0.0030920361595821047
6972.153521362538,0.01068523534340525,0.003132347935212947
6972.154521134461,0.010877835744536877,0.003178929549585686
6972.155520906384,0.01104835151089207,0.0032315858868281785
6972.156520678307,0.011195976190333077,0.0032900380259645924
6972.15752045023,0.011320141407896011,0.0033539207569127827
6972.158520222152,0.011420518460624383,0.003422781162753288
6972.159519994075,0.011497014675612226,0.0034960785565734394
6972.160519765997,0.011549765089938865,0.0035731860315957
6972.16151953792,0.01157912034563734,0.003653393840892884
6972.162519309843,0.011585631842119953,0.003735914776437543
6972.163519081766,0.011570035112333376,0.0038198916568846267
6972.164518853689,0.011533232116610614,0.003904406947301919
6972.165518625611,0.011476272776296198,0.0039884944208679685
6972.166518397534,0.01140033575086738,0.004071152647684452
6972.167518169457,0.011306708354901409,0.004151359988114437
6972.16851794138,0.011196765660184757,0.004228090704369781
6972.169517713302,0.011071949101528943,0.004300331783409896
6972.170517485225,0.010933745101304996,0.004367100050389862
6972.171517257148,0.010783664249410126,0.0044274591142697915
6972.17251702907,0.010623221460765143,0.004480535650366217
6972.173516800994,0.010453917365085354,0.004525534553401951
6972.174516572916,0.010277221026402132,0.004561752616306152
6972.175516344839,0.010094553971286615,0.004588590546510738
6972.176516116761,0.009907275427252699,0.004605563230026437
6972.177515888685,0.009716668646448464,0.004612308158253498
6972.178515660607,0.009523928246948428,0.004608591888922916
6972.17951543253,0.009330148655509771,0.004594314400364332
6972.180515204453,0.009136313928807102,0.004569511268286385
6972.181514976375,0.00894328936693905,0.004534353723854357
6972.182514748298,0.00875181533094627,0.004489146763889783
6972.183514520221,0.008562503528124378,0.004434325523103596
6972.184514292144,0.008375835816609849,0.004370450083896727
6972.185514064066,0.00819216541165227,0.004298198820680354
6972.186513835989,0.00801172029363427,0.004218360299659897
6972.187513607912,0.007834608585247335,0.004131823726969094
6972.188513379835,0.007660825639338667,0.004039567960716293
6972.189513151758,0.0074902625712527145,0.003942649143535068
6972.19051292368,0.007322716009965245,0.003842187053754127
6972.191512695603,0.007157898910831577,0.0037393503243327497
6972.192512467525,0.006995452312186687,0.0036353407461955324
6972.193512239448,0.006834957909162798,0.0035313769393345087
6972.194512011371,0.006675951299562822,0.0034286777104670352
6972.195511783294,0.006517935769004818,0.003328445408768395
6972.196511555217,0.006360396519276524,0.0032318495594292757
6972.197511327139,0.006202815262148534,0.003140011021136816
6972.198511099062,0.006044685072189654,0.0030539868872414464
6972.199510870985,0.005885525329244467,0.0029747563338904884
6972.200510642908,0.005724896515576712,0.002903207611342734
6972.20151041483,0.005562414589387142,0.002840126368579932
6972.202510186753,0.005397764657659495,0.0027861854836735106
6972.203509958676,0.005230713733488556,0.002741936540459095
6972.204509730598,0.005061122476178825,0.002707803060163077
6972.205509502522,0.004888955936119683,0.002684075580782479
6972.206509274444,0.004714293414135998,0.002670908671871951
6972.207509046367,0.004537337567931292,0.00266831995542897
6972.208508818289,0.004358422852441843,0.0026761911644289796
6972.209508590213,0.004178023285570377,0.0026942712206578876
6972.210508362135,0.003996759421934854,0.0027221812673249306
6972.211508134058,0.003815404329977287,0.00275942155792813
6972.212507905981,0.003634888313810885,0.0028053800863245886
6972.213507677903,0.0034563020922241568,0.002859342837366905
6972.214507449826,0.0032808981435064424,0.0029205055243487744
6972.215507221749,0.003110089956137981,0.0029879866520604224
6972.216506993672,0.002945448976515103,0.0030608417149867654
6972.217506765594,0.0027886990759575787,0.0031380783206601615
6972.218506537517,0.0026417083564312014,0.003218672017304749
6972.21950630944,0.002506478105116407,0.0033015825959657567
