Time,Filtered_ECG
7034.350332448782,-0.00045178716580598194
7034.351332220705,-0.0004726317652351195
7034.352331992628,-0.0004934254419565963
7034.353331764551,-0.0005141645046864685
7034.354331536473,-0.0005348452712857807
7034.355331308396,-0.000555464070104488
7034.356331080318,-0.000576017241321825
7034.357330852242,-0.0005965011382820046
7034.358330624164,-0.0006169121288241224
7034.359330396087,-0.0006372465966051493
7034.36033016801,-0.0006575009424148928
7034.361329939933,-0.0006776715854818214
7034.362329711856,-0.0006977549647686704
7034.363329483778,-0.0007177475402567839
7034.364329255701,-0.0007376457942182005
7034.365329027623,-0.0007574462324745492
7034.366328799546,-0.0007771453856418775
7034.367328571469,-0.0007967398103605958
7034.368328343392,-0.0008162260905097676
7034.369328115315,-0.0008356008384050251
7034.370327887237,-0.0008548606959794278
7034.37132765916,-0.0008740023359466311
7034.372327431083,-0.0008930224629457882
7034.373327203006,-0.0009119178146676832
7034.374326974928,-0.0009306851629616815
7034.375326746851,-0.000949321314923193
7034.376326518774,-0.0009678231139614431
7034.377326290696,-0.0009861874408474297
7034.37832606262,-0.0010044112147420056
7034.379325834542,-0.0010224913942040515
7034.380325606465,-0.0010404249781787163
7034.381325378387,-0.0010582090069657009
7034.38232515031,-0.0010758405631675586
7034.383324922233,-0.0010933167726179798
7034.384324694156,-0.0011106348052900262
7034.385324466079,-0.0011277918761842653
7034.386324238001,-0.001144785246196738
7034.387324009924,-0.0011616122229666636
7034.388323781846,-0.0011782701617037684
7034.38932355377,-0.001194756465995115
7034.390323325692,-0.0012110685885913118
7034.391323097615,-0.001227204032171985
7034.392322869538,-0.001243160350090411
7034.393322641461,-0.0012589351470972006
7034.394322413384,-0.0012745260800429428
7034.395322185306,-0.001289930858559709
7034.396321957229,-0.0013051472457213395
7034.397321729151,-0.001320173058682452
7034.398321501074,-0.0013350061692961215
7034.399321272997,-0.0013496445047102119
7034.40032104492,-0.0013640860479423285
7034.401320816843,-0.0013783288384333716
7034.402320588765,-0.001392370972579643
7034.403320360688,-0.001406210604243442
7034.404320132611,-0.0014198459452420466
7034.405319904534,-0.0014332752658149765
7034.406319676456,-0.0014464968950694298
7034.407319448379,-0.0014595092214038218
7034.408319220302,-0.0014723106929093851
7034.409318992224,-0.0014848998177498416
7034.410318764148,-0.0014972751645191764
7034.41131853607,-0.0015094353625775914
7034.412318307993,-0.0015213791023657379
7034.413318079915,-0.0015331051356973532
7034.414317851839,-0.0015446122760304445
7034.415317623761,-0.001555899398717176
7034.416317395684,-0.0015669654412326164
7034.417317167607,-0.0015778094033825113
7034.418316939529,-0.0015884303474902291
7034.419316711452,-0.001598827398563022
7034.420316483375,-0.0016089997444377288
7034.421316255298,-0.0016189466359060255
7034.42231602722,-0.0016286673868192998
7034.423315799143,-0.0016381613741731818
7034.424315571066,-0.0016474280381717052
7034.425315342989,-0.001656466882271012
7034.426315114912,-0.001665277473202468
7034.427314886834,-0.0016738594409750254
7034.428314658757,-0.001682212478856655
7034.429314430679,-0.0016903363433346996
7034.430314202602,-0.0016982308540550207
7034.431313974525,-0.0017058958937398528
7034.432313746448,-0.0017133314080843242
7034.433313518371,-0.0017205374056316663
7034.434313290293,-0.0017275139576272012
7034.435313062216,-0.0017342611978512742
7034.436312834139,-0.0017407793224313807
7034.437312606062,-0.0017470685896338093
7034.438312377984,-0.0017531293196351798
7034.439312149907,-0.0017589618942742947
7034.44031192183,-0.0017645667567847544
7034.441311693752,-0.0017699444115088117
7034.442311465676,-0.0017750954235929695
7034.443311237598,-0.0017800204186658607
7034.444311009521,-0.0017847200824989836
7034.445310781443,-0.0017891951606509057
7034.446310553367,-0.0017934464580955775
7034.447310325289,-0.0017974748388354359
7034.448310097212,-0.0018012812254999831
7034.449309869135,-0.0018048665989305423
7034.450309641057,-0.0018082319977518833
7034.45130941298,-0.0018113785179314217
7034.452309184903,-0.0018143073123267034
7034.453308956826,-0.0018170195902218957
7034.454308728748,-0.0018195166168540476
7034.455308500671,-0.001821799712929905
7034.456308272594,-0.001823870254134124
7034.457308044517,-0.0018257296706297832
7034.45830781644,-0.0018273794465521707
7034.459307588362,-0.0018288211194968762
7034.460307360285,-0.001830056280003286
7034.461307132207,-0.0018310865710346013
7034.46230690413,-0.0018319136874555015
7034.463306676053,-0.0018325393755085444
7034.464306447976,-0.0018329654322903081
7034.465306219899,-0.0018331937052281642
7034.466305991821,-0.001833226091558417
7034.467305763744,-0.0018330645378063675
7034.468305535667,-0.001832711039268695
7034.46930530759,-0.0018321676394984182
7034.470305079512,-0.0018314364297926308
7034.471304851435,-0.001830519548683181
7034.472304623358,-0.0018294191814304877
7034.47330439528,-0.0018281375595207198
7034.474304167204,-0.0018266769601665985
7034.475303939126,-0.0018250397058121159
7034.476303711049,-0.0018232281636414841
7034.477303482971,-0.0018212447450926563
7034.478303254895,-0.0018190919053757686
7034.479303026817,-0.001816772142996862
7034.48030279874,-0.0018142879992872377
7034.481302570663,-0.0018116420579387907
7034.482302342585,-0.0018088369445456588
7034.483302114508,-0.0018058753261524898
7034.484301886431,-0.0018027599108096214
7034.485301658354,-0.0017994934471354473
7034.486301430276,-0.0017960787238862359
7034.487301202199,-0.001792518569533663
7034.488300974122,-0.0017888158518503002
7034.489300746045,-0.0017849734775032934
7034.490300517968,-0.001780994391656431
7034.49130028989,-0.0017768815775807516
7034.492300061813,-0.001772638056273796
7034.493299833735,-0.0017682668860875342
7034.494299605658,-0.0017637711623649372
7034.495299377581,-0.001759154017085087
7034.496299149504,-0.001754418618516637
7034.497298921427,-0.0017495681708793386
7034.498298693349,-0.0017446059140132464
7034.499298465273,-0.001739535123055094
7034.500298237195,-0.001734359108121232
7034.501298009118,-0.0017290812139963978
7034.50229778104,-0.001723704819827526
7034.503297552963,-0.001718233338821757
7034.504297324886,-0.001712670217947785
7034.505297096809,-0.0017070189376397012
7034.506296868732,-0.0017012830115025151
7034.507296640654,-0.0016954659860185736
7034.508296412577,-0.001689571440254124
7034.509296184499,-0.0016836029855652735
7034.510295956423,-0.0016775642653025981
7034.511295728345,-0.0016714589545136329
7034.512295500268,-0.0016652907596424631
7034.513295272191,-0.001659063418225636
7034.514295044113,-0.0016527806985836
7034.515294816036,-0.0016464463995068865
7034.516294587959,-0.0016400643499362455
7034.517294359882,-0.0016336384086359347
7034.518294131804,-0.0016271724638593486
7034.519293903727,-0.0016206704330061585
7034.52029367565,-0.0016141362622701272
7034.521293447573,-0.0016075739262767174
7034.522293219496,-0.0016009874277095998
7034.523292991418,-0.0015943807969251347
7034.524292763341,-0.0015877580915538755
7034.525292535263,-0.0015811233960881415
7034.526292307186,-0.001574480821454697
7034.527292079109,-0.0015678345045715837
7034.528291851032,-0.0015611886078881654
7034.529291622955,-0.001554547318907486
7034.530291394877,-0.0015479148496900911
7034.531291166801,-0.00154129543633854
7034.532290938723,-0.0015346933384619164
7034.533290710646,-0.0015281128386197558
7034.534290482568,-0.0015215582417449232
7034.535290254491,-0.001515033874545114
7034.536290026414,-0.0015085440848827735
7034.537289798337,-0.0015020932411333617
7034.53828957026,-0.0014956857315219774
7034.539289342182,-0.0014893259634384476
7034.540289114105,-0.0014830183627310325
7034.541288886027,-0.001476767372978939
7034.542288657951,-0.001470577454743848
7034.543288429873,-0.0014644530848006894
7034.544288201796,-0.0014583987553479266
7034.545287973719,-0.0014524189731976226
7034.546287745641,-0.0014465182589455895
7034.547287517564,-0.0014407011461219344
7034.548287289487,-0.0014349721803223131
7034.54928706141,-0.001429335918320214
7034.550286833332,-0.0014237969271605952
7034.551286605255,-0.0014183597832351904
7034.552286377178,-0.0014130290713397949
7034.553286149101,-0.0014078093837138436
7034.554285921024,-0.001402705319062591
7034.555285692946,-0.0013977214815622085
7034.556285464869,-0.0013928624798481132
7034.557285236791,-0.0013881329259868502
7034.558285008715,-0.0013835374344318635
7034.559284780637,-0.0013790806209634837
7034.56028455256,-0.0013747671016134764
7034.561284324483,-0.0013706014915744822
7034.562284096405,-0.0013665884040946759
7034.563283868329,-0.001362732449357935
7034.564283640251,-0.001359038233349792
7034.565283412174,-0.001355510356709421
7034.566283184096,-0.001352153413567898
7034.567282956019,-0.0013489719903729777
7034.568282727942,-0.001345970664700641
7034.569282499865,-0.0013431540040536904
7034.570282271788,-0.001340526564647668
7034.57128204371,-0.001338092890184364
7034.572281815633,-0.0013358575106131245
7034.573281587555,-0.0013338249408800925
7034.574281359479,-0.0013319996796654176
7034.575281131401,-0.0013303862081083413
7034.576280903324,-0.0013289889885199147
7034.577280675247,-0.0013278124630829542
7034.578280447169,-0.0013268610525387148
7034.579280219092,-0.001326139154859662
7034.580279991015,-0.001325651143907682
7034.581279762938,-0.0013254013680770876
7034.58227953486,-0.0013253941489218227
7034.583279306783,-0.0013256337797663564
7034.5842790787065,-0.0013261245242998584
7034.585278850629,-0.0013268706151533687
7034.586278622552,-0.0013278762524597944
7034.587278394474,-0.0013291456023966893
7034.588278166397,-0.0013306827957118845
7034.589277938319,-0.0013324919262321122
7034.590277710243,-0.0013345770493548377
7034.591277482165,-0.0013369421805235497
7034.592277254088,-0.0013395912936867965
7034.593277026011,-0.0013425283197412903
7034.594276797933,-0.0013457571449594342
7034.595276569857,-0.0013492816094016486
7034.596276341779,-0.001353105505313891
7034.597276113702,-0.0013572325755107635
7034.598275885624,-0.001361666511744594
7034.599275657547,-0.0013664109530608652
7034.60027542947,-0.0013714694841403378
7034.601275201393,-0.001376845633628204
7034.602274973316,-0.0013825428724505795
7034.603274745238,-0.0013885646121186421
7034.604274517161,-0.0013949142030207197
7034.605274289083,-0.0014015949327026399
7034.606274061007,-0.0014086100241366651
7034.607273832929,-0.0014159626339793642
7034.608273604852,-0.0014236558508188139
7034.609273376775,-0.001431692693411586
7034.610273148697,-0.0014400761089100153
7034.61127292062,-0.0014488089710802722
7034.612272692543,-0.0014578940785117827
7034.613272464466,-0.0014673341528185237
7034.614272236388,-0.001477131836832686
7034.615272008311,-0.0014872896927911518
7034.6162717802345,-0.0014978102005151724
7034.617271552157,-0.0015086957555835664
7034.61827132408,-0.0015199486674996874
7034.619271096002,-0.001531571157852347
7034.620270867925,-0.0015435653584708105
7034.621270639847,-0.001555933309573914
7034.622270411771,-0.0015686769579133094
7034.623270183693,-0.0015817981549108107
7034.624269955616,-0.0015952986547898135
7034.625269727539,-0.0016091801127007842
7034.626269499461,-0.0016234440828408576
7034.627269271385,-0.001638092016567629
7034.628269043307,-0.0016531252605072736
7034.62926881523,-0.0016685450546571436
7034.630268587152,-0.0016843525304830141
7034.631268359075,-0.0017005487090111379
7034.6322681309975,-0.0017171344989152953
7034.633267902921,-0.0017341106945990604
7034.634267674844,-0.0017514779742735566
7034.635267446766,-0.0017692368980310549
7034.636267218689,-0.0017873879059148356
7034.637266990612,-0.0018059313159858017
7034.638266762535,-0.0018248673223863982
7034.639266534457,-0.0018441959934024507
7034.64026630638,-0.0018639172695235793
7034.641266078303,-0.0018840309615028885
7034.642265850225,-0.0019045367484166595
7034.643265622149,-0.0019254341757247908
7034.644265394071,-0.001946722653332768
7034.645265165994,-0.0019684014536559867
7034.646264937916,-0.001990469709687296
7034.647264709839,-0.002012926413068695
7034.648264481762,-0.002035770412168173
7034.649264253685,-0.0020590004101627177
7034.650264025608,-0.002082614963128562
7034.65126379753,-0.0021066124781397547
7034.652263569453,-0.002130991211376151
7034.653263341375,-0.0021557492662419137
7034.654263113299,-0.002180884591495573
7034.655262885221,-0.0022063949793926546
7034.656262657144,-0.002232278063841821
7034.657262429067,-0.0022585313185754154
7034.658262200989,-0.0022851520553352376
7034.659261972913,-0.0023121374220743457
7034.660261744835,-0.00233948440117564
7034.661261516758,-0.002367189807687981
7034.66226128868,-0.002395250287580604
7034.663261060603,-0.0024236623160166343
7034.6642608325255,-0.0024524221956465446
7034.665260604449,-0.0024815260549224654
7034.666260376372,-0.002510969846434321
7034.667260148294,-0.0025407493452688406
7034.668259920217,-0.00257086014739256
7034.66925969214,-0.002601297668060014
7034.670259464063,-0.002632057140248373
7034.671259235985,-0.0026631336131198464
7034.672259007908,-0.0026945219505132346
7034.673258779831,-0.0027262168294660857
7034.674258551753,-0.002758212738769009
7034.675258323677,-0.002790503977553829
7034.676258095599,-0.0028230846539174033
7034.677257867522,-0.0028559486835831134
7034.678257639444,-0.0028890897886022027
7034.679257411367,-0.0029225014960973586
7034.68025718329,-0.0029561771370511525
7034.681256955213,-0.002990109845142169
7034.682256727136,-0.0030242925556318544
7034.683256499058,-0.0030587180043052894
7034.684256270981,-0.0030933787264692
7034.685256042903,-0.0031282670560106424
7034.686255814827,-0.0031633751245198445
7034.687255586749,-0.0031986948604806904
7034.688255358672,-0.003234217988532338
7034.689255130595,-0.0032699360288053485
7034.690254902517,-0.003305840296335619
7034.691254674441,-0.0033419219005592707
7034.692254446363,-0.003378171744891497
7034.693254218286,-0.003414580526392259
7034.694253990208,-0.0034511387355216088
7034.695253762131,-0.003487836655987329
7034.6962535340535,-0.003524664364687523
7034.697253305977,-0.003561611731750705
7034.6982530779,-0.0035986684206759123
7034.699252849822,-0.003635823888575355
7034.700252621745,-0.0036730673865220907
7034.701252393668,-0.00371038796000521
7034.702252165591,-0.003747774449495028
7034.703251937513,-0.003785215491120729
7034.704251709436,-0.003822699517462864
7034.705251481359,-0.0038602147584630097
7034.706251253281,-0.003897749242452755
7034.707251025205,-0.003935290797304074
7034.708250797127,-0.003972827051702956
7034.70925056905,-0.0040103454365480505
7034.710250340972,-0.004047833186475924
7034.711250112895,-0.0040852773415144565
7034.712249884818,-0.0041226647488657705
7034.713249656741,-0.004159982064820014
7034.714249428664,-0.004197215756801248
7034.715249200586,-0.004234352105546608
7034.716248972509,-0.004271377207419821
7034.717248744431,-0.0043082769768600804
7034.718248516355,-0.004345037148967165
7034.719248288277,-0.004381643282223573
7034.7202480602,-0.00441808076135431
7034.721247832123,-0.004454334800324845
7034.722247604046,-0.004490390445477602
7034.723247375969,-0.004526232578807238
7034.724247147891,-0.0045618459213748195
7034.725246919814,-0.004597215036860871
7034.726246691736,-0.004632324335257116
7034.727246463659,-0.004667158076696597
7034.728246235582,-0.004701700375421731
7034.729246007505,-0.004735935203889684
7034.730245779428,-0.004769846397014416
7034.73124555135,-0.004803417656544626
7034.732245323273,-0.004836632555576801
7034.733245095196,-0.004869474543202507
7034.734244867119,-0.0049019269492890614
7034.735244639041,-0.004933972989392649
7034.736244410964,-0.004965595769802852
7034.737244182887,-0.004996778292717461
7034.738243954809,-0.005027503461546254
7034.739243726733,-0.005057754086342254
7034.740243498655,-0.005087512889358767
7034.741243270578,-0.005116762510730297
7034.7422430425,-0.005145485514275225
7034.743242814423,-0.005173664393418026
7034.744242586346,-0.005201281577228652
7034.745242358269,-0.005228319436576656
7034.746242130192,-0.005254760290397562
7034.747241902114,-0.005280586412068945
7034.748241674037,-0.0053057800358936496
7034.749241445959,-0.005330323363687459
7034.750241217883,-0.005354198571468511
7034.751240989805,-0.005377387816245675
7034.752240761728,-0.005399873242903061
7034.753240533651,-0.005421636991177816
7034.754240305574,-0.005442661202728382
7034.755240077497,-0.005462928028290457
7034.756239849419,-0.005482419634918002
7034.757239621342,-0.005501118213306783
7034.758239393264,-0.005519005985198013
7034.759239165187,-0.005536065210859827
7034.76023893711,-0.005552278196644351
7034.761238709033,-0.005567627302618167
7034.762238480956,-0.005582094950263958
7034.763238252878,-0.005595663630251116
7034.764238024801,-0.005608315910272985
7034.765237796724,-0.005620034442948342
7034.766237568647,-0.005630801973784559
7034.767237340569,-0.005640601349199763
7034.768237112492,-0.005649415524601192
7034.769236884415,-0.005657227572516688
7034.770236656337,-0.0056640206907761816
7034.771236428261,-0.005669778210739786
7034.772236200183,-0.005674483605568935
7034.773235972106,-0.005678120498536844
7034.774235744028,-0.00568067267137435
7034.775235515952,-0.005682124072647018
7034.776235287874,-0.005682458826159194
7034.777235059797,-0.0056816612393805034
7034.77823483172,-0.005679715811890103
7034.779234603642,-0.005676607243833781
7034.780234375565,-0.0056723204443888346
7034.781234147488,-0.005666840540231451
7034.782233919411,-0.005660152884001144
7034.783233691333,-0.005652243062756567
7034.784233463256,-0.00564309690641686
7034.785233235179,-0.005632700496182453
7034.786233007102,-0.005621040172929036
7034.787232779025,-0.005608102545568175
7034.788232550947,-0.00559387449936785
7034.78923232287,-0.0055783432042260115
7034.790232094792,-0.005561496122890013
7034.791231866715,-0.0055433210191146096
7034.792231638638,-0.005523805965751068
7034.793231410561,-0.005502939352759749
7034.794231182484,-0.005480709895138349
7034.795230954406,-0.005457106640757874
7034.796230726329,-0.00543211897809822
7034.797230498252,-0.005405736643875184
7034.798230270175,-0.00537794973055061
7034.799230042097,-0.005348748693717392
7034.80022981402,-0.0053181243593510286
7034.801229585943,-0.005286067930919533
7034.802229357865,-0.0052525709963435014
7034.803229129789,-0.005217625534798242
7034.804228901711,-0.005181223923349854
7034.805228673634,-0.005143358943417227
7034.806228445556,-0.005104023787051968
7034.80722821748,-0.0050632120630283136
7034.808227989402,-0.0050209178027352044
7034.809227761325,-0.004977135465862826
7034.810227533248,-0.004931859945876134
7034.81122730517,-0.0048850865752681225
7034.812227077093,-0.004836811130585944
7034.813226849016,-0.004787029837223321
7034.814226620939,-0.004735739373973166
7034.815226392861,-0.004682936877334768
7034.816226164784,-0.004628619945570409
7034.817225936707,-0.004572786642506768
7034.81822570863,-0.004515435501076963
7034.819225480553,-0.00445656552659956
7034.820225252475,-0.004396176199791351
7034.821225024398,-0.004334267479511137
7034.82222479632,-0.004270839805232214
7034.823224568243,-0.004205894099241653
7034.824224340166,-0.004139431768564853
7034.825224112089,-0.004071454706614167
7034.826223884012,-0.004001965294560721
7034.827223655934,-0.00393096640242885
7034.828223427857,-0.003858461389912858
7034.82922319978,-0.0037844541069161843
7034.830222971703,-0.003708948893813454
7034.831222743625,-0.0036319505814363605
7034.832222515548,-0.0035534644907847966
7034.833222287471,-0.003473496432465192
7034.834222059393,-0.003392052705858543
7034.835221831317,-0.0033091400980211918
7034.836221603239,-0.0032247658823220055
7034.837221375162,-0.003138937816820274
7034.838221147084,-0.0030516641423893615
7034.839220919008,-0.002962953580591977
7034.84022069093,-0.002872815331313831
7034.841220462853,-0.002781259070163408
7034.842220234776,-0.0026882949456466117
7034.843220006698,-0.0025939335761260398
7034.844219778621,-0.002498186046575648
7034.845219550544,-0.0024010639051424308
7034.846219322467,-0.002302579159527502
7034.847219094389,-0.0022027442731995684
7034.848218866312,-0.002101572161454235
7034.849218638235,-0.00199907618733291
7034.850218410158,-0.0018952701574153237
7034.851218182081,-0.0017901683174998033
7034.852217954003,-0.001683785348185543
7034.853217725926,-0.0015761363603711126
7034.854217497848,-0.0014672368906834144
7034.855217269771,-0.0013571028968512027
7034.856217041694,-0.001245750753037149
7034.857216813617,-0.001133197245142238
7034.85821658554,-0.0010194595660959968
7034.859216357462,-0.0009045553111456859
7034.860216129386,-0.0007885024731570739
7034.861215901308,-0.0006713194379388033
7034.862215673231,-0.0005530249796016317
7034.863215445153,-0.00043363825596304213
7034.864215217076,-0.0003131788040068427
7034.865214988999,-0.00019166653540646437
7034.866214760922,-6.912173211968561e-05
7034.867214532845,5.443495793851151e-05
7034.868214304767,0.0001789825251393294
7034.86921407669,0.00030449960229526755
7034.870213848612,0.0004309644687235638
7034.871213620536,0.0005583550542156928
7034.872213392458,0.000686648942911759
7034.873213164381,0.0008158233770796959
7034.874212936304,0.000945855260800199
7034.875212708226,0.0010767211635592708
7034.876212480149,0.0012083973237511246
7034.877212252072,0.0013408596520949698
7034.878212023995,0.0014740837349698863
7034.879211795917,0.0016080448376725883
7034.88021156784,0.0017427179076034017
7034.881211339763,0.0018780775773862433
7034.882211111686,0.0020140981679288056
7034.883210883609,0.002150753691429525
7034.884210655531,0.0022880178543382354
7034.885210427454,0.0024258640602776815
7034.886210199376,0.0025642654129332796
7034.887209971299,0.0027031947189186806
7034.888209743222,0.0028426244906247767
7034.889209515145,0.002982526949059837
7034.890209287068,0.003122874026688461
7034.89120905899,0.003263637370276984
7034.892208830914,0.003404788343752898
7034.893208602836,0.0035462980310857735
7034.894208374759,0.0036881372391970534
7034.895208146681,0.003830276500905962
7034.896207918604,0.003972686077918655
7034.897207690527,0.00411533596386757
7034.89820746245,0.00425819588740785
7034.899207234373,0.004401235315377514
7034.900207006295,0.004544423456027994
7034.901206778218,0.0046877292623314516
7034.90220655014,0.004831121435371182
7034.903206322064,0.004974568427821216
7034.904206093986,0.005118038447521094
7034.905205865909,0.005261499461151576
7034.906205637832,0.0054049191980169034
7034.907205409754,0.005548265153939011
7034.908205181677,0.005691504595268928
7034.9092049536,0.005834604563020398
7034.910204725523,0.005977531877130618
7034.911204497445,0.00612025314085278
7034.912204269368,0.006262734745285002
7034.913204041291,0.0064049428740400585
7034.914203813214,0.0065468435080601965
7034.915203585137,0.006688402430581209
7034.916203357059,0.006829585232249755
7034.917203128982,0.006970357316397814
7034.918202900904,0.0071106839044780094
7034.919202672828,0.007250530041663354
7034.92020244475,0.007389860602614849
7034.921202216673,0.007528640297420164
7034.922201988596,0.007666833677706431
7034.923201760518,0.007804405142929977
7034.924201532442,0.00794131894684553
7034.925201304364,0.008077539204157283
7034.926201076287,0.008213029897353888
7034.927200848209,0.00834775488372929
7034.928200620132,0.008481677902591134
7034.929200392055,0.008614762582658296
7034.930200163978,0.00874697244964897
7034.931199935901,0.008878270934060626
7034.932199707823,0.009008621379143116
7034.933199479746,0.009137987049066064
7034.934199251668,0.009266331137281725
7034.935199023592,0.009393616775084435
7034.936198795514,0.009519807040367789
7034.937198567437,0.009644864966580718
7034.93819833936,0.009768753551883686
7034.939198111282,0.009891435768506256
7034.940197883205,0.010012874572307243
7034.941197655128,0.01013303291253867
7034.942197427051,0.010251873741814542
7034.943197198973,0.010369360026285173
7034.944196970896,0.010485454756017372
7034.94519674282,0.010600120955580291
7034.946196514742,0.010713321694836147
7034.947196286665,0.010825020099934505
7034.948196058587,0.010935179364508328
7034.94919583051,0.01104376276106956
7034.950195602432,0.011150733652601713
7034.951195374356,0.011256055504346605
7034.952195146278,0.01135969189578232
7034.953194918201,0.011461606532789234
7034.954194690124,0.011561763260000914
7034.955194462046,0.011660126073336666
7034.95619423397,0.011756659132712509
7034.957194005892,0.01185132677492729
7034.958193777815,0.011944093526720618
7034.959193549737,0.012034924117999207
7034.96019332166,0.01212378349522812
7034.961193093583,0.012210636834983283
7034.962192865506,0.012295449557661512
7034.963192637429,0.012378187341344153
7034.964192409351,0.012458816135810373
7034.965192181274,0.012537302176695946
7034.966191953196,0.012613611999793302
7034.96719172512,0.012687712455488494
7034.968191497042,0.01275957072333062
7034.969191268965,0.012829154326729108
7034.970191040888,0.012896431147774183
7034.97119081281,0.012961369442175772
7034.972190584733,0.013023937854315926
7034.973190356656,0.013084105432409827
7034.974190128579,0.013141841643770281
7034.975189900501,0.013197116390170485
7034.976189672424,0.013249900023299696
7034.977189444348,0.013300163360306304
7034.97818921627,0.013347877699422556
7034.979188988193,0.013393014835665058
7034.980188760115,0.01343554707660494
7034.981188532038,0.013475447258201273
7034.98218830396,0.013512688760691102
7034.983188075884,0.013547245524529142
7034.984187847806,0.013579092066369909
7034.985187619729,0.01360820349508483
7034.986187391652,0.013634555527806439
7034.987187163574,0.013658124505991605
7034.988186935498,0.013678887411495373
7034.98918670742,0.013696821882646633
7034.990186479343,0.013711906230316586
7034.991186251265,0.013724119453970668
7034.992186023188,0.013733441257694176
7034.993185795111,0.013739852066181698
7034.994185567034,0.013743333040680105
7034.995185338957,0.013743866094874576
7034.996185110879,0.013741433910706907
7034.997184882802,0.013736019954115063
7034.998184654725,0.013727608490682625
7034.999184426648,0.013716184601186482
7035.00018419857,0.013701734197030932
7035.001183970493,0.013684244035556074
7035.002183742416,0.013663701735208165
7035.003183514338,0.013640095790559428
7035.004183286262,0.013613415587164559
7035.005183058184,0.013583651416240997
7035.006182830107,0.013550794489159839
7035.007182602029,0.013514836951734006
7035.008182373952,0.013475771898290233
7035.009182145876,0.01343359338551116
7035.010181917798,0.01338829644603365
7035.011181689721,0.013339877101789261
7035.012181461643,0.013288332377072635
7035.013181233566,0.013233660311323432
7035.014181005488,0.013175859971607261
7035.015180777412,0.013114931464780993
7035.016180549334,0.013050875949327712
7035.017180321257,0.012983695646846554
7035.01818009318,0.012913393853182622
7035.019179865102,0.012839974949182197
7035.020179637026,0.012763444411058422
7035.021179408948,0.012683808820352718
7035.022179180871,0.01260107587347722
7035.023178952793,0.012515254390823587
7035.024178724716,0.012426354325423609
7035.025178496639,0.012334386771147156
7035.026178268562,0.012239363970423193
7035.027178040485,0.01214129932146966
7035.028177812407,0.012040207385018237
7035.02917758433,0.011936103890520204
7035.030177356253,0.011829005741819859
7035.031177128176,0.01171893102228222
7035.032176900098,0.011605898999362053
7035.033176672021,0.011489930128601528
7035.034176443944,0.011371046057044117
7035.035176215866,0.011249269626052643
7035.03617598779,0.011124624873519631
7035.037175759712,0.010997137035458416
7035.038175531635,0.010866832546963717
7035.039175303557,0.010733739042530797
7035.04017507548,0.0105978853557226
7035.041174847403,0.01045930151817478
7035.042174619326,0.010318018757928931
7035.043174391249,0.010174069497084891
7035.044174163171,0.010027487348763516
7035.045173935094,0.00987830711337194
7035.046173707016,0.009726564774163952
7035.04717347894,0.009572297492088789
7035.048173250862,0.009415543599922298
7035.049173022785,0.009256342595675192
7035.050172794708,0.009094735135273846
7035.05117256663,0.00893076302450978
7035.052172338554,0.008764469210254708
7035.053172110476,0.008595897770938722
7035.054171882399,0.008425093906289698
7035.055171654321,0.008252103926332525
7035.056171426244,0.0080769752396471
7035.057171198167,0.007899756340884257
7035.05817097009,0.0077204967975390195
7035.059170742013,0.007539247235980642
7035.060170513935,0.007356059326739077
7035.061170285858,0.007170985769047626
7035.062170057781,0.006984080274641825
7035.063169829704,0.006795397550815008
7035.064169601626,0.006604993282731574
7035.065169373549,0.006412924114999633
7035.066169145472,0.00621924763250543
7035.067168917394,0.00602402234051265
7035.068168689318,0.005827307644030287
7035.06916846124,0.0056291638264533254
7035.070168233163,0.005429652027480967
7035.071168005085,0.0052288342203176555
7035.072167777008,0.005026773188162771
7035.073167548931,0.0048235324999955555
7035.074167320854,0.0046191764856626715
7035.075167092777,0.0044137702102767275
7035.076166864699,0.004207379447935137
7035.077166636622,0.004000070654769772
7035.078166408544,0.0037919109413390166
7035.079166180468,0.003582968044374911
7035.08016595239,0.0033733102978991667
7035.081165724313,0.0031630066037228043
7035.082165496236,0.002952126401345026
7035.083165268159,0.002740739637267694
7035.084165040082,0.002528916733742461
7035.085164812004,0.0023167285569681896
7035.086164583927,0.002104246384756871
7035.087164355849,0.0018915418736867853
7035.088164127772,0.0016786870257622347
7035.089163899695,0.0014657541545997574
7035.090163671618,0.0012528158511612905
7035.091163443541,0.001039944949055248
7035.092163215463,0.0008272144894268668
7035.093162987386,0.0006146976854595058
7035.094162759309,0.0004024678865088761
7035.095162531232,0.00019059854189257543
7035.096162303154,-2.0836835642221305e-05
7035.097162075077,-0.00023176470674948017
7035.098161847,-0.0004421115425893614
7035.099161618922,-0.0006518038621828676
7035.100161390846,-0.0008607682699906929
7035.101161162768,-0.0010689314936902549
7035.102160934691,-0.0012762204221243177
7035.103160706613,-0.0014825621433940835
7035.104160478536,-0.0016878839830691207
7035.105160250459,-0.0018921135424860222
7035.106160022382,-0.0020951787371072564
7035.107159794305,-0.0022970078349113087
7035.108159566227,-0.0024975294947849162
7035.10915933815,-0.0026966728048879655
7035.110159110072,-0.0028943673209614537
7035.111158881996,-0.0030905431045487567
7035.112158653918,-0.003285130761100348
7035.113158425841,-0.0034780614779320166
7035.114158197764,-0.0036692670620065678
7035.115157969687,-0.003858679977508955
7035.11615774161,-0.004046233383184797
7035.117157513532,-0.004231861169412214
7035.118157285455,-0.004415497994976931
7035.119157057377,-0.0045970793235205155
7035.1201568293,-0.004776541459631633
7035.121156601223,-0.004953821584550075
7035.122156373146,-0.005128857791453418
7035.123156145069,-0.00530158912029622
7035.124155916991,-0.0054719555921719475
7035.125155688914,-0.005639898243168317
7035.126155460837,-0.005805359157687477
7035.12715523276,-0.005968281501203483
7035.128155004682,-0.006128609552430677
7035.129154776605,-0.006286288734877823
7035.130154548528,-0.006441265647763976
7035.13115432045,-0.006593488096273028
7035.132154092374,-0.006742905121124569
7035.133153864296,-0.006889467027439147
7035.134153636219,-0.007033125412876213
7035.135153408141,-0.007173833195023083
7035.136153180065,-0.007311544638013256
7035.137152951987,-0.007446215378352423
7035.13815272391,-0.007577802449930625
7035.139152495833,-0.007706264308199159
7035.140152267755,-0.00783156085349114
7035.141152039678,-0.00795365345346491
7035.142151811601,-0.008072504964649794
7035.143151583524,-0.008188079753074024
7035.144151355446,-0.008300343713954843
7035.145151127369,-0.008409264290431102
7035.146150899292,-0.00851481049131893
7035.147150671215,-0.008616952907871359
7035.148150443138,-0.008715663729523237
7035.14915021506,-0.008810916758603241
7035.150149986983,-0.008902687423995439
7035.151149758905,-0.008990952793733575
7035.152149530828,-0.009075691586512124
7035.153149302751,-0.009156884182099003
7035.154149074674,-0.009234512630635808
7035.155148846597,-0.009308560660812449
7035.156148618519,-0.009379013686904084
7035.157148390442,-0.009445858814659265
7035.158148162365,-0.009509084846029352
7035.159147934288,-0.009568682282730362
7035.16014770621,-0.009624643328629692
7035.161147478133,-0.009676961890951429
7035.162147250056,-0.009725633580295408
7035.163147021978,-0.009770655709466546
7035.164146793902,-0.009812027291112625
7035.165146565824,-0.009849749034170208
7035.166146337747,-0.009883823339120131
7035.167146109669,-0.009914254292055766
7035.168145881593,-0.009941047657569044
7035.169145653515,-0.009964210870461076
7035.170145425438,-0.009983753026286044
7035.171145197361,-0.009999684870738915
7035.172144969283,-0.010012018787899393
7035.173144741206,-0.010020768787346382
7035.174144513129,-0.010025950490159207
7035.175144285052,-0.01002758111382368
7035.176144056974,-0.010025679456063032
7035.177143828897,-0.010020265877615633
7035.17814360082,-0.010011362283983376
7035.179143372743,-0.00999899210617646
7035.180143144666,-0.009983180280482284
7035.181142916588,-0.009963953227287978
7035.182142688511,-0.009941338828987924
7035.183142460433,-0.009915366407009405
7035.184142232356,-0.009886066697991087
7035.185142004279,-0.009853471829150612
7035.186141776202,-0.009817615292878874
7035.187141548125,-0.009778531920599791
7035.188141320047,-0.009736257855935284
7035.18914109197,-0.009690830527215939
7035.190140863893,-0.009642288619378213
7035.191140635816,-0.009590672045289132
7035.192140407738,-0.009536021916539133
7035.193140179661,-0.00947838051374312
7035.194139951584,-0.009417791256388865
7035.195139723506,-0.009354298672270773
7035.19613949543,-0.00928794836654572
7035.197139267352,-0.00921878699044621
7035.198139039275,-0.009146862209684642
7035.199138811197,-0.009072222672580873
7035.200138583121,-0.008994917977943707
7035.201138355043,-0.008914998642735334
7035.202138126966,-0.008832516069546133
7035.203137898889,-0.008747522513905663
7035.204137670811,-0.008660071051454082
7035.205137442734,-0.008570215544996736
7035.206137214657,-0.008478010611463218
7035.20713698658,-0.008383511588790835
7035.208136758502,-0.00828677450275126
7035.209136530425,-0.008187856033738072
7035.210136302348,-0.008086813483532016
7035.211136074271,-0.007983704742060034
7035.212135846194,-0.007878588254163486
7035.213135618116,-0.007771522986390464
7035.214135390039,-0.007662568393826624
7035.215135161961,-0.00755178438697856
7035.216134933884,-0.007439231298723451
7035.217134705807,-0.007324969851338403
7035.21813447773,-0.007209061123622714
7035.219134249653,-0.007091566518126063
7035.220134021575,-0.006972547728495474
7035.221133793499,-0.00685206670695368
7035.222133565421,-0.006730185631921384
7035.223133337344,-0.006606966875795709
7035.224133109266,-0.0064824729728969865
7035.225132881189,-0.006356766587595844
7035.226132653112,-0.006229910482632415
7035.227132425035,-0.006101967487639288
7035.228132196958,-0.00597300046787966
7035.22913196888,-0.005843072293212
7035.230131740803,-0.005712245807292407
7035.231131512725,-0.005580583797025758
7035.232131284649,-0.005448148962276731
7035.233131056571,-0.005315003885851752
7035.234130828494,-0.005181211003762961
7035.235130600417,-0.0050468325757853875
7035.236130372339,-0.004911930656318634
7035.237130144262,-0.0047765670655645345
7035.238129916185,-0.004640803361032435
7035.239129688108,-0.004504700809383915
7035.24012946003,-0.004368320358628924
7035.241129231953,-0.0042317226106853584
7035.242129003876,-0.004094967794314176
7035.243128775799,-0.003958115738442011
7035.244128547722,-0.003821225845883178
7035.245128319644,-0.003684357067472681
7035.246128091567,-0.003547567876621646
7035.247127863489,-0.0034109162443062085
7035.248127635412,-0.003274459614500631
7035.249127407335,-0.0031382548800650343
7035.250127179258,-0.003002358359097759
7035.251126951181,-0.0028668257717620153
7035.252126723103,-0.0027317122175961254
7035.253126495027,-0.002597072153316316
7035.254126266949,-0.002462959371120702
7035.255126038872,-0.0023294269775027496
7035.256125810794,-0.0021965273725821238
7035.257125582717,-0.002064312229960427
7035.25812535464,-0.0019328324771088609
7035.259125126563,-0.0018021382762943262
7035.260124898486,-0.001672279006049939
7035.261124670408,-0.0015433032431953742
7035.262124442331,-0.0014152587454119166
7035.263124214253,-0.0012881924343766421
7035.264123986177,-0.0011621503794597603
7035.265123758099,-0.001037177781988827
7035.266123530022,-0.0009133189600832722
7035.267123301945,-0.0007906173340624423
7035.268123073867,-0.0006691154124301179
7035.26912284579,-0.0005488547784381858
7035.270122617713,-0.00042987607723182514
7035.271122389636,-0.00031221900357819636
7035.272122161558,-0.0001959222901802207
7035.273121933481,-8.102369657661533e-05
7035.274121705404,3.244000137109119e-05
7035.275121477327,0.00014443302140428377
7035.27612124925,0.0002549205842058988
7035.277121021172,0.0003638689221526034
7035.278120793095,0.0004712452874816056
7035.279120565017,0.0005770179598736566
7035.280120336941,0.0006811562534542981
7035.281120108863,0.0007836305232159088
7035.282119880786,0.0008844121708636021
7035.283119652709,0.000983473650088498
7035.284119424631,0.0010807884712722901
7035.285119196555,0.0011763312056273566
7035.286118968477,0.001270077488776881
7035.2871187404,0.0013620040237795783
7035.288118512322,0.0014520885836036429
7035.289118284245,0.0015403100130544757
7035.290118056168,0.0016266482301606018
7035.291117828091,0.0017110842270219597
7035.292117600014,0.0017936000701244672
7035.293117371936,0.0018741789001244572
7035.294117143859,0.0019528049311062566
7035.295116915781,0.0020294634493158805
7035.296116687705,0.002104140811373551
7035.297116459627,0.0021768244419675216
7035.29811623155,0.0022475028310315207
7035.299116003473,0.002316165530407984
7035.300115775395,0.002382803149999196
7035.301115547318,0.0024474073534084535
7035.302115319241,0.002509970853073438
7035.303115091164,0.002570487404894148
7035.304114863086,0.0026289518023579986
7035.305114635009,0.002685359870165035
7035.3061144069325,0.0027397084573566235
7035.307114178855,0.0027919954299514614
7035.308113950778,0.002842219663093269
7035.3091137227,0.0028903810327150607
7035.310113494623,0.0029364804067254537
7035.311113266545,0.0029805196357230767
7035.312113038469,0.0030225015432457634
7035.313112810391,0.0030624299155618626
7035.314112582314,0.003100309491011631
7035.315112354237,0.0031361459489072513
7035.316112126159,0.0031699458980005537
7035.317111898083,0.0032017168645279617
7035.318111670005,0.0032314672798426287
7035.319111441928,0.0032592064676441337
7035.32011121385,0.003284944630816516
7035.321110985773,0.00330869283788585
7035.322110757696,0.0033304630091089723
7035.323110529619,0.0033502679022053452
7035.324110301542,0.003368121097744428
7035.325110073464,0.0033840369842012127
7035.326109845387,0.0033980307426928784
7035.327109617309,0.0034101183314097267
7035.328109389233,0.0034203164697537325
7035.329109161155,0.003428642622198164
7035.330108933078,0.0034351149818817937
7035.331108705001,0.003439752453951245
7035.332108476923,0.003442574638665027
7035.333108248846,0.0034436018142728147
7035.334108020769,0.003442854919683553
7035.335107792692,0.0034403555369359744
7035.336107564614,0.003436125873485143
7035.337107336537,0.0034301887443186243
7035.3381071084605,0.003422567553915902
7035.339106880383,0.0034132862780646275
7035.340106652306,0.003402369445547248
7035.341106424228,0.0033898421197114973
7035.342106196151,0.003375729879938156
7035.343105968073,0.003360058803019433
7035.344105739997,0.0033428554444612877
7035.345105511919,0.003324146819723018
7035.346105283842,0.0033039603854075118
7035.347105055765,0.0032823240204156215
7035.348104827687,0.0032592660070781183
7035.349104599611,0.003234815012278689
7035.350104371533,0.003209000068581301
7035.351104143456,0.003181850555375081
7035.352103915378,0.003153396180049625
7035.353103687301,0.0031236669592133873
7035.354103459224,0.0030926931999675205
7035.355103231147,0.0030605054812472407
7035.35610300307,0.0030271346352424757
7035.357102774992,0.0029926117289092394
7035.358102546915,0.002956968045582822
7035.359102318838,0.002920235066703529
7035.360102090761,0.0028824444536653055
7035.361101862683,0.0028436280297971985
7035.362101634606,0.002803817762487171
7035.363101406529,0.00276304574545736
7035.364101178451,0.002721344181199411
7035.365100950375,0.0026787453635781014
7035.366100722297,0.0026352816606110634
7035.36710049422,0.002590985497432118
7035.368100266142,0.002545889339445467
7035.369100038065,0.0025000256756778174
7035.3700998099885,0.0024534270023353817
7035.371099581911,0.0024061258065725716
7035.372099353834,0.002358154550479075
7035.373099125756,0.0023095456552918443
7035.374098897679,0.0022603314858383274
7035.375098669601,0.0022105443352170152
7035.376098441525,0.0021602164097210743
7035.377098213447,0.0021093798140104816
7035.37809798537,0.0020580665365376952
7035.379097757293,0.002006308435231485
7035.380097529215,0.001954137223443165
7035.381097301139,0.0019015844561590751
7035.382097073061,0.001848681516482794
7035.383096844984,0.001795459602390233
7035.384096616906,0.0017419497137604364
7035.385096388829,0.0016881826396846036
7035.386096160752,0.001634188946055559
7035.387095932675,0.0015799989634395957
7035.388095704598,0.0015256427752323434
7035.38909547652,0.0014711502061000258
7035.390095248443,0.0014165508107072
7035.391095020366,0.0013618738627317953
7035.392094792289,0.0013071483441679788
7035.393094564211,0.0012524029349171033
7035.394094336134,0.0011976660026667009
7035.395094108057,0.001142965593057229
7035.396093879979,0.001088329420136014
7035.397093651903,0.001033784857097606
7035.398093423825,0.0009793589273095562
7035.399093195748,0.0009250782956224195
7035.40009296767,0.0008709692599626293
7035.401092739593,0.0008170577432067288
7035.4020925115165,0.0007633692853353297
7035.403092283439,0.0007099290358650828
7035.404092055362,0.0006567617465569064
7035.405091827284,0.000603891764398719
7035.406091599207,0.0005513430248609796
7035.407091371129,0.0004991390454234233
7035.408091143053,0.0004473029193715039
7035.409090914975,0.00039585730986119974
7035.410090686898,0.0003448244442509897
7035.411090458821,0.000294226108699954
7035.412090230743,0.00024408364303106958
7035.413090002667,0.00019441793585883642
7035.414089774589,0.00014524941998037344
7035.415089546512,9.659806802906885e-05
7035.416089318434,4.848338838978063e-05
7035.417089090357,9.244213744879438e-07
7035.41808886228,-4.606026434278897e-05
7035.419088634203,-9.245257503305493e-05
7035.420088406126,-0.00013823489496271005
7035.421088178048,-0.00018339008918859893
7035.422087949971,-0.00022790150609916136
7035.423087721894,-0.0002717529797031405
7035.424087493817,-0.00031492883166732877
7035.425087265739,-0.0003574138731048491
7035.426087037662,-0.0003991934061154858
7035.427086809585,-0.00044025322507958777
7035.428086581507,-0.0004805796177070675
7035.429086353431,-0.0005201593658430234
7035.430086125353,-0.0005589797460315369
7035.431085897276,-0.0005970285298392703
7035.432085669198,-0.0006342939839406297
7035.433085441121,-0.0006707648699664549
7035.434085213044,-0.0007064304441184351
7035.435084984967,-0.0007412804565516906
7035.43608475689,-0.0007753051505282057
7035.437084528812,-0.0008084952613440062
7035.438084300735,-0.0008408420150331372
7035.439084072657,-0.0008723371268516038
7035.440083844581,-0.0009029727995444662
7035.441083616503,-0.0009327417213992454
7035.442083388426,-0.0009616370640887121
7035.443083160349,-0.0009896524803060074
7035.444082932272,-0.0010167821011949248
7035.445082704195,-0.001043020533578058
7035.446082476117,-0.001068362856985412
7035.44708224804,-0.001092804620486001
7035.448082019962,-0.0011163418393249057
7035.449081791885,-0.0011389709913682488
7035.450081563808,-0.001160689013358564
7035.451081335731,-0.0011814932969830753
7035.452081107654,-0.0012013816847574676
7035.453080879576,-0.0012203524657278
7035.454080651499,-0.0012384043709932884
7035.455080423422,-0.0012555365690527596
7035.456080195345,-0.0012717486609776655
7035.457079967267,-0.0012870406754146547
7035.45807973919,-0.0013014130634207979
7035.459079511113,-0.001314866693134695
7035.460079283035,-0.0013274028442868389
7035.461079054959,-0.001339023202552794
7035.462078826881,-0.001349729853752979
7035.463078598804,-0.0013595252779031086
7035.464078370726,-0.0013684123431196228
7035.465078142649,-0.001376394299384677
7035.466077914572,-0.0013834747721754395
7035.467077686495,-0.0013896577559625361
7035.468077458418,-0.0013949476075825083
7035.46907723034,-0.0013993490394891405
7035.470077002263,-0.0014028671128884704
7035.471076774185,-0.0014055072307622555
7035.472076546109,-0.001407275130784644
7035.473076318031,-0.0014081768781368015
7035.474076089954,-0.0014082188582242913
7035.475075861877,-0.0014074077693020661
7035.4760756338,-0.0014057506150120097
7035.477075405723,-0.001403254696838052
7035.478075177645,-0.0013999276064839692
7035.479074949568,-0.001395777218179058
7035.48007472149,-0.0013908116809169635
7035.481074493413,-0.0013850394106330111
7035.482074265336,-0.0013784690823254472
7035.483074037259,-0.001371109622126051
7035.484073809182,-0.0013629701993256207
7035.485073581104,-0.0013540602183598931
7035.486073353027,-0.0013443893107615039
7035.48707312495,-0.001333967327083673
7035.488072896873,-0.0013228043288013806
7035.489072668795,-0.0013109105801958963
7035.490072440718,-0.0012982965402286587
7035.491072212641,-0.0012849728544106513
7035.492071984563,-0.001270950346673643
7035.493071756487,-0.0012562400112498826
7035.494071528409,-0.0012408530045670946
7035.495071300332,-0.001224800637165839
7035.496071072254,-0.0012080943656464526
7035.497070844178,-0.0011907457846528572
7035.4980706161,-0.0011727666189004873
7035.499070388023,-0.0011541687152554973
7035.500070159946,-0.0011349640348722629
7035.501069931868,-0.0011151646453960128
7035.502069703791,-0.0010947827132372187
7035.503069475714,-0.0010738304959241529
7035.504069247637,-0.001052320334539803
7035.505069019559,-0.0010302646462491333
7035.506068791482,-0.001007675916922498
7035.507068563405,-0.000984566693860853
7035.508068335328,-0.0009609495786282259
7035.509068107251,-0.0009368372199966883
7035.510067879173,-0.0009122423070088021
7035.511067651096,-0.0008871775621621772
7035.512067423018,-0.0008616557347204143
7035.513067194941,-0.0008356895941543052
7035.514066966864,-0.000809291923716774
7035.515066738787,-0.000782475514154656
7035.51606651071,-0.0007552531575600521
7035.517066282632,-0.0007276376413636705
7035.518066054555,-0.0006996417424722708
7035.519065826478,-0.0006712782215520584
7035.520065598401,-0.0006425598174595969
7035.521065370323,-0.0006134992418215309
7035.522065142246,-0.0005841091737640879
7035.523064914169,-0.0005544022547929948
7035.524064686091,-0.0005243910838240893
7035.525064458015,-0.0004940882123645721
7035.526064229937,-0.0004635061398445386
7035.52706400186,-0.00043265730909816636
7035.528063773782,-0.00040155410199370627
7035.529063545706,-0.0003702088352112351
7035.530063317628,-0.00033863375616697124
7035.531063089551,-0.00030684103908282175
7035.532062861474,-0.0002748427811997156
7035.533062633396,-0.0002426509991331689
7035.534062405319,-0.00021027762536941904
7035.535062177242,-0.00017773450490035382
7035.536061949165,-0.00014503339199534531
7035.537061721087,-0.00011218594710798921
7035.53806149301,-7.920373391564986e-05
7035.539061264933,-4.609821648964175e-05
7035.540061036856,-1.2880756593841254e-05
7035.541060808779,2.0437388890477104e-05
7035.542060580701,5.384507041576105e-05
7035.543060352624,8.733124809740291e-05
7035.544060124546,0.00012088499392317051
7035.545059896469,0.0001544954938449099
7035.546059668392,0.00018815204975452686
7035.547059440315,0.00022184408134617663
7035.548059212238,0.0002555611278664926
7035.54905898416,0.000289292849754578
7035.550058756083,0.0003230290301733878
7035.551058528006,0.0003567595764340547
7035.552058299929,0.0003904745213146817
7035.553058071851,0.00042416402427514145
7035.554057843774,0.00045781837256949405
7035.555057615697,0.0004914279822577598
7035.556057387619,0.0005249833991189406
7035.557057159543,0.0005584752994673544
7035.558056931465,0.0005918944908744909
7035.559056703388,0.0006252319127986985
7035.56005647531,0.0006584786371250572
7035.561056247234,0.0006916258686177972
7035.562056019156,0.0007246649452875848
7035.563055791079,0.0007575873386759604
7035.564055563002,0.0007903846540591521
7035.565055334924,0.0008230486305734206
7035.566055106847,0.0008555711412640034
7035.56705487877,0.0008879441930596175
7035.568054650693,0.0009201599266743631
7035.569054422615,0.000952210616438734
7035.570054194538,0.0009840886700613072
7035.571053966461,0.0010157866283225462
7035.572053738384,0.0010472971647020402
7035.573053510307,0.001078613084940394
7035.574053282229,0.0011097273265369262
7035.575053054152,0.0011406329581842786
7035.576052826074,0.001171323179141008
7035.577052597997,0.001201791318543198
7035.57805236992,0.0012320308346560915
7035.579052141843,0.001262035314066707
7035.580051913766,0.0012917984708183453
7035.581051685688,0.001321314145487835
7035.582051457612,0.0013505763042062713
7035.583051229534,0.001379579037623885
7035.584051001457,0.0014083165598195526
7035.585050773379,0.001436783207155316
7035.586050545302,0.0014649734370761518
7035.587050317225,0.0014928818268551388
7035.588050089148,0.0015205030722841382
7035.589049861071,0.001547831986310127
7035.590049632993,0.0015748634976173992
7035.591049404916,0.0016015926491559532
7035.592049176838,0.001628014596616485
7035.593048948762,0.0016541246068524935
7035.594048720684,0.0016799180562500878
7035.595048492607,0.001705390429046145
7035.59604826453,0.0017305373155955337
7035.597048036452,0.0017553544105881752
7035.598047808375,0.001779837511216784
7035.599047580298,0.0018039825152962059
7035.600047352221,0.001827785419335361
7035.601047124143,0.0018512423165628928
7035.602046896066,0.0018743493949077387
7035.603046667989,0.0018971029349359556
7035.604046439912,0.0019194993077452528
7035.605046211835,0.0019415349728188244
7035.606045983757,0.0019632064758402165
7035.60704575568,0.0019845104464711275
7035.608045527602,0.002005443596094226
7035.609045299525,0.0020260027155232932
7035.610045071448,0.002046184672683213
7035.611044843371,0.0020659864102625836
7035.612044615294,0.002085404943341954
7035.613044387216,0.002104437357000905
7035.61404415914,0.002123080803907363
7035.615043931062,0.0021413325018926326
7035.616043702985,0.002159189731515665
7035.617043474907,0.0021766498336200264
7035.61804324683,0.002193710206886942
7035.619043018753,0.002210368305387628
7035.620042790676,0.0022266216361379113
7035.621042562599,0.0022424677566578637
7035.622042334521,0.0022579042725388667
7035.623042106444,0.002272928835020214
7035.624041878366,0.0022875391385770672
7035.62504165029,0.002301732918521378
7035.626041422212,0.0023155079486172347
7035.627041194135,0.002328862038712019
7035.628040966058,0.0023417930323847026
7035.62904073798,0.0023542988046126073
7035.630040509903,0.002366377259457927
7035.631040281826,0.002378026327775321
7035.632040053749,0.0023892439649418544
7035.633039825671,0.0024000281486105403
7035.634039597594,0.0024103768764886695
7035.635039369517,0.0024202881641420884
7035.63603914144,0.0024297600428265357
7035.637038913363,0.0024387905573471603
7035.638038685285,0.002447377763947349
7035.639038457208,0.0024555197282280254
7035.64003822913,0.0024632145230986144
7035.641038001054,0.0024704602267609185
7035.642037772976,0.002477254920727186
7035.643037544899,0.0024835966878737265
7035.644037316822,0.002489483610531535
7035.645037088744,0.002494913768615474
7035.646036860668,0.0024998852377937073
7035.64703663259,0.0025043960876991764
7035.648036404513,0.002508444380185023
7035.649036176435,0.0025120281676259616
7035.650035948358,0.002515145491267658
7035.651035720281,0.002517794379626239
7035.652035492204,0.0025199728469400854
7035.653035264127,0.0025216788916760866
7035.654035036049,0.002522910495092547
7035.655034807972,0.00252366561986095
7035.656034579894,0.0025239422087487942
7035.657034351818,0.002523738183365776
7035.65803412374,0.0025230514429756346
7035.659033895663,0.002521879863376104
7035.660033667586,0.002520221295849547
7035.661033439508,0.002518073566187038
7035.662033211431,0.002515434473788832
7035.663032983354,0.0025123017908443507
7035.664032755277,0.0025086732615949227
7035.665032527199,0.00250454660168261
7035.666032299122,0.002499919497588495
7035.6670320710455,0.002494789606163788
7035.668031842968,0.0024891545542570807
7035.669031614891,0.002483011938441011
7035.670031386813,0.0024763593248415365
7035.671031158736,0.002469194249072949
7035.672030930658,0.0024615142162816915
7035.673030702582,0.0024533167013020252
7035.674030474504,0.0024445991489265495
7035.675030246427,0.002435358974294577
7035.67603001835,0.002425593563401341
7035.677029790272,0.002415300273730979
7035.678029562196,0.002404476435016234
7035.679029334118,0.002393119350127774
7035.680029106041,0.002381226296095997
7035.681028877963,0.0023687945252681797
7035.682028649886,0.0023558212666037887
7035.683028421809,0.0023423037271107436
7035.684028193732,0.0023282390934253644
7035.685027965655,0.002313624533538671
7035.686027737577,0.002298457198671615
7035.6870275095,0.0022827342253017163
7035.688027281422,0.0022664527373434528
7035.689027053346,0.0022496098484846364
7035.690026825268,0.002232202664680893
7035.691026597191,0.0022142282868102556
7035.692026369114,0.002195683813489779
7035.693026141036,0.002176566344056021
7035.694025912959,0.0021568729817111427
7035.695025684882,0.002136600836836321
7035.696025456805,0.0021157470304740567
7035.697025228727,0.002094308697980821
7035.69802500065,0.0020722829928512885
7035.6990247725735,0.0020496670907151275
7035.700024544496,0.0020264581935069688
7035.701024316419,0.0020026535338097447
7035.702024088341,0.001978250379371103
7035.703023860264,0.0019532460377920573
7035.704023632186,0.001927637861386487
7035.70502340411,0.0019014232522095115
7035.706023176032,0.001874599667252193
7035.707022947955,0.0018471646237994417
7035.708022719878,0.0018191157049474225
7035.7090224918,0.0017904505652761953
7035.710022263724,0.0017611669366727365
7035.711022035646,0.0017312626342989193
7035.712021807569,0.0017007355626984379
7035.713021579491,0.0016695837220360914
7035.714021351414,0.0016378052144622797
7035.715021123337,0.0016053982505950253
7035.71602089526,0.0015723611561113072
7035.717020667183,0.0015386923784389533
7035.718020439105,0.0015043904935397874
7035.719020211028,0.0014694542127741796
7035.720019982951,0.0014338823898365786
7035.721019754874,0.0013976740277510528
7035.722019526796,0.0013608282859153232
7035.723019298719,0.00132334448718123
7035.724019070642,0.0012852221249590725
7035.725018842564,0.0012464608703327848
7035.726018614488,0.001207060579172435
7035.72701838641,0.0011670212992300562
7035.728018158333,0.0011263432772043091
7035.729017930255,0.0010850269657589388
7035.730017702178,0.0010430730304794179
7035.7310174741015,0.0010004823567515819
7035.732017246024,0.0009572560565454431
7035.733017017947,0.0009133954750867766
7035.734016789869,0.0008689021973985367
7035.735016561792,0.0008237780546937829
7035.736016333714,0.0007780251306015955
7035.737016105638,0.0007316457672075
7035.73801587756,0.0006846425708901514
7035.739015649483,0.0006370184179364655
7035.740015421406,0.0005887764599179764
7035.741015193328,0.0005399201288119473
7035.742014965252,0.0004904531418516383
7035.743014737174,0.0004403795060911259
7035.744014509097,0.00038970352267114457
7035.745014281019,0.00033842979077355483
7035.746014052942,0.000286563211253215
7035.747013824865,0.000234108989937223
7035.748013596788,0.00018107264058269372
7035.749013368711,0.00012745998748542968
7035.750013140633,7.32771677330267e-05
7035.751012912556,1.853063309712129e-05
7035.752012684479,-3.677284843936779e-05
7035.753012456402,-9.262619152302246e-05
7035.754012228324,-0.00014902199264063228
7035.755012000247,-0.00020595252970060241
7035.75601177217,-0.0002634097619847095
7035.757011544092,-0.00032138533046872507
7035.758011316016,-0.00037987055850932357
7035.759011087938,-0.0004388564528936521
7035.760010859861,-0.0004983337052469853
7035.761010631783,-0.0005582926937930441
7035.762010403706,-0.0006187234854608183
7035.7630101756295,-0.0006796158383310917
7035.764009947552,-0.0007409592044153172
7035.765009719475,-0.000802742732759004
7035.766009491397,-0.0008649552728613538
7035.76700926332,-0.0009275853784025062
7035.768009035242,-0.000990621311269426
7035.769008807166,-0.0010540510458711676
7035.770008579088,-0.0011178622737340197
7035.771008351011,-0.001182042408366845
7035.772008122934,-0.0012465785903868223
7035.773007894856,-0.0013114576928957193
7035.77400766678,-0.0013766663270967912
7035.775007438702,-0.0014421908481423505
7035.776007210625,-0.0015080173612019934
7035.777006982547,-0.001574131727741386
7035.77800675447,-0.0016405195720014202
7035.779006526393,-0.0017071662876674827
7035.780006298316,-0.0017740570447185328
7035.781006070239,-0.0018411767964456802
7035.782005842161,-0.0019085102866299665
7035.783005614084,-0.001976042056869112
7035.784005386007,-0.002043756454043079
7035.78500515793,-0.002111637637908398
7035.786004929852,-0.0021796695888113503
7035.787004701775,-0.0022478361155102372
7035.788004473698,-0.0023161208630971394
7035.78900424562,-0.002384507321009765
7035.790004017544,-0.0024529788311241836
7035.791003789466,-0.0025215185959194778
7035.792003561389,-0.002590109686705553
7035.793003333311,-0.0026587350519055755
7035.794003105234,-0.00272737752538474
7035.7950028771575,-0.002796019834817299
7035.79600264908,-0.0028646446100840588
7035.797002421003,-0.0029332343916928256
7035.798002192925,-0.0030017716392145874
7035.799001964848,-0.003070238739728552
7035.80000173677,-0.0031386180162695015
7035.801001508694,-0.0032068917362712258
7035.802001280616,-0.00327504212000017
7035.803001052539,-0.0033430513489736903
7035.804000824462,-0.0034109015743576023
7035.805000596385,-0.0034785749253379242
7035.806000368308,-0.0035460535174619084
7035.80700014023,-0.0036133194609436034
7035.807999912153,-0.0036803548689293146
7035.808999684075,-0.0037471418657184417
7035.809999455998,-0.0038136625949352874
7035.8109992279215,-0.003879899227647512
7035.811998999844,-0.003945833970427016
7035.812998771767,-0.004011449073349112
7035.813998543689,-0.004076726837925929
7035.814998315612,-0.004141649624970058
7035.815998087535,-0.004206199862384508
7035.816997859458,-0.0042703600528751166
7035.81799763138,-0.004334112781581563
7035.818997403303,-0.004397440723623179
7035.819997175226,-0.004460326651555803
7035.820996947148,-0.004522753442735952
7035.821996719072,-0.0045847040865886314
7035.822996490994,-0.004646161691775174
7035.823996262917,-0.00470710949325753
7035.824996034839,-0.004767530859255501
7035.825995806762,-0.00482740929809339
7035.8269955786855,-0.004886728464932655
7035.827995350608,-0.004945472168387174
7035.828995122531,-0.0050036243770178596
7035.829994894453,-0.005061169225703477
7035.830994666376,-0.005118091021884773
7035.831994438298,-0.005174374251679269
7035.832994210222,-0.005230003585864441
7035.833993982144,-0.005284963885727358
7035.834993754067,-0.00533924020877927
7035.83599352599,-0.005392817814334006
7035.836993297913,-0.005445682168949413
7035.837993069836,-0.0054978189517313645
7035.838992841758,-0.005549214059500056
7035.839992613681,-0.005599853611818456
7035.840992385603,-0.005649723955882785
7035.841992157526,-0.005698811671274905
7035.842991929449,-0.005747103574576413
7035.843991701372,-0.005794586723844196
7035.844991473295,-0.005841248422947185
7035.845991245217,-0.00588707622576404
7035.84699101714,-0.00593205794024155
7035.847990789063,-0.005976181632313593
7035.848990560986,-0.006019435629680612
7035.849990332908,-0.006061808525449646
7035.850990104831,-0.006103289181635022
7035.851989876754,-0.006143866732519973
7035.852989648676,-0.006183530587879483
7035.8539894206,-0.006222270436064718
7035.854989192522,-0.006260076246949518
7035.855988964445,-0.006296938274739504
7035.856988736367,-0.006332847060644456
7035.857988508291,-0.006367793435414795
7035.858988280213,-0.006401768521743218
7035.859988052136,-0.006434763736532842
7035.860987824059,-0.006466770793033494
7035.861987595981,-0.006497781702848113
7035.862987367904,-0.006527788777811537
7035.863987139827,-0.006556784631744162
7035.86498691175,-0.006584762182083098
7035.865986683672,-0.006611714651393473
7035.866986455595,-0.00663763556876245
7035.867986227518,-0.006662518771078343
7035.868985999441,-0.006686358404197055
7035.869985771364,-0.006709148923997822
7035.870985543286,-0.00673088509733008
7035.871985315209,-0.006751562002853079
7035.872985087131,-0.006771175031769657
7035.873984859054,-0.006789719888455418
7035.874984630977,-0.006807192590984366
7035.8759844029,-0.006823589471551831
7035.876984174823,-0.0068389071767953535
7035.877983946745,-0.0068531426680140135
7035.878983718668,-0.006866293221286544
7035.879983490591,-0.006878356427488445
7035.880983262514,-0.0068893301922082414
7035.881983034436,-0.006899212735563004
7035.882982806359,-0.006908002591913206
7035.883982578282,-0.006915698609477034
7035.884982350204,-0.006922299949844268
7035.885982122128,-0.006927806087389886
7035.88698189405,-0.006932216808587555
7035.887981665973,-0.006935532211223231
7035.888981437895,-0.00693775270350899
7035.889981209819,-0.006938879003097245
7035.890980981741,-0.00693891213599538
7035.891980753664,-0.006937853435380774
7035.892980525587,-0.0069357045403160835
7035.893980297509,-0.006932467394364573
7035.894980069432,-0.006928144244105236
7035.895979841355,-0.006922737637547459
7035.896979613278,-0.0069162504224450265
7035.8979793852,-0.006908685744509389
7035.898979157123,-0.0069000470455222755
7035.899978929046,-0.006890338061347861
7035.900978700969,-0.006879562819844941
7035.901978472892,-0.0068677256386797175
7035.902978244814,-0.006854831123039936
7035.903978016737,-0.006840884163251241
7035.904977788659,-0.0068258899322966885
7035.905977560582,-0.006809853883240421
7035.906977332505,-0.0067927817465565305
7035.907977104428,-0.006774679527364157
7035.908976876351,-0.006755553502569853
7035.909976648273,-0.006735410217918193
7035.910976420196,-0.006714256484951533
7035.911976192119,-0.006692099377879767
7035.912975964042,-0.0066689462303608695
7035.913975735964,-0.006644804632192948
7035.914975507887,-0.006619682425918543
7035.91597527981,-0.006593587703341907
7035.916975051732,-0.006566528801960038
7035.917974823656,-0.006538514301308233
7035.918974595578,-0.006509553019220961
7035.919974367501,-0.006479654008008873
7035.920974139423,-0.00644882655055279
7035.921973911347,-0.0064170801563155615
7035.922973683269,-0.0063844245572727484
7035.923973455192,-0.006350869703763214
7035.924973227115,-0.006316425760260837
7035.925972999037,-0.006281103101068694
7035.92697277096,-0.006244912305937128
7035.927972542883,-0.006207864155607196
7035.928972314806,-0.006169969627281002
7035.929972086728,-0.0061312398900204915
7035.930971858651,-0.00609168630007632
7035.931971630574,-0.006051320396148513
7035.932971402497,-0.006010153894580691
7035.93397117442,-0.005968198684489825
7035.934970946342,-0.005925466822833549
7035.935970718265,-0.005881970529417143
7035.936970490187,-0.005837722181842432
7035.93797026211,-0.005792734310400859
7035.938970034033,-0.005747019592913132
7035.939969805956,-0.0057005908495178104
7035.940969577879,-0.005653461037411297
7035.941969349801,-0.005605643245541657
7035.942969121725,-0.00555715068925871
7035.943968893647,-0.005507996704922819
7035.94496866557,-0.0054581947444747045
7035.945968437492,-0.005407758369968635
7035.946968209415,-0.005356701248071246
7035.947967981338,-0.0053050371445282464
7035.948967753261,-0.005252779918601246
7035.949967525184,-0.005199943517476932
7035.950967297106,-0.0051465419706507925
7035.951967069029,-0.00509258938428759
7035.952966840951,-0.005038099935560718
7035.953966612875,-0.004983087866972535
7035.954966384797,-0.004927567480657771
7035.95596615672,-0.004871553132672098
7035.956965928643,-0.004815059227268059
7035.957965700565,-0.0047581002111606804
7035.958965472488,-0.0047006905677852585
7035.959965244411,-0.004642844811550023
7035.960965016334,-0.004584577482086507
7035.961964788256,-0.004525903138500639
7035.962964560179,-0.0044668363536276125
7035.963964332102,-0.004407391708293713
7035.964964104025,-0.004347583785588226
7035.965963875948,-0.004287427165148569
7035.96696364787,-0.004226936417461704
7035.967963419793,-0.004166126098184822
7035.968963191715,-0.004105010742488198
7035.969962963638,-0.004043604859422996
7035.970962735561,-0.003981922926316746
7035.971962507484,-0.003919979383199061
7035.972962279407,-0.0038577886272601423
7035.973962051329,-0.0037953650073445323
7035.974961823253,-0.003732722818482627
7035.975961595175,-0.0036698762964625757
7035.976961367098,-0.003606839612445374
7035.97796113902,-0.0035436268676262077
7035.978960910943,-0.003480252087945363
7035.979960682866,-0.003416729218852294
7035.980960454789,-0.0033530721201266286
7035.981960226712,-0.003289294560760025
7035.982959998634,-0.0032254102139028153
7035.983959770557,-0.0031614326518793335
7035.984959542479,-0.0030973753412757155
7035.985959314403,-0.0030332516381038144
7035.986959086325,-0.0029690747830447488
7035.987958858248,-0.0029048578967754506
7035.988958630171,-0.002840613975381406
7035.989958402093,-0.002776355885858639
7035.990958174016,-0.002712096361707813
7035.991957945939,-0.0026478479986231426
7035.992957717862,-0.002583623250278657
7035.993957489784,-0.002519434424214202
7035.994957261707,-0.002455293677823455
7035.99595703363,-0.0023912130144461067
7035.996956805553,-0.002327204279566316
7035.997956577476,-0.0022632791571194993
7035.998956349398,-0.0021994491659095648
7035.999956121321,-0.002135725656138792
7036.000955893243,-0.002072119806052698
7036.001955665167,-0.002008642618702432
7036.002955437089,-0.0019453049188273876
7036.003955209012,-0.0018821173498608916
7036.004954980935,-0.0018190903710618702
7036.005954752857,-0.0017562342547754184
7036.006954524781,-0.0016935590838251056
7036.007954296703,-0.0016310747490397028
7036.008954068626,-0.0015687909469167991
7036.009953840548,-0.0015067171774254995
7036.010953612471,-0.001444862741950079
7036.011953384394,-0.0013832367413761306
7036.012953156317,-0.0013218480743203893
7036.01395292824,-0.0012607054355050571
7036.014952700162,-0.001199817314277106
7036.015952472085,-0.0011391919932726823
7036.016952244007,-0.001078837547226406
7036.017952015931,-0.0010187618419250516
7036.018951787853,-0.000958972533304844
7036.019951559776,-0.0008994770666913833
7036.020951331699,-0.0008402826761810472
7036.021951103621,-0.0007813963841625678
7036.022950875544,-0.0007228250009773424
7036.023950647467,-0.0006645751247168908
7036.02495041939,-0.0006066531411557063
7036.025950191312,-0.0005490652238175674
7036.026949963235,-0.000491817334173174
7036.027949735159,-0.0004349152219667612
7036.028949507081,-0.00037836442566912344
7036.029949279004,-0.0003221702730542791
7036.030949050926,-0.0002663378818968297
7036.031948822849,-0.0002108721607869363
7036.032948594771,-0.00015577781005974135
7036.033948366695,-0.0001010593228360031
7036.034948138617,-4.672098617066586e-05
7036.03594791054,7.233117693936887e-06
7036.036947682463,6.079910997356435e-05
7036.037947454385,0.00011397331388955117
7036.038947226309,0.0001667522531215891
7036.039946998231,0.0002191326501690735
7036.040946770154,0.00027111142462423474
7036.041946542076,0.0003226856913602153
7036.042946313999,0.0003738527586371772
7036.043946085922,0.0004246101261294355
7036.044945857845,0.00047495548287651644
7036.045945629768,0.0005248867051609447
7036.04694540169,0.0005744018543154785
7036.047945173613,0.0006234991744624317
7036.048944945535,0.0006721770901876506
7036.049944717459,0.0007204342041516453
7036.050944489381,0.00076826929464032
7036.051944261304,0.0008156813130577121
7036.052944033227,0.0008626693813631378
7036.053943805149,0.0009092327894551505
7036.054943577072,0.0009553709925047368
7036.055943348995,0.0010010836082401818
7036.056943120918,0.0010463704141860251
7036.05794289284,0.0010912313448584946
7036.058942664763,0.0011356664889197391
7036.059942436687,0.0011796760862930998
7036.060942208609,0.0012232605252415665
7036.061941980532,0.0012664203394114686
7036.062941752454,0.0013091562048433401
7036.063941524377,0.001351468936951774
7036.064941296299,0.0013933594874759357
7036.065941068223,0.001434828941402263
7036.066940840145,0.0014758785138607301
7036.067940612068,0.0015165095469959295
7036.068940383991,0.0015567235068141279
7036.069940155913,0.0015965219800073791
7036.070939927837,0.0016359066707557488
7036.071939699759,0.001674879397508686
7036.072939471682,0.0017134420897465885
7036.073939243604,0.0017515967847236277
7036.074939015527,0.0017893456241929282
7036.07593878745,0.0018266908511152683
7036.076938559373,0.001863634806352538
7036.077938331296,0.001900179925347318
7036.078938103218,0.001936328734790101
7036.079937875141,0.001972083849275852
7036.080937647064,0.0020074479679517893
7036.081937418987,0.0020424238711584377
7036.082937190909,0.0020770144170661315
7036.083936962832,0.0021112225383092278
7036.084936734755,0.0021450512386202965
7036.085936506677,0.002178503589466514
7036.086936278601,0.0022115827266904146
7036.087936050523,0.0022442918471570613
7036.088935822446,0.002276634205409588
7036.089935594368,0.0023086131103349926
7036.090935366291,0.0023402319218419625
7036.091935138215,0.0023714940475524434
7036.092934910137,0.0024024029395086043
7036.09393468206,0.002432962090896808
7036.094934453982,0.0024631750327901575
7036.095934225905,0.0024930453309111545
7036.096933997827,0.0025225765824159886
7036.097933769751,0.0025517724127019233
7036.098933541673,0.0025806364722392497
7036.099933313596,0.0026091724334292472
7036.100933085519,0.0026373839874895976
7036.101932857441,0.0026652748413686983
7036.102932629365,0.00269284871469033
7036.103932401287,0.0027201093367301577
7036.10493217321,0.0027470604434255527
7036.105931945132,0.0027737057744202684
7036.106931717055,0.0028000490701455224
7036.107931488978,0.0028260940689390653
7036.108931260901,0.002851844504203818
7036.109931032824,0.0028773041016076756
7036.110930804746,0.002902476576326086
7036.111930576669,0.0029273656303290428
7036.112930348592,0.002951974949714143
7036.113930120515,0.0029763082020874
7036.114929892437,0.003000369033993522
7036.11592966436,0.003024161068397366
7036.116929436283,0.003047687902218296
7036.117929208205,0.003070953103919185
7036.118928980129,0.0030939602111518132
7036.119928752051,0.0031167127284604155
7036.120928523974,0.0031392141250450568
7036.121928295896,0.003161467832586468
7036.122928067819,0.0031834772431338374
7036.123927839743,0.003205245707056899
7036.124927611665,0.003226776531063482
7036.125927383588,0.0032480729762835027
7036.12692715551,0.0032691382564201924
7036.127926927433,0.003289975535969195
7036.128926699355,0.0033105879285060375
7036.129926471279,0.0033309784950423835
7036.130926243201,0.0033511502424513804
7036.131926015124,0.0033711061219623343
7036.132925787047,0.003390849027724834
7036.133925558969,0.003410381795442352
7036.134925330893,0.0034297072010752486
7036.135925102815,0.0034488279596130195
7036.136924874738,0.003467746723915567
7036.13792464666,0.003486466083623274
7036.138924418583,0.0035049885641356424
7036.139924190506,0.0035233166256582985
7036.140923962429,0.0035414526623182203
7036.141923734352,0.003559399001347128
7036.142923506274,0.003577157902333031
7036.143923278197,0.003594731556540018
7036.14492305012,0.003612122086296447
7036.145922822043,0.0036293315444517367
7036.146922593965,0.003646361913902021
7036.147922365888,0.0036632151071849563
7036.148922137811,0.0036798929661439276
7036.149921909733,0.003696397261661838
7036.150921681657,0.003712729693464462
7036.151921453579,0.003728891889993112
7036.152921225502,0.003744885408346062
7036.153920997424,0.0037607117342878735
7036.154920769347,0.0037763722823254704
7036.155920541271,0.0037918683958495323
7036.156920313193,0.003807201347339496
7036.157920085116,0.003822372338630219
7036.158919857038,0.0038373825012381437
7036.159919628961,0.0038522328967446665
7036.160919400883,0.0038669245172342987
7036.161919172807,0.0038814582857851407
7036.162918944729,0.0038958350570091715
7036.163918716652,0.003910055617639848
7036.164918488575,0.003924120687164516
7036.165918260498,0.003938030918499155
7036.166918032421,0.003951786898702999
7036.167917804343,0.003965389149730606
7036.168917576266,0.003978838129218955
7036.169917348188,0.003992134231307162
7036.170917120111,0.004005277787486422
7036.1719168920345,0.004018269067477833
7036.172916663957,0.004031108280135807
7036.17391643588,0.00404379557437487
7036.174916207802,0.0040563310401177605
7036.175915979725,0.0040687147092628865
7036.176915751648,0.0040809465566692925
7036.177915523571,0.004093026501157443
7036.178915295493,0.004104954406524229
7036.179915067416,0.004116730082570707
7036.180914839339,0.00412835328614114
7036.181914611261,0.004139823722171942
7036.182914383185,0.004151141044749155
7036.183914155107,0.004162304858173094
7036.18491392703,0.004173314718028893
7036.185913698952,0.004184170132261782
7036.186913470875,0.0041948705622561425
7036.187913242799,0.004205415423917621
7036.188913014721,0.004215804088757805
7036.189912786644,0.004226035884981172
7036.190912558566,0.004236110098574208
7036.191912330489,0.00424602597439672
7036.192912102411,0.004255782717275405
7036.193911874335,0.00426537949309975
7036.194911646257,0.004274815429920264
7036.19591141818,0.004284089619048937
7036.196911190103,0.004293201116161712
7036.197910962026,0.004302148942402662
7036.198910733949,0.004310932085489436
7036.199910505871,0.004319549500819456
7036.200910277794,0.004328000112576311
7036.201910049716,0.004336282814835697
7036.202909821639,0.0043443964726702314
7036.2039095935625,0.004352339923252467
7036.204909365485,0.004360111976955371
7036.205909137408,0.004367711418449599
7036.20690890933,0.004375137007796902
7036.207908681253,0.004382387481539083
7036.208908453176,0.00438946155378197
7036.209908225099,0.004396357917274015
7036.210907997021,0.004403075244479166
7036.211907768944,0.0044096121886438334
7036.212907540867,0.00441596738485782
7036.213907312789,0.004422139451109189
7036.214907084713,0.0044281269893330635
7036.215906856635,0.004433928586454385
7036.216906628558,0.004439542815424699
7036.21790640048,0.004444968236253004
7036.218906172404,0.004450203397030762
7036.219905944327,0.004455246834951169
7036.220905716249,0.004460097077322772
7036.221905488172,0.00446475264257757
7036.222905260094,0.004469212041273705
7036.223905032017,0.004473473777092866
7036.22490480394,0.004477536347832546
7036.225904575863,0.004481398246393315
7036.226904347785,0.0044850579617612685
7036.227904119708,0.004488513979985815
7036.228903891631,0.004491764785152964
7036.229903663554,0.0044948088603542335
7036.230903435477,0.004497644688651278
7036.231903207399,0.0045002707540362785
7036.232902979322,0.004502685542388124
7036.233902751244,0.004504887542424328
7036.234902523167,0.00450687524664861
7036.23590229509,0.004508647152294021
7036.236902067013,0.004510201762261439
7036.237901838936,0.004511537586053254
7036.238901610858,0.004512653140701983
7036.239901382781,0.004513546951693503
7036.240901154704,0.004514217553884551
7036.241900926627,0.0045146634924140795
7036.242900698549,0.004514883323607995
7036.243900470472,0.004514875615876807
7036.244900242395,0.004514638950605711
7036.245900014317,0.004514171923036734
7036.246899786241,0.004513473143142656
7036.247899558163,0.004512541236492626
7036.248899330086,0.00451137484510955
7036.249899102008,0.004509972628319575
7036.250898873932,0.004508333263594142
7036.251898645854,0.004506455447385276
7036.252898417777,0.0045043378959548856
7036.2538981897,0.0045019793461989295
7036.254897961622,0.004499378556467349
7036.255897733545,0.004496534307380681
7036.256897505468,0.004493445402644237
7036.257897277391,0.0044901106698607435
7036.258897049313,0.004486528961342322
7036.259896821236,0.0044826991549227055
7036.260896593159,0.00447862015477064
7036.261896365082,0.004474290892205406
7036.262896137005,0.004469710326515446
7036.263895908927,0.0044648774457810405
7036.26489568085,0.004459791267701895
7036.265895452772,0.004454450840430379
7036.266895224695,0.00444885524341093
7036.267894996618,0.00444300358822586
7036.268894768541,0.004436895019447522
7036.269894540464,0.004430528715496542
7036.270894312386,0.004423903889505482
7036.271894084309,0.004417019790187152
7036.272893856232,0.0044098757027064795
7036.273893628155,0.004402470949554719
7036.274893400077,0.0043948048914245865
7036.275893172,0.00438687692808478
7036.276892943923,0.004378686499252259
7036.277892715845,0.0043702330854606605
7036.278892487769,0.004361516208923215
7036.279892259691,0.004352535434388663
7036.280892031614,0.00434329036998877
7036.281891803536,0.004333780668076168
7036.28289157546,0.004324006026051413
7036.283891347382,0.00431396618717822
7036.284891119305,0.004303660941385914
7036.285890891228,0.004293090126058206
7036.28689066315,0.004282253626807521
7036.287890435073,0.004271151378234178
7036.288890206996,0.004259783364669882
7036.289889978919,0.004248149620905038
7036.290889750841,0.0042362502328995785
7036.291889522764,0.004224085338476992
7036.292889294687,0.004211655128001356
7036.29388906661,0.004198959845037176
7036.294888838533,0.004185999786991845
7036.295888610455,0.004172775305740529
7036.296888382378,0.004159286808233237
7036.2978881543,0.00414553475708383
7036.298887926223,0.004131519671140737
7036.299887698146,0.004117242126039156
7036.300887470069,0.004102702754734597
7036.301887241992,0.004087902248017711
7036.302887013914,0.004072841355010419
7036.303886785838,0.00405752088364345
7036.30488655776,0.004041941701115465
7036.305886329683,0.004026104734333976
7036.306886101605,0.004010010970338305
7036.307885873528,0.0039936614567048145
7036.308885645451,0.0039770573019347125
7036.309885417374,0.003960199675824709
7036.310885189297,0.003943089809820859
7036.311884961219,0.003925728997355961
7036.312884733142,0.003908118594170903
7036.313884505064,0.0038902600186203687
7036.314884276988,0.003872154751963258
7036.31588404891,0.003853804338638159
7036.316883820833,0.0038352103865240926
7036.317883592756,0.0038163745671866943
7036.318883364678,0.0037972986161098586
7036.319883136601,0.0037779843329127784
7036.320882908524,0.003758433581552204
7036.321882680447,0.00373864829050964
7036.322882452369,0.0037186304529630934
7036.323882224292,0.00369838212694288
7036.324881996215,0.003677905435470921
7036.325881768138,0.003657202566682844
7036.326881540061,0.003636275773932131
7036.327881311983,0.0036151273758755114
7036.328881083906,0.0035937597565387494
7036.329880855828,0.0035721753653619828
7036.330880627751,0.0035503767172237613
7036.331880399674,0.003528366392442987
7036.332880171597,0.0035061470367579836
7036.33387994352,0.0034837213612819865
7036.334879715442,0.0034610921424344195
7036.335879487366,0.003438262221847402
7036.336879259288,0.003415234506247045
7036.337879031211,0.003392011967309238
7036.338878803133,0.003368597641489778
7036.339878575056,0.0033449946298288393
7036.340878346979,0.0033212060977299224
7036.341878118902,0.0032972352747135275
7036.342877890825,0.0032730854541458427
7036.343877662747,0.0032487599929427844
7036.34487743467,0.003224262311249742
7036.345877206592,0.0031995958920973937
7036.346876978516,0.003174764281034008
7036.347876750438,0.003149771085734699
7036.348876522361,0.003124619975588189
7036.349876294284,0.00309931468126175
7036.350876066206,0.0030738589942450757
7036.351875838129,0.003048256766373962
7036.352875610052,0.0030225119093347064
7036.353875381975,0.002996628394150153
7036.354875153897,0.0029706102506482797
7036.35587492582,0.0029444615669140823
7036.356874697743,0.0029181864887253915
7036.357874469666,0.002891789218973116
7036.358874241589,0.002865274017066248
7036.359874013511,0.0028386451983218345
7036.360873785434,0.002811907133340004
7036.361873557356,0.0027850642473640007
7036.36287332928,0.0027581210196250985
7036.363873101202,0.0027310819826722164
7036.364872873125,0.002703951721686002
7036.365872645048,0.0026767348737772186
7036.36687241697,0.002649436127269308
7036.367872188894,0.00262206022096507
7036.368871960816,0.002594611943397427
7036.369871732739,0.002567096132064199
7036.370871504661,0.002539517672646652
7036.371871276584,0.002511881498211406
7036.372871048507,0.0024841925883950086
7036.37387082043,0.002456455968570265
7036.374870592353,0.00242867670899317
7036.375870364275,0.0024008599239291662
7036.376870136198,0.0023730107707573608
7036.37786990812,0.002345134449051324
7036.378869680044,0.0023172361996351473
7036.379869451966,0.002289321303613533
7036.380869223889,0.0022613950813747835
7036.381868995812,0.002233462891565637
7036.382868767734,0.0022055301300369615
7036.383868539657,0.0021776022287593086
7036.38486831158,0.0021496846547073047
7036.385868083503,0.0021217829087117855
7036.386867855425,0.002093902524278535
7036.387867627348,0.002066049066372438
7036.388867399272,0.002038228130165868
7036.389867171194,0.002010445339750179
7036.390866943117,0.0019827063468092396
7036.391866715039,0.00195501682925405
7036.392866486962,0.0019273824898175464
7036.393866258884,0.00189980905460879
7036.394866030808,0.0018723022716257808
7036.39586580273,0.001844867909226181
7036.396865574653,0.0018175117545552817
7036.397865346576,0.0017902396119306024
7036.398865118498,0.0017630573011826211
7036.399864890422,0.0017359706559512827
7036.400864662344,0.0017089855219381126
7036.401864434267,0.0016821077551139483
7036.402864206189,0.0016553432198824977
7036.403863978112,0.0016286977872000989
7036.404863750035,0.001602177332652203
7036.405863521958,0.0015757877344872466
7036.406863293881,0.0015495348716087023
7036.407863065803,0.0015234246215262268
7036.408862837726,0.001497462858266942
7036.409862609648,0.0014716554502480117
7036.410862381572,0.0014460082581117593
7036.411862153494,0.0014205271325246566
7036.412861925417,0.0013952179119415783
7036.41386169734,0.0013700864203367597
7036.414861469262,0.0013451384649029393
7036.415861241185,0.0013203798337201892
7036.416861013108,0.0012958162933959373
7036.417860785031,0.0012714535866776883
7036.418860556953,0.0012472974300399208
7036.419860328876,0.0012233535112466203
7036.4208601008,0.001199627486890876
7036.421859872722,0.00117612497991295
7036.422859644645,0.0011528515770982105
7036.423859416567,0.0011298128265563132
7036.42485918849,0.0011070142351830082
7036.425858960412,0.0010844612661059423
7036.426858732336,0.00106215933611582
7036.427858504258,0.0010401138130842885
7036.428858276181,0.0010183300133699215
7036.429858048104,0.0009968131992137037
7036.430857820026,0.0009755685761254459
7036.43185759195,0.0009546012902625885
7036.432857363872,0.0009339164258028879
7036.433857135795,0.0009135190023125011
7036.434856907717,0.0008934139721110151
7036.43585667964,0.0008736062176349883
7036.436856451563,0.0008541005488016021
7036.437856223486,0.0008349017003740405
7036.438855995409,0.0008160143293302411
7036.439855767331,0.0007974430122366823
7036.440855539254,0.0007791922426288976
7036.441855311177,0.0007612664284004377
7036.4428550831,0.0007436698892020269
7036.443854855022,0.0007264068538526996
7036.444854626945,0.0007094814577647256
7036.445854398868,0.0006928977403841724
7036.44685417079,0.000676659642648973
7036.447853942714,0.0006607710044663962
7036.448853714636,0.0006452355622118363
7036.449853486559,0.0006300569462508531
7036.450853258481,0.0006152386784863886
7036.451853030404,0.0006007841699330546
7036.452852802328,0.0005866967183203125
7036.45385257425,0.0005729795057262583
7036.454852346173,0.0005596355962435942
7036.455852118095,0.0005466679336792296
7036.456851890018,0.0005340793392888488
7036.45785166194,0.0005218725095476826
7036.458851433864,0.0005100500139586559
7036.459851205786,0.0004986142928990254
7036.460850977709,0.0004875676555065854
7036.461850749632,0.0004769122776064922
7036.462850521554,0.00046665019967975216
7036.463850293478,0.00045678332487442006
7036.4648500654,0.000447313417060562
7036.465849837323,0.00043824209893003846
7036.466849609245,0.0004295708501421455
7036.467849381168,0.0004213010055161029
7036.468849153091,0.0004134337532712906
7036.469848925014,0.0004059701333160005
7036.470848696937,0.00039891103558529773
7036.471848468859,0.00039225719842837
7036.472848240782,0.00038600920704550334
7036.473848012705,0.000380167491974549
7036.474847784628,0.0003747323276264538
7036.47584755655,0.0003697038308691346
7036.476847328473,0.00036508195965871156
7036.477847100396,0.00036086651171690767
7036.478846872318,0.0003570571232532864
7036.479846644242,0.0003536532677309346
7036.480846416164,0.0003506542546742004
7036.481846188087,0.0003480592285171504
7036.482845960009,0.0003458671674915037
7036.483845731932,0.0003440768825529193
7036.484845503856,0.0003426870163446353
7036.485845275778,0.0003416960421975725
7036.486845047701,0.0003411022631661174
7036.487844819623,0.0003409038110988837
7036.488844591546,0.0003410986457438319
7036.489844363468,0.00034168455388720013
7036.490844135392,0.00034265914852577104
7036.491843907314,0.0003440198680720914
7036.492843679237,0.00034576397559236873
7036.49384345116,0.0003478885580769071
7036.494843223082,0.00035039052574310634
7036.495842995006,0.00035326661137124023
7036.496842766928,0.00035651336967344375
7036.497842538851,0.00036012717669656695
7036.498842310773,0.00036410422925977384
7036.499842082696,0.00036844054442795236
7036.500841854619,0.0003731319590221471
7036.501841626542,0.00037817412916832794
7036.502841398465,0.0003835625298858803
7036.503841170387,0.0003892924547172536
7036.50484094231,0.0003953590154002582
7036.505840714233,0.00040175714158453553
7036.506840486156,0.00040848158059376115
7036.507840258078,0.0004155268972351636
7036.508840030001,0.0004228874736579628
7036.509839801924,0.00043055750926234386
7036.510839573846,0.0004385310206605966
7036.51183934577,0.00044680184169205257
7036.512839117692,0.00045536362349344055
7036.513838889615,0.0004642098346262319
7036.514838661537,0.0004733337612624589
7036.51583843346,0.0004827285074303554
7036.516838205384,0.0004923869953209982
7036.517837977306,0.0005023019656569319
7036.518837749229,0.0005124659781235548
7036.519837521151,0.0005228714118638325
7036.520837293074,0.0005335104660367064
7036.521837064996,0.0005443751604393843
7036.52283683692,0.0005554573361935485
7036.523836608842,0.0005667486564954201
7036.524836380765,0.0005782406074295927
7036.525836152688,0.0005899244988465806
7036.526835924611,0.0006017914653041404
7036.527835696534,0.0006138324670725511
7036.528835468456,0.0006260382912041875
7036.529835240379,0.00063839955266785
7036.530835012301,0.0006509066955484144
7036.531834784224,0.0006635499943124566
7036.532834556148,0.0006763195551405877
7036.53383432807,0.0006892053173273241
7036.534834099993,0.0007021970547494152
7036.535833871915,0.0007152843774036482
7036.536833643838,0.0007284567330152447
7036.537833415761,0.0007417034087180527
7036.538833187684,0.0007550135328078168
7036.539832959606,0.0007683760765698745
7036.540832731529,0.0007817798561826967
7036.541832503452,0.0007952135346987355
7036.542832275374,0.0008086656241040917
7036.543832047298,0.0008221244874585369
7036.54483181922,0.0008355783411174354
7036.545831591143,0.0008490152570370984
7036.546831363065,0.0008624231651650623
7036.547831134988,0.0008757898559167349
7036.548830906912,0.0008891029827398035
7036.549830678834,0.000902350064767758
7036.550830450757,0.0009155184895638642
7036.551830222679,0.0009285955159569298
7036.552829994602,0.0009415682769702315
7036.553829766524,0.000954423782845001
7036.554829538448,0.0009671489241598999
7036.55582931037,0.0009797304750479305
7036.556829082293,0.0009921550965122279
7036.557828854216,0.0010044093398421667
7036.558828626139,0.001016479650131177
7036.559828398062,0.001028352369897607
7036.560828169984,0.0010400137428099084
7036.561827941907,0.0010514499175173495
7036.562827713829,0.0010626469515874041
7036.563827485752,0.001073590815550924
7036.564827257676,0.0010842673970561933
7036.565827029598,0.0010946625051329797
7036.566826801521,0.001104761874567726
7036.567826573443,0.0011145511703910802
7036.568826345366,0.0011240159924789921
7036.569826117289,0.0011331418802686566
7036.570825889212,0.0011419143175906183
7036.571825661134,0.001150318737618407
7036.572825433057,0.0011583405279371464
7036.57382520498,0.0011659650357326626
7036.574824976902,0.0011731775731027218
7036.575824748826,0.0011799634224921346
7036.576824520748,0.0011863078422535635
7036.577824292671,0.0011921960723359603
7036.578824064593,0.001197613340102631
7036.579823836517,0.001202544866280956
7036.58082360844,0.0012069758710458105
7036.581823380362,0.0012108915802387281
7036.582823152285,0.0012142772317248437
7036.583822924207,0.0012171180818896267
7036.58482269613,0.0012193994122773894
7036.585822468053,0.0012211065363734747
7036.586822239976,0.0012222248065319199
7036.587822011898,0.0012227396210502254
7036.588821783821,0.001222636431392654
7036.589821555744,0.0012219007495632547
7036.590821327667,0.0012205181556295694
7036.59182109959,0.0012184743053977563
7036.592820871512,0.0012157549382396371
7036.593820643435,0.0012123458850719561
7036.594820415357,0.0012082330764879065
7036.59582018728,0.0012034025510407242
7036.596819959204,0.001197840463678869
7036.597819731126,0.001191533094331997
7036.598819503049,0.0011844668566465667
7036.599819274971,0.0011766283068695182
7036.600819046894,0.0011680041528780026
7036.601818818817,0.0011585812633526501
7036.60281859074,0.0011483466770913278
7036.603818362662,0.0011372876124597926
7036.604818134585,0.001125391476975092
7036.605817906508,0.0011126458770170133
7036.60681767843,0.0010990386276623243
7036.607817450354,0.001084557762635985
7036.608817222276,0.0010691915443729126
7036.609816994199,0.0010529284741832526
7036.610816766121,0.0010357573025134334
7036.611816538045,0.0010176670392945586
7036.612816309968,0.0009986469643689484
7036.61381608189,0.0009786866379848777
7036.614815853813,0.000957775911348815
7036.615815625735,0.0009359049372237307
7036.616815397658,0.000913064180561337
7036.617815169581,0.0008892444291554146
7036.618814941504,0.000864436804302671
7036.619814713426,0.0008386327714568609
7036.620814485349,0.0008118241508611499
7036.621814257272,0.0007840031281429502
7036.622814029195,0.0007551622648546769
7036.623813801118,0.0007252945089431073
7036.62481357304,0.0006943932051292636
7036.625813344963,0.0006624521051800154
7036.626813116885,0.0006294653780518854
7036.627812888808,0.0005954276198868609
7036.628812660732,0.0005603338638393604
7036.629812432654,0.0005241795897129084
7036.630812204577,0.0004869607333845467
7036.631811976499,0.00044867369599459965
7036.632811748422,0.0004093153528791312
7036.633811520345,0.0003688830622223073
7036.634811292268,0.0003273746734059358
7036.63581106419,0.0002847885350336996
7036.636810836113,0.00024112350260804092
7036.637810608036,0.00019637894583828205
7036.638810379958,0.00015055475555935597
7036.639810151882,0.00010365135024144629
7036.640809923804,5.5669682071870004e-05
7036.641809695727,6.6112425916594265e-06
7036.642809467649,-4.3521932129514165e-05
7036.643809239573,-9.472725679519865e-05
7036.644809011495,-0.00014700159267465367
7036.645808783418,-0.00020034124389852094
7036.646808555341,-0.0002547419542688583
7036.647808327263,-0.0003101989045933104
7036.648808099186,-0.0003667067105517217
7036.649807871109,-0.00042425942110198414
7036.650807643032,-0.00048285051743037676
7036.651807414954,-0.000542472912450111
7036.652807186877,-0.0006031189508502505
7036.6538069588,-0.0006647804096956281
7036.654806730723,-0.0007274484995768497
7036.655806502646,-0.0007911138663079474
7036.656806274568,-0.0008557665931677661
7036.657806046491,-0.0009213962036797129
7036.658805818413,-0.000987991664923101
7036.659805590336,-0.001055541391367965
7036.660805362259,-0.001124033249223945
7036.661805134182,-0.0011934545612926404
7036.662804906105,-0.0012637921123117438
7036.663804678027,-0.001335032154778293
7036.664804449951,-0.00140716041523753
7036.665804221873,-0.001480162101023124
7036.666803993796,-0.0015540219074338883
7036.667803765718,-0.0016287240253316023
7036.668803537641,-0.0017042521491440962
7036.669803309564,-0.0017805894852574104
7036.670803081487,-0.0018577187607805603
7036.67180285341,-0.0019356222326662386
7036.672802625332,-0.0020142816971706647
7036.673802397255,-0.0020936784996357536
7036.674802169177,-0.002173793544576813
7036.675801941101,-0.002254607306059059
7036.676801713023,-0.002336099838346385
7036.677801484946,-0.0024182507868060125
7036.678801256869,-0.002501039399052843
7036.679801028791,-0.0025844445363175893
7036.680800800714,-0.002668444685023057
7036.681800572637,-0.0027530179685532684
7036.68280034456,-0.00283814215920056
7036.683800116482,-0.0029237946902762016
7036.684799888405,-0.003009952668370557
7036.685799660328,-0.0030965928857492305
7036.686799432251,-0.0031836918328720203
7036.687799204174,-0.00327122571102176
7036.688798976096,-0.003359170445030376
7036.689798748019,-0.0034475016960896364
7036.690798519941,-0.0035361948746342443
7036.691798291864,-0.0036252251532850675
7036.692798063787,-0.0037145674798405065
7036.69379783571,-0.00380419659030427
7036.694797607633,-0.0038940870219381528
7036.695797379555,-0.003984213126328851
7036.696797151479,-0.004074549082458328
7036.697796923401,-0.004165068909767753
7036.698796695324,-0.0042557464812055705
7036.699796467246,-0.004346555536250685
7036.700796239169,-0.004437469693902233
7036.701796011092,-0.004528462465627767
7036.702795783015,-0.0046195072682620264
7036.703795554938,-0.004710577436848841
7036.70479532686,-0.004801646237418942
7036.705795098783,-0.004892686879696771
7036.706794870705,-0.004983672529729583
7036.707794642629,-0.005074576322432356
7036.708794414551,-0.005165371374042241
7036.709794186474,-0.005256030794476405
7036.710793958397,-0.005346527699587253
7036.711793730319,-0.0054368352233091196
7036.712793502242,-0.005526926529690585
7036.713793274165,-0.005616774824806661
7036.714793046088,-0.005706353368545213
7036.71579281801,-0.0057956354862621125
7036.716792589933,-0.005884594580299824
7036.717792361856,-0.005973204141364363
7036.718792133779,-0.006061437759755777
7036.719791905702,-0.006149269136447531
7036.720791677624,-0.006236672094010426
7036.721791449547,-0.006323620587376851
7036.722791221469,-0.006410088714441408
7036.723790993393,-0.006496050726494078
7036.724790765315,-0.006581481038482329
7036.725790537238,-0.006666354239098707
7036.726790309161,-0.006750645100690692
7036.727790081083,-0.006834328588989795
7036.728789853007,-0.006917379872657123
7036.729789624929,-0.006999774332642815
7036.730789396852,-0.0070814875713569835
7036.731789168774,-0.00716249542165
7036.732788940697,-0.007242773955600083
7036.73378871262,-0.007322299493106359
7036.734788484543,-0.0074010486102857225
7036.735788256466,-0.007478998147671919
7036.736788028388,-0.007556125218215462
7036.737787800311,-0.007632407215083139
7036.738787572233,-0.007707821819255923
7036.739787344157,-0.007782347006924238
7036.740787116079,-0.007855961056679598
7036.741786888002,-0.007928642556501685
7036.742786659925,-0.008000370410540022
7036.743786431847,-0.008071123845689485
7036.74478620377,-0.008140882417958975
7036.745785975693,-0.0082096260186327
7036.746785747616,-0.008277334880223744
7036.747785519538,-0.008343989582219697
7036.748785291461,-0.008409571056620392
7036.7497850633845,-0.008474060593267909
7036.750784835307,-0.008537439844969219
7036.75178460723,-0.0085996908324119
7036.752784379152,-0.008660795948873541
7036.753784151075,-0.00872073796472548
7036.754783922997,-0.008779500031731575
7036.755783694921,-0.00883706568714277
7036.756783466843,-0.00889341885758825
7036.757783238766,-0.008948543862764089
7036.758783010689,-0.009002425418920294
7036.759782782611,-0.009055048642147304
7036.760782554535,-0.009106399051462984
7036.761782326457,-0.009156462571701246
7036.76278209838,-0.009205225536203478
7036.763781870302,-0.009252674689314056
7036.764781642225,-0.009298797188681275
7036.765781414148,-0.0093435806073652
7036.766781186071,-0.009387012935754077
7036.767780957994,-0.009429082583291138
7036.768780729916,-0.009469778380013791
7036.769780501839,-0.009509089577907347
7036.770780273761,-0.009547005852075607
7036.771780045685,-0.009583517301730725
7036.772779817607,-0.009618614451004833
7036.77377958953,-0.00965228824958608
7036.774779361453,-0.00968453007318177
7036.775779133375,-0.00971533172381142
7036.776778905298,-0.009744685429932624
7036.777778677221,-0.009772583846402796
7036.778778449144,-0.00979902005427995
7036.779778221066,-0.009823987560465822
7036.780777992989,-0.009847480297194837
7036.7817777649125,-0.009869492621372558
7036.782777536835,-0.009890019313767418
7036.783777308758,-0.009909055578059583
7036.78477708068,-0.009926597039750849
7036.785776852603,-0.009942639744939398
7036.786776624525,-0.009957180158963129
7036.787776396449,-0.009970215164915076
7036.788776168371,-0.009981742062034235
7036.789775940294,-0.009991758563974837
7036.790775712217,-0.010000262796956837
7036.791775484139,-0.010007253297800112
7036.792775256063,-0.010012729011844594
7036.793775027985,-0.010016689290758399
7036.794774799908,-0.010019133890235779
7036.79577457183,-0.01002006296758665
7036.796774343753,-0.010019477079219262
7036.797774115676,-0.010017377178017532
7036.798773887599,-0.010013764610614463
7036.799773659522,-0.010008641114563021
7036.800773431444,-0.010002008815405802
7036.801773203367,-0.009993870223644775
7036.80277297529,-0.009984228231612477
7036.803772747213,-0.009973086110246067
7036.804772519135,-0.009960447505765689
7036.805772291058,-0.009946316436258727
7036.806772062981,-0.009930697288171527
7036.807771834903,-0.009913594812710218
7036.808771606827,-0.00989501412215231
7036.809771378749,-0.009874960686070714
7036.810771150672,-0.009853440327471886
7036.811770922594,-0.009830459218849856
7036.812770694517,-0.009806023878157955
7036.8137704664405,-0.009780141164700098
7036.814770238363,-0.009752818274943608
7036.815770010286,-0.009724062738255514
7036.816769782208,-0.009693882412564324
7036.817769554131,-0.009662285479949226
7036.818769326053,-0.00962928044215872
7036.819769097977,-0.009594876116060596
7036.820768869899,-0.009559081629025227
7036.821768641822,-0.009521906414244163
7036.822768413745,-0.009483360205985975
7036.823768185667,-0.009443453034791306
7036.824767957591,-0.009402195222609131
7036.825767729513,-0.009359597377876139
7036.826767501436,-0.00931567039054125
7036.827767273358,-0.009270425427037118
7036.828767045281,-0.009223873925200552
7036.829766817204,-0.009176027589143704
7036.830766589127,-0.009126898384077821
7036.83176636105,-0.009076498531091371
7036.832766132972,-0.009024840501884268
7036.833765904895,-0.008971937013459939
7036.834765676818,-0.008917801022776931
7036.835765448741,-0.008862445721361738
7036.836765220663,-0.008805884529884506
7036.837764992586,-0.008748131092699226
7036.838764764509,-0.008689199272350056
7036.839764536431,-0.008629103144045342
7036.840764308355,-0.0085678569901009
7036.841764080277,-0.00850547529435403
7036.8427638522,-0.008441972736549775
7036.843763624122,-0.008377364186700806
7036.844763396045,-0.008311664699422345
7036.8457631679685,-0.008244889508243447
7036.846762939891,-0.008177054019895996
7036.847762711814,-0.008108173808582706
7036.848762483736,-0.00803826461022548
7036.849762255659,-0.007967342316695424
7036.850762027581,-0.007895422970025899
7036.851761799505,-0.007822522756609886
7036.852761571427,-0.00774865800138298
7036.85376134335,-0.007673845161993288
7036.854761115273,-0.007598100822959486
7036.855760887195,-0.0075214416898182835
7036.856760659119,-0.007443884583262591
7036.857760431041,-0.007365446433271627
7036.858760202964,-0.007286144273234241
7036.859759974886,-0.007205995234066706
7036.860759746809,-0.007125016538326231
7036.861759518732,-0.007043225494321418
7036.862759290655,-0.006960639490220816
7036.863759062578,-0.006877275988160718
7036.8647588345,-0.006793152518353228
7036.865758606423,-0.006708286673195589
7036.866758378346,-0.006622696101381632
7036.867758150269,-0.006536398502016177
7036.868757922191,-0.0064494116187331025
7036.869757694114,-0.0063617532338177355
7036.870757466037,-0.0062734411623341264
7036.871757237959,-0.006184493246257784
7036.872757009883,-0.006094927348614466
7036.873756781805,-0.006004761347625745
7036.874756553728,-0.005914013130862192
7036.87575632565,-0.005822700589405268
7036.876756097573,-0.0057308416120191935
7036.8777558694965,-0.005638454079334361
7036.878755641419,-0.005545555858044138
7036.879755413342,-0.00545216479511726
7036.880755185264,-0.005358298712028327
7036.881754957187,-0.005263975399009275
7036.882754729109,-0.005169212609325017
7036.883754501033,-0.005074028053576764
7036.884754272955,-0.004978439394036851
7036.885754044878,-0.004882464239019171
7036.886753816801,-0.00478612013728958
7036.887753588724,-0.004689424572520846
7036.888753360647,-0.004592394957796882
7036.889753132569,-0.004495048630171104
7036.890752904492,-0.004397402845283768
7036.891752676414,-0.004299474772043103
7036.892752448337,-0.004201281487374909
7036.8937522202605,-0.00410283997104512
7036.894751992183,-0.004004167100559582
7036.895751764106,-0.003905279646145034
7036.896751536028,-0.0038061942658149457
7036.897751307951,-0.0037069275005235775
7036.898751079874,-0.00360749576941133
7036.899750851797,-0.0035079153651441973
7036.900750623719,-0.003408202449349953
7036.901750395642,-0.0033083730481535427
7036.902750167565,-0.003208443047814028
7036.903749939487,-0.0031084281904652862
7036.904749711411,-0.0030083440699625115
7036.905749483333,-0.002908206127836422
7036.906749255256,-0.00280802964935687
7036.907749027178,-0.0027078297597073857
7036.908748799101,-0.002607621420271973
7036.9097485710245,-0.00250741942503533
7036.910748342947,-0.002407238397097503
7036.91174811487,-0.002307092785303856
7036.912747886792,-0.0022069968609911023
7036.913747658715,-0.0021069647148500054
7036.914747430637,-0.002007010253905227
7036.915747202561,-0.0019071471986126314
7036.916746974483,-0.0018073890800742055
7036.917746746406,-0.0017077492373705862
7036.918746518329,-0.0016082408150110365
7036.919746290252,-0.0015088767605005722
7036.920746062175,-0.0014096698220238436
7036.921745834097,-0.001310632546245305
7036.92274560602,-0.001211777276225177
7036.923745377942,-0.0011131161494507297
7036.924745149865,-0.001014661095982455
7036.9257449217885,-0.0009164238367147945
7036.926744693711,-0.0008184158817511755
7036.927744465634,-0.0007206485288932087
7036.928744237556,-0.0006231328622439765
7036.929744009479,-0.0005258797509253824
7036.930743781402,-0.00042889984790953306
7036.931743553325,-0.00033220358896407536
7036.932743325247,-0.00023580119171132306
7036.93374309717,-0.00013970265480088938
7036.934742869093,-4.3917757195391884e-05
7036.935742641015,5.154394243135306e-05
7036.936742412939,0.00014667310618437599
7036.937742184861,0.00024146061732669888
7036.938741956784,0.00033589758054854076
7036.939741728706,0.000429975322127621
7036.94074150063,0.000523685389981646
7036.9417412725525,0.0006170195536140955
7036.942741044475,0.000709969803954449
7036.943740816398,0.0008025283530940192
7036.94474058832,0.0008946876339185875
7036.945740360243,0.0009864402996390656
7036.946740132166,0.001077779223221442
7036.947739904089,0.0011686974967172927
7036.948739676011,0.0012591884304961624
7036.949739447934,0.0013492455523811356
7036.950739219857,0.0014388626066889313
7036.95173899178,0.0015280335531758864
7036.952738763703,0.0016167525658912186
7036.953738535625,0.0017050140319389902
7036.954738307548,0.0017928125501502433
7036.95573807947,0.001880142929666805
7036.956737851393,0.0019670001884383266
7036.9577376233165,0.0020533795516341695
7036.958737395239,0.0021392764499718053
7036.959737167162,0.002224686517963442
7036.960736939084,0.00230960559208261
7036.961736711007,0.002394029708852447
7036.96273648293,0.0024779551028574188
7036.963736254853,0.0025613782046802033
7036.964736026775,0.0026442956387654473
7036.965735798698,0.0027267042212121015
7036.966735570621,0.0028086009574960417
7036.967735342543,0.0028899830401246745
7036.968735114467,0.0029708478462252275
7036.969734886389,0.0030511929350684145
7036.970734658312,0.003131016045529167
7036.971734430234,0.003210315093486133
7036.972734202158,0.003289088169161654
7036.9737339740805,0.003367333534403962
7036.974733746003,0.0034450496199133276
7036.975733517926,0.003522235022413924
7036.976733289848,0.0035988885017731497
7036.977733061771,0.003675008978070163
7036.978732833694,0.003750595528615363
7036.979732605617,0.0038256473849225584
7036.980732377539,0.003900163929635587
7036.981732149462,0.003974144693411129
7036.982731921385,0.004047589351759482
7036.983731693308,0.004120497721845077
7036.984731465231,0.004192869759248501
7036.985731237153,0.004264705554691816
7036.986731009076,0.004336005330728953
7036.987730780998,0.004406769438403024
7036.988730552921,0.004476998353872412
7036.9897303248445,0.004546692675007639
7036.990730096767,0.0046158531179610425
7036.99172986869,0.004684480513711434
7036.992729640612,0.0047525758045859935
7036.993729412535,0.004820140040761726
7036.994729184458,0.0048871743767488224
7036.995728956381,0.004953680067858245
7036.996728728303,0.0050196584666557745
7036.997728500226,0.005085111019404602
7036.998728272149,0.0051500392624984435
7036.999728044071,0.005214444818887008
7037.000727815995,0.005278329394495601
7037.001727587917,0.0053416947746406426
7037.00272735984,0.005404542820442925
7037.003727131762,0.00546687546524049
7037.004726903686,0.005528694711003028
7037.0057266756085,0.005590002624749799
7037.006726447531,0.005650801334973062
7037.007726219454,0.0057110930280690414
7037.008725991376,0.005770879944778533
7037.009725763299,0.005830164376639265
7037.010725535222,0.005888948662452166
7037.011725307145,0.0059472351847637585
7037.012725079067,0.006005026366366912
7037.01372485099,0.006062324666822225
7037.014724622913,0.006119132579002342
7037.015724394836,0.006175452625661508
7037.016724166759,0.006231287356032638
7037.017723938681,0.00628663934245411
7037.018723710604,0.006341511177028478
7037.019723482526,0.006395905468315157
7037.020723254449,0.006449824838059111
7037.0217230263725,0.0065032719179574094
7037.022722798295,0.006556249346465409
7037.023722570218,0.006608759765644173
7037.02472234214,0.006660805818050509
7037.025722114064,0.00671239014367083
7037.026721885986,0.006763515376899751
7037.027721657909,0.006814184143564143
7037.028721429831,0.0068643990579930975
7037.029721201754,0.0069141627201340745
7037.030720973677,0.006963477712715313
7037.0317207456,0.007012346598454393
7037.032720517523,0.007060771917312727
7037.033720289445,0.007108756183795685
7037.034720061368,0.007156301884297979
7037.03571983329,0.007203411474493889
7037.036719605214,0.007250087376771915
7037.037719377136,0.007296331977713374
7037.038719149059,0.0073421476256144615
7037.039718920982,0.007387536628051255
7037.040718692904,0.0074325012494871594
7037.041718464827,0.007477043708922308
7037.04271823675,0.007521166177584506
7037.043718008673,0.0075648707766614014
7037.044717780595,0.007608159575073671
7037.045717552518,0.007651034587289147
7037.046717324441,0.007693497771177897
7037.047717096364,0.007735551025908366
7037.048716868287,0.007777196189884739
7037.049716640209,0.007818435038725705
7037.050716412132,0.007859269283284781
7037.051716184054,0.007899700567712397
7037.052715955977,0.00793973046755997
7037.0537157279,0.00797936048792624
7037.054715499823,0.0080185920616462
7037.055715271746,0.008057426547523113
7037.056715043668,0.008095865228604145
7037.057714815592,0.008133909310500228
7037.058714587514,0.008171559919750875
7037.059714359437,0.008208818102234651
7037.060714131359,0.008245684821626076
7037.061713903282,0.008282160957899633
7037.062713675205,0.008318247305881508
7037.063713447128,0.008353944573849623
7037.064713219051,0.008389253382182464
7037.065712990973,0.008424174262057141
7037.066712762896,0.008458707654197097
7037.067712534818,0.008492853907669823
7037.068712306742,0.008526613278734971
7037.069712078664,0.008559985929743188
7037.070711850587,0.008592971928086012
7037.07171162251,0.008625571245197115
7037.072711394432,0.008657783755605154
7037.073711166355,0.008689609236038483
7037.074710938278,0.008721047364581892
7037.075710710201,0.008752097719885535
7037.076710482123,0.008782759780426194
7037.077710254046,0.00881303292382095
7037.078710025969,0.008842916426193417
7037.079709797892,0.008872409461592663
7037.080709569815,0.00890151110146511
7037.081709341737,0.008930220314179728
7037.08270911366,0.008958535964607129
7037.083708885582,0.008986456813753287
7037.084708657506,0.009013981518448885
7037.085708429428,0.009041108631095486
7037.086708201351,0.00906783659946994
7037.087707973274,0.00909416376658853
7037.088707745196,0.00912008837063244
7037.08970751712,0.009145608544936139
7037.090707289042,0.009170722318040137
7037.091707060965,0.009195427613809532
7037.092706832887,0.009219722251619617
7037.09370660481,0.009243603946609735
7037.094706376733,0.009267070310006474
7037.095706148656,0.00929011884951727
7037.096705920579,0.009312746969795385
7037.097705692501,0.009334951972977243
7037.098705464424,0.009356731059293065
7037.099705236346,0.009378081327751663
7037.10070500827,0.00939899977690029
7037.101704780192,0.009419483305660298
7037.102704552115,0.009439528714239203
7037.103704324038,0.00945913270511968
7037.10470409596,0.009478291884125807
7037.105703867883,0.009497002761566767
7037.106703639806,0.009515261753458097
7037.107703411729,0.00953306518282051
7037.108703183651,0.009550409281056256
7037.109702955574,0.009567290189402892
7037.1107027274975,0.009583703960464362
7037.11170249942,0.009599646559819134
7037.112702271343,0.009615113867705131
7037.113702043265,0.009630101680781144
7037.114701815188,0.009644605713964244
7037.11570158711,0.009658621602342739
7037.116701359034,0.009672144903164072
7037.117701130956,0.009685171097897027
7037.118700902879,0.009697695594367539
7037.119700674802,0.00970971372896733
7037.120700446724,0.00972122076893447
7037.121700218648,0.009732211914704945
7037.12269999057,0.009742682302334084
7037.123699762493,0.00975262700598671
7037.124699534415,0.009762041040494673
7037.125699306338,0.009770919363980413
7037.126699078261,0.009779256880545062
7037.127698850184,0.009787048443019608
7037.128698622107,0.009794288855777607
7037.129698394029,0.009800972877607872
7037.130698165952,0.00980709522464551
7037.131697937874,0.009812650573359642
7037.132697709798,0.009817633563595987
7037.13369748172,0.009822038801672437
7037.134697253643,0.009825860863525538
7037.135697025566,0.009829094297905659
7037.136696797488,0.00983173362961843
7037.137696569411,0.009833773362809899
7037.138696341334,0.009835207984292656
7037.139696113257,0.00983603196691014
7037.140695885179,0.009836239772936147
7037.141695657102,0.009835825857506607
7037.1426954290255,0.009834784672080644
7037.143695200948,0.00983311066792795
7037.144694972871,0.009830798299639447
7037.145694744793,0.009827842028658289
7037.146694516716,0.009824236326828158
7037.147694288638,0.009819975679955835
7037.148694060562,0.009815054591384967
7037.149693832484,0.009809467585577969
7037.150693604407,0.009803209211702963
7037.15169337633,0.009796274047222728
7037.152693148252,0.009788656701482582
7037.153692920176,0.009780351819294198
7037.154692692098,0.009771354084512341
7037.155692464021,0.00976165822360153
7037.156692235943,0.009751259009189618
7037.157692007866,0.009740151263605298
7037.158691779789,0.009728329862396613
7037.159691551712,0.009715789737827529
7037.160691323635,0.009702525882349709
7037.161691095557,0.009688533352046669
7037.16269086748,0.0096738072700475
7037.163690639403,0.009658342829907324
7037.164690411326,0.009642135298951566
7037.165690183248,0.009625180021581034
7037.166689955171,0.009607472422534659
7037.167689727094,0.009589008010106691
7037.168689499016,0.009569782379315156
7037.16968927094,0.009549791215018456
7037.170689042862,0.009529030294977247
7037.171688814785,0.00950749549285898
7037.172688586707,0.009485182781182783
7037.17368835863,0.009462088234202682
7037.1746881305535,0.009438208030727436
7037.175687902476,0.00941353845687547
7037.176687674399,0.009388075908763623
7037.177687446321,0.009361816895128602
7037.178687218244,0.009334758039880183
7037.179686990166,0.009306896084585362
7037.18068676209,0.009278227890882833
7037.181686534012,0.009248750442827348
7037.182686305935,0.00921846084916364
7037.183686077858,0.009187356345529722
7037.18468584978,0.00915543429658945
7037.185685621704,0.009122692198094296
7037.186685393626,0.009089127678874312
7037.187685165549,0.009054738502758236
7037.188684937471,0.009019522570422711
7037.189684709394,0.008983477921170536
7037.190684481317,0.008946602734637881
7037.19168425324,0.008908895332430401
7037.192684025163,0.008870354179688197
7037.193683797085,0.008830977886579671
7037.194683569008,0.008790765209724369
7037.195683340931,0.008749715053545054
7037.196683112854,0.008707826471549353
7037.197682884776,0.008665098667541435
7037.198682656699,0.008621530996764224
7037.199682428622,0.008577122966972717
7037.200682200544,0.00853187423943896
7037.201681972468,0.00848578462988929
7037.20268174439,0.008438854109374424
7037.203681516313,0.008391082805072992
7037.204681288235,0.008342471001029125
7037.205681060158,0.008293019138824692
7037.2066808320815,0.008242727818186696
7037.207680604004,0.008191597797530254
7037.208680375927,0.00813962999443741
7037.209680147849,0.008086825486071862
7037.210679919772,0.008033185509529502
7037.211679691694,0.007978711462124468
7037.212679463618,0.007923404901610342
7037.21367923554,0.007867267546335991
7037.214679007463,0.007810301275335675
7037.215678779386,0.007752508128353122
7037.216678551308,0.007693890305799523
7037.217678323232,0.007634450168645614
7037.218678095154,0.007574190238248391
7037.219677867077,0.007513113196113204
7037.220677638999,0.007451221883592325
7037.221677410922,0.007388519301521316
7037.222677182845,0.007325008609794677
7037.223676954768,0.007260693126882387
7037.224676726691,0.00719557632928899
7037.225676498613,0.007129661850956855
7037.226676270536,0.007062953482615293
7037.227676042459,0.006995455171077156
7037.228675814382,0.0069271710184845795
7037.229675586304,0.006858105281505494
7037.230675358227,0.006788262370482558
7037.23167513015,0.006717646848536085
7037.232674902072,0.006646263430622519
7037.233674673996,0.006574116982549864
7037.234674445918,0.006501212519951399
7037.235674217841,0.006427555207218862
7037.236673989763,0.006353150356396116
7037.237673761686,0.0062780034260342095
7037.2386735336095,0.006202120020008631
7037.239673305532,0.006125505886299446
7037.240673077455,0.006048166915735014
7037.241672849377,0.005970109140699901
7037.2426726213,0.005891338733807654
7037.243672393222,0.005811862006539074
7037.244672165146,0.0057316854078466786
7037.245671937068,0.005650815522726065
7037.246671708991,0.005569259070754945
7037.247671480914,0.005487022904600696
7037.248671252837,0.005404114008497267
7037.24967102476,0.005320539496692375
7037.250670796682,0.005236306611865917
7037.251670568605,0.005151422723520606
7037.252670340527,0.005065895326345873
7037.25367011245,0.0049797320385561086
7037.2546698843735,0.004892940600204314
7037.255669656296,0.004805528871472207
7037.256669428219,0.004717504830937754
7037.257669200141,0.004628876573821041
7037.258668972064,0.004539652310209275
7037.259668743987,0.004449840363261721
7037.26066851591,0.004359449167395268
7037.261668287832,0.004268487266451356
7037.262668059755,0.004176963311844947
7037.263667831678,0.004084886060696256
7037.2646676036,0.003992264373945958
7037.265667375524,0.003899107214454588
7037.266667147446,0.003805423645086878
7037.267666919369,0.003711222826781763
7037.268666691291,0.003616514016608756
7037.269666463214,0.0035213065658114048
7037.2706662351375,0.0034256099178384685
7037.27166600706,0.003329433606363459
7037.272665778983,0.0032327872532931325
7037.273665550905,0.0031356805667654966
7037.274665322828,0.0030381233391378964
7037.27566509475,0.0029401254449657383
7037.276664866674,0.002841696838972409
7037.277664638596,0.002742847554010959
7037.278664410519,0.0026435876990181383
7037.279664182442,0.002543927456961341
7037.280663954365,0.00244387708277904
7037.281663726288,0.0023434469013152662
7037.28266349821,0.0022426473052486982
7037.283663270133,0.0021414887530169405
7037.284663042055,0.0020399817667365937
7037.285662813978,0.0019381369301197597
7037.2866625859015,0.0018359648863876738
7037.287662357824,0.001733476336182228
7037.288662129747,0.0016306820354762
7037.289661901669,0.0015275927934830606
7037.290661673592,0.0014242194705672711
7037.291661445515,0.001320572976156023
7037.292661217438,0.0012166642666534043
7037.29366098936,0.0011125043433579873
7037.294660761283,0.0010081042503848516
7037.295660533206,0.0009034750725930469
7037.296660305128,0.0007986279335194853
7037.297660077052,0.0006935739933202357
7037.298659848974,0.0005883244467201603
7037.299659620897,0.000482890520971833
7037.300659392819,0.0003772834738246733
7037.301659164743,0.000271514591505227
7037.3026589366655,0.00016559518670951868
7037.303658708588,5.953659660838298e-05
7037.304658480511,-4.6649819133353215e-05
7037.305658252433,-0.0001529526803230092
7037.306658024356,-0.0002593605881907345
7037.307657796279,-0.0003658621273240178
7037.308657568202,-0.0004724458675853549
7037.309657340124,-0.0005791003660124582
7037.310657112047,-0.000685814168700433
7037.31165688397,-0.0007925758126653729
7037.312656655893,-0.0008993738276888497
7037.313656427816,-0.0010061967381427787
7037.314656199738,-0.0011130330647941408
7037.315655971661,-0.0012198713265890316
7037.316655743583,-0.0013267000424154985
7037.317655515506,-0.001433507732844622
7037.3186552874295,-0.0015402829218492948
7037.319655059352,-0.0016470141385001506
7037.320654831275,-0.001753689918638085
7037.321654603197,-0.001860298806522791
7037.32265437512,-0.001966829356456711
7037.323654147043,-0.0020732701343837913
7037.324653918966,-0.0021796097194624006
7037.325653690888,-0.0022858367056117837
7037.326653462811,-0.002391939703031406
7037.327653234734,-0.0024979073396925637
7037.328653006656,-0.0026037282628016394
7037.32965277858,-0.002709391140234385
7037.330652550502,-0.0028148846619406327
7037.331652322425,-0.002920197541318832
7037.332652094347,-0.0030253185165598213
7037.333651866271,-0.003130236351959258
7037.3346516381935,-0.0032349398391981377
7037.335651410116,-0.0033394177985908357
7037.336651182039,-0.003443659080300116
7037.337650953961,-0.0035476525655185618
7037.338650725884,-0.0036513871676158755
7037.339650497807,-0.003754851833251521
7037.34065026973,-0.003858035543452186
7037.341650041652,-0.003960927314653516
7037.342649813575,-0.004063516199705584
7037.343649585498,-0.004165791288841507
7037.344649357421,-0.0042677417106085766
7037.345649129344,-0.004369356632761184
7037.346648901266,-0.00447062526311477
7037.347648673189,-0.004571536850359869
7037.348648445111,-0.004672080684835235
7037.349648217034,-0.004772246099258875
7037.3506479889575,-0.00487202246941565
7037.35164776088,-0.00497139921479995
7037.352647532803,-0.005070365799211818
7037.353647304725,-0.005168911731304697
7037.354647076648,-0.005267026565082927
7037.355646848571,-0.005364699900347011
7037.356646620494,-0.005461921383084788
7037.357646392416,-0.005558680705806719
7037.358646164339,-0.005654967607823803
7037.359645936262,-0.005750771875466886
7037.360645708184,-0.005846083342246473
7037.361645480108,-0.00594089188895244
