LSL_Time,PLUX_P2_nSeq,PLUX_P2_ECG0,PLUX_P2_EMG1,PLUX_P2_EMG2,PLUX_P2_RIP3
6513.059254207339,1196616.0,-0.0008999999845400453,-0.0010400000028312206,-0.005900000222027302,15.923999786376953
6513.060253979262,1196617.0,-0.0027000000700354576,0.0024500000290572643,-0.002090000081807375,15.86299991607666
6513.061253751184,1196618.0,-0.0053900000639259815,0.00018000000272877514,0.001449999981559813,15.911999702453613
6513.062253523107,1196619.0,-0.007009999826550484,0.004269999917596579,0.0002699999895412475,15.826000213623047
6513.063253295029,1196620.0,-0.008089999668300152,-0.006630000192672014,0.0016299999551847577,15.96399974822998
6513.064253066952,1196621.0,-0.005659999791532755,0.000910000002477318,-0.0011399999493733048,16.027999877929688
6513.0652528388755,1196622.0,-0.0016199999954551458,0.008449999615550041,-0.005859999917447567,16.10700035095215
6513.066252610798,1196623.0,-0.0012600000482052565,0.0024999999441206455,-0.002360000042244792,15.972999572753906
6513.067252382721,1196624.0,-0.00107999995816499,0.003269999986514449,0.003539999946951866,16.131999969482422
6513.068252154643,1196625.0,0.0,0.0021299999207258224,-0.0012700000079348683,15.729000091552734
6513.069251926566,1196626.0,0.0018899999558925629,-0.0027199999894946814,0.001500000013038516,15.947999954223633
6513.070251698489,1196627.0,0.0006300000241026282,-0.004269999917596579,0.0016299999551847577,16.08300018310547
6513.071251470412,1196628.0,-0.0003600000054575503,0.0028200000524520874,0.003909999970346689,16.118999481201172
6513.0722512423345,1196629.0,0.0006699999794363976,-0.0007300000288523734,4.999999873689376e-05,16.034000396728516
6513.073251014257,1196630.0,0.00107999995816499,0.003809999907389283,-0.008129999972879887,16.13800048828125
6513.07425078618,1196631.0,0.0015300000086426735,-0.005270000081509352,0.0006799999973736703,15.781999588012695
6513.075250558102,1196632.0,0.0026100000832229853,0.0022299999836832285,-0.005590000189840794,16.03700065612793
6513.076250330026,1196633.0,0.0033199999015778303,0.0020000000949949026,-0.006899999920278788,16.167999267578125
6513.077250101948,1196634.0,0.005570000037550926,-0.0076299998909235,-0.004269999917596579,16.19300079345703
6513.078249873871,1196635.0,0.005929999984800816,-0.003809999907389283,-0.005179999861866236,15.680000305175781
6513.079249645793,1196636.0,0.004220000002533197,-0.00203999993391335,0.003809999907389283,16.16200065612793
6513.080249417716,1196637.0,0.0037700000684708357,0.003539999946951866,-0.004540000110864639,15.939000129699707
6513.0812491896395,1196638.0,0.0030499999411404133,0.0010000000474974513,-0.0007300000288523734,16.07699966430664
6513.082248961562,1196639.0,0.0035000001080334187,-0.0027199999894946814,0.004900000058114529,16.159000396728516
6513.083248733485,1196640.0,0.004310000222176313,0.0002300000051036477,-0.004769999999552965,15.961000442504883
6513.084248505407,1196641.0,0.0033199999015778303,0.0033199999015778303,0.0024999999441206455,16.024999618530273
6513.08524827733,1196642.0,0.0035000001080334187,0.002360000042244792,-0.00018000000272877514,15.923999786376953
6513.086248049253,1196643.0,0.004670000169426203,-0.004360000137239695,-0.004269999917596579,16.04599952697754
6513.087247821176,1196644.0,0.005929999984800816,0.0002699999895412475,-0.004900000058114529,16.05500030517578
6513.0882475930985,1196645.0,0.005570000037550926,-0.0016299999551847577,0.00041000000783242285,15.694999694824219
6513.089247365021,1196646.0,0.003949999809265137,0.0012700000079348683,-0.002360000042244792,16.016000747680664
6513.090247136944,1196647.0,0.0021100000012665987,0.0012700000079348683,0.0006799999973736703,15.958000183105469
6513.091246908867,1196648.0,0.0012600000482052565,0.0021800000686198473,0.000590000010561198,16.03700065612793
6513.09224668079,1196649.0,0.0006300000241026282,-0.003539999946951866,-0.0008200000156648457,16.229000091552734
6513.093246452712,1196650.0,-0.00107999995816499,0.0022299999836832285,-0.004809999838471413,16.219999313354492
6513.094246224635,1196651.0,-0.0029200001154094934,0.001449999981559813,-0.005270000081509352,16.17300033569336
6513.095245996557,1196652.0,-0.003590000094845891,-0.0012700000079348683,0.000539999979082495,16.040000915527344
6513.09624576848,1196653.0,-0.0031399999279528856,-0.001500000013038516,0.000910000002477318,16.040000915527344
6513.0972455404035,1196654.0,-0.0015300000086426735,-0.005179999861866236,-0.00044999999227002263,15.972999572753906
6513.098245312326,1196655.0,0.0,0.0030900000128895044,0.000590000010561198,15.982000350952148
6513.099245084249,1196656.0,0.0016199999954551458,-0.0063599999994039536,0.0021800000686198473,16.06599998474121
6513.100244856171,1196657.0,0.0012600000482052565,4.999999873689376e-05,-0.004089999943971634,16.204999923706055
6513.101244628094,1196658.0,-0.000539999979082495,-0.002859999891370535,0.002090000081807375,16.1560001373291
6513.102244400017,1196659.0,-0.0026499999221414328,-0.004900000058114529,0.002589999930933118,16.24799919128418
6513.10324417194,1196660.0,-0.0008999999845400453,-0.005489999894052744,-0.006579999811947346,16.128999710083008
6513.1042439438625,1196661.0,0.00215999991632998,0.000910000002477318,-0.005539999809116125,15.753000259399414
6513.105243715785,1196662.0,0.004310000222176313,0.0030900000128895044,-0.001180000021122396,16.017000198364258
6513.106243487708,1196663.0,0.005210000090301037,-0.0007699999841861427,-0.001230000052601099,16.277999877929688
6513.107243259631,1196664.0,0.003909999970346689,0.0,-0.005539999809116125,15.77299976348877
6513.108243031554,1196665.0,0.0024300001095980406,0.0017300000181421638,-0.002630000002682209,16.295000076293945
6513.109242803476,1196666.0,0.0016199999954551458,0.003449999960139394,0.004449999891221523,15.961000442504883
6513.110242575399,1196667.0,0.0006699999794363976,0.0020000000949949026,0.0059899999760091305,16.128999710083008
6513.111242347321,1196668.0,-0.0007600000244565308,-0.007079999893903732,-0.0020000000949949026,16.253999710083008
6513.112242119244,1196669.0,-0.003229999914765358,0.0012700000079348683,-0.003719999920576811,16.290000915527344
6513.1132418911675,1196670.0,-0.0028800000436604023,-0.0030400000978261232,0.003809999907389283,15.923999786376953
6513.11424166309,1196671.0,-0.0013899999903514981,-0.007079999893903732,0.000539999979082495,16.204999923706055
6513.115241435013,1196672.0,-0.0008999999845400453,-0.005179999861866236,-0.005630000028759241,16.19300079345703
6513.116241206935,1196673.0,9.000000136438757e-05,-0.001500000013038516,-0.0027199999894946814,16.32699966430664
6513.117240978858,1196674.0,0.0012600000482052565,-0.000539999979082495,-0.005900000222027302,16.159000396728516
6513.118240750781,1196675.0,0.000539999979082495,0.0024500000290572643,0.000910000002477318,16.1560001373291
6513.119240522704,1196676.0,0.00018000000272877514,0.006810000166296959,-0.0027199999894946814,16.073999404907227
6513.1202402946265,1196677.0,9.000000136438757e-05,0.002360000042244792,-0.005859999917447567,16.143999099731445
6513.121240066549,1196678.0,-0.000539999979082495,0.001769999973475933,0.0010000000474974513,16.341999053955078
6513.122239838472,1196679.0,-0.0008999999845400453,0.004220000002533197,-0.0015399999683722854,16.20800018310547
6513.123239610395,1196680.0,0.0002699999895412475,-0.003949999809265137,-0.0051299999468028545,16.1560001373291
6513.124239382318,1196681.0,0.0017500000540167093,0.00018000000272877514,0.0010900000343099236,16.183000564575195
6513.12523915424,1196682.0,0.0016199999954551458,-0.005770000163465738,-0.004900000058114529,16.091999053955078
6513.126238926163,1196683.0,0.0012600000482052565,-0.004769999999552965,-0.003809999907389283,16.167999267578125
6513.127238698085,1196684.0,0.001979999942705035,-0.0006399999838322401,0.000910000002477318,16.378999710083008
6513.128238470008,1196685.0,0.0017500000540167093,-0.004540000110864639,0.003809999907389283,16.235000610351562
6513.1292382419315,1196686.0,-0.00018000000272877514,4.999999873689376e-05,0.0036299999337643385,16.20599937438965
6513.130238013854,1196687.0,-0.0017999999690800905,-0.004900000058114529,-0.004089999943971634,16.382999420166016
6513.131237785777,1196688.0,-0.003010000102221966,-0.004040000028908253,-0.003719999920576811,16.24799919128418
6513.132237557699,1196689.0,-0.004040000028908253,-0.004679999779909849,-0.0025400000158697367,16.344999313354492
6513.133237329622,1196690.0,-0.0053900000639259815,0.0016299999551847577,-0.003449999960139394,16.167999267578125
6513.134237101545,1196691.0,-0.005210000090301037,-0.0006399999838322401,0.00031999999191612005,16.2810001373291
6513.135236873468,1196692.0,-0.0026100000832229853,-0.006539999973028898,0.0027199999894946814,16.381999969482422
6513.13623664539,1196693.0,-0.0017999999690800905,-0.0036299999337643385,-0.00418000016361475,16.138999938964844
6513.137236417313,1196694.0,-0.0016199999954551458,0.0016299999551847577,-0.0014100000262260437,16.219999313354492
6513.138236189236,1196695.0,-0.0017099999822676182,0.0028200000524520874,0.002360000042244792,16.320999145507812
6513.139235961159,1196696.0,-0.0018400000408291817,-0.006719999946653843,0.003909999970346689,16.290000915527344
6513.140235733082,1196697.0,-0.0012600000482052565,-0.0019099999917671084,-0.0014100000262260437,16.424999237060547
6513.141235505004,1196698.0,0.0,0.0013599999947473407,-0.003000000026077032,16.277999877929688
6513.142235276927,1196699.0,0.0009899999713525176,-0.004540000110864639,-0.00041000000783242285,16.424999237060547
6513.143235048849,1196700.0,0.00215999991632998,-0.004900000058114529,-0.0016299999551847577,15.947999954223633
6513.144234820773,1196701.0,0.0018899999558925629,-0.004089999943971634,0.001820000004954636,16.344999313354492
6513.1452345926955,1196702.0,0.000539999979082495,-0.003590000094845891,-0.0059899999760091305,16.257999420166016
6513.146234364618,1196703.0,-9.000000136438757e-05,0.0016299999551847577,-0.005539999809116125,16.319000244140625
6513.147234136541,1196704.0,-9.000000136438757e-05,0.003809999907389283,-0.00418000016361475,16.110000610351562
6513.148233908463,1196705.0,-0.00044999999227002263,0.0013200000394135714,0.0020000000949949026,16.354000091552734
6513.149233680386,1196706.0,-0.0009899999713525176,0.000910000002477318,0.0016299999551847577,16.2189998626709
6513.150233452309,1196707.0,-0.0013500000350177288,-0.004540000110864639,-0.004540000110864639,16.290000915527344
6513.151233224232,1196708.0,-0.001979999942705035,-9.000000136438757e-05,-0.0021299999207258224,16.040000915527344
6513.152232996154,1196709.0,-0.0024300001095980406,0.002950000111013651,-0.0021800000686198473,16.216999053955078
6513.153232768077,1196710.0,-0.0027000000700354576,0.0016299999551847577,0.0016299999551847577,16.329999923706055
6513.15423254,1196711.0,-0.0015300000086426735,0.005900000222027302,-0.004900000058114529,16.305999755859375
6513.155232311923,1196712.0,-0.00018000000272877514,0.0013200000394135714,0.0015399999683722854,16.451000213623047
6513.156232083846,1196713.0,0.00215999991632998,-0.0012700000079348683,0.002589999930933118,16.35700035095215
6513.157231855768,1196714.0,0.0030499999411404133,0.007180000189691782,-0.003449999960139394,16.118999481201172
6513.158231627691,1196715.0,0.0034099998883903027,-0.002360000042244792,-0.004089999943971634,16.315000534057617
6513.159231399613,1196716.0,0.0030499999411404133,-0.0059899999760091305,-0.003269999986514449,16.340999603271484
6513.160231171537,1196717.0,0.0020699999295175076,-0.003719999920576811,-0.0002699999895412475,16.323999404907227
6513.1612309434595,1196718.0,0.0012600000482052565,-0.005630000028759241,0.002090000081807375,16.37700080871582
6513.162230715382,1196719.0,-0.0012600000482052565,-0.0059899999760091305,-0.0012700000079348683,16.415000915527344
6513.163230487305,1196720.0,-0.003229999914765358,-0.0015399999683722854,-0.0016299999551847577,16.100000381469727
6513.164230259227,1196721.0,-0.0036800000816583633,0.0025400000158697367,0.002360000042244792,16.27199935913086
6513.16523003115,1196722.0,-0.003229999914765358,-0.005900000222027302,0.0002300000051036477,16.266000747680664
6513.166229803073,1196723.0,-0.0027000000700354576,0.000539999979082495,0.0002699999895412475,16.39299964904785
6513.167229574996,1196724.0,-0.001930000027641654,0.0030900000128895044,-0.0036299999337643385,16.2810001373291
6513.168229346918,1196725.0,-0.0008999999845400453,-0.0021800000686198473,0.005040000192821026,16.07699966430664
6513.169229118841,1196726.0,-0.001979999942705035,0.004269999917596579,-0.002950000111013651,16.149999618530273
6513.170228890764,1196727.0,-0.0024300001095980406,-0.004360000137239695,-0.004900000058114529,16.260000228881836
6513.171228662687,1196728.0,-0.002959999954327941,0.0002300000051036477,-0.0007699999841861427,16.10099983215332
6513.17222843461,1196729.0,-0.003229999914765358,-0.000539999979082495,-0.004999999888241291,16.594999313354492
6513.173228206532,1196730.0,-0.0036800000816583633,-0.006990000139921904,-0.0012700000079348683,16.216999053955078
6513.174227978455,1196731.0,-0.003909999970346689,-0.0030900000128895044,-0.0027199999894946814,16.47599983215332
6513.175227750377,1196732.0,-0.0030499999411404133,-0.0029100000392645597,0.000539999979082495,16.152999877929688
6513.176227522301,1196733.0,-0.0023399998899549246,0.001820000004954636,0.0002699999895412475,16.347999572753906
6513.1772272942235,1196734.0,-0.0016199999954551458,-0.0036299999337643385,-0.00418000016361475,16.17300033569336
6513.178227066146,1196735.0,-0.0024300001095980406,-0.0076299998909235,-0.0018599999602884054,16.547000885009766
6513.179226838069,1196736.0,-0.003590000094845891,-0.005179999861866236,-0.0003600000054575503,16.339000701904297
6513.180226609991,1196737.0,-0.0034099998883903027,0.000539999979082495,0.0009500000160187483,16.302000045776367
6513.181226381914,1196738.0,-0.0023399998899549246,0.001820000004954636,-0.0062699997797608376,16.424999237060547
6513.182226153837,1196739.0,-0.0017999999690800905,-0.006630000192672014,-0.004540000110864639,16.573999404907227
6513.18322592576,1196740.0,-0.0028800000436604023,0.0010900000343099236,0.002589999930933118,16.20800018310547
6513.184225697682,1196741.0,-0.004040000028908253,0.0036800000816583633,-0.0007699999841861427,16.57699966430664
6513.185225469605,1196742.0,-0.004310000222176313,0.003809999907389283,-0.003590000094845891,16.327999114990234
6513.186225241528,1196743.0,-0.004579999949783087,-0.006719999946653843,0.001500000013038516,16.2450008392334
6513.187225013451,1196744.0,-0.005119999870657921,0.0024999999441206455,0.001769999973475933,16.402999877929688
6513.188224785374,1196745.0,-0.0053900000639259815,0.006089999806135893,-0.004360000137239695,16.510000228881836
6513.189224557296,1196746.0,-0.00547999981790781,0.0021299999207258224,0.0007300000288523734,16.510000228881836
6513.190224329219,1196747.0,-0.004490000195801258,0.000910000002477318,0.000590000010561198,16.6560001373291
6513.191224101141,1196748.0,-0.0034099998883903027,0.0013599999947473407,-0.00686000008136034,16.516000747680664
6513.192223873065,1196749.0,-0.0023399998899549246,0.0015399999683722854,0.000910000002477318,16.570999145507812
6513.1932236449875,1196750.0,-0.0023399998899549246,-0.007079999893903732,0.0012700000079348683,16.347999572753906
6513.19422341691,1196751.0,-0.0037700000684708357,-0.002950000111013651,0.0015399999683722854,16.541000366210938
6513.195223188833,1196752.0,-0.005119999870657921,-0.00418000016361475,-0.004540000110864639,16.5310001373291
6513.196222960755,1196753.0,-0.006829999852925539,-0.003590000094845891,-0.004449999891221523,16.6200008392334
6513.197222732679,1196754.0,-0.005750000011175871,-0.0033599999733269215,0.0006399999838322401,16.573999404907227
6513.198222504601,1196755.0,-0.0053900000639259815,0.004540000110864639,-0.0033199999015778303,16.63800048828125
6513.199222276524,1196756.0,-0.005119999870657921,0.002360000042244792,-0.003220000071451068,16.37299919128418
6513.200222048446,1196757.0,-0.004490000195801258,-0.004449999891221523,0.0021299999207258224,16.35700035095215
6513.201221820369,1196758.0,-0.005210000090301037,-0.006719999946653843,-0.005900000222027302,16.74799919128418
6513.202221592292,1196759.0,-0.005570000037550926,-0.000910000002477318,-0.0036299999337643385,16.253999710083008
6513.203221364215,1196760.0,-0.007009999826550484,-0.004310000222176313,0.004360000137239695,16.643999099731445
6513.204221136138,1196761.0,-0.00773000018671155,-0.0033199999015778303,0.0024999999441206455,16.56800079345703
6513.20522090806,1196762.0,-0.006240000016987324,0.0,-0.003449999960139394,16.290000915527344
6513.206220679983,1196763.0,-0.004089999943971634,-0.004000000189989805,-0.0036299999337643385,16.309999465942383
6513.207220451905,1196764.0,-0.0037700000684708357,-0.0034099998883903027,-0.0030900000128895044,16.77899932861328
6513.208220223829,1196765.0,-0.004129999782890081,-0.002090000081807375,0.003909999970346689,16.38800048828125
6513.2092199957515,1196766.0,-0.004670000169426203,0.003809999907389283,-0.00018000000272877514,16.625999450683594
6513.210219767674,1196767.0,-0.004360000137239695,-0.004360000137239695,0.002950000111013651,16.6200008392334
6513.211219539597,1196768.0,-0.0022499999031424522,-0.005950000137090683,-0.0013599999947473407,16.709999084472656
6513.212219311519,1196769.0,-0.0018899999558925629,0.00418000016361475,-0.006719999946653843,16.6200008392334
6513.213219083442,1196770.0,-0.0012100000167265534,0.0063599999994039536,0.004720000084489584,16.746999740600586
6513.214218855365,1196771.0,-0.0017099999822676182,0.0009500000160187483,-0.000539999979082495,16.649999618530273
6513.215218627288,1196772.0,-0.0029200001154094934,-0.0063599999994039536,-0.004540000110864639,16.704999923706055
6513.21621839921,1196773.0,-0.005210000090301037,0.0016299999551847577,-0.004900000058114529,16.64699935913086
6513.217218171133,1196774.0,-0.00547999981790781,0.0025400000158697367,-0.0010900000343099236,16.49799919128418
6513.218217943056,1196775.0,-0.004720000084489584,0.0010000000474974513,0.002090000081807375,16.663000106811523
6513.219217714979,1196776.0,-0.0048500001430511475,-0.005859999917447567,-0.005040000192821026,16.674999237060547
6513.220217486902,1196777.0,-0.005840000230818987,-0.005040000192821026,-0.0007699999841861427,16.66900062561035
6513.221217258824,1196778.0,-0.004310000222176313,0.0016299999551847577,-0.003269999986514449,16.704999923706055
6513.222217030747,1196779.0,-0.0012600000482052565,-0.00418000016361475,0.002409999957308173,16.680999755859375
6513.223216802669,1196780.0,0.00107999995816499,0.0002699999895412475,0.0012700000079348683,16.729999542236328
6513.224216574593,1196781.0,0.0052999998442828655,-0.004720000084489584,-0.004040000028908253,16.80900001525879
6513.2252163465155,1196782.0,0.009879999794065952,-0.002859999891370535,-0.003909999970346689,16.547000885009766
6513.226216118438,1196783.0,0.009879999794065952,-0.0020000000949949026,0.00018000000272877514,16.857999801635742
6513.227215890361,1196784.0,0.00872000027447939,-0.004449999891221523,-0.000539999979082495,16.881999969482422
6513.228215662283,1196785.0,0.008539999835193157,0.0021299999207258224,-0.005040000192821026,16.759000778198242
6513.229215434207,1196786.0,0.010060000233352184,-0.0008200000156648457,-0.007579999975860119,16.72100067138672
6513.230215206129,1196787.0,0.01348000019788742,0.0020000000949949026,0.004040000028908253,16.785999298095703
6513.231214978052,1196788.0,0.01711999997496605,0.000910000002477318,0.00018000000272877514,16.736000061035156
6513.232214749974,1196789.0,0.020309999585151672,0.0030900000128895044,-0.008670000359416008,16.851999282836914
6513.233214521897,1196790.0,0.021469999104738235,0.004360000137239695,-0.0025400000158697367,16.88800048828125
6513.23421429382,1196791.0,0.020749999210238457,-0.004900000058114529,-0.0020000000949949026,16.958999633789062
6513.235214065743,1196792.0,0.017969999462366104,-0.0020000000949949026,-0.0007699999841861427,16.781999588012695
6513.236213837666,1196793.0,0.013930000364780426,-0.006719999946653843,-0.00418000016361475,16.649999618530273
6513.237213609588,1196794.0,0.01181000005453825,-0.005590000189840794,-0.003000000026077032,16.851999282836914
6513.238213381511,1196795.0,0.010060000233352184,-0.0059899999760091305,0.003809999907389283,16.64900016784668
6513.239213153433,1196796.0,0.008179999887943268,0.004089999943971634,-0.000539999979082495,16.714000701904297
6513.240212925357,1196797.0,0.005439999978989363,0.004360000137239695,-0.003449999960139394,16.766000747680664
6513.2412126972795,1196798.0,0.003640000009909272,-0.005810000002384186,-0.006579999811947346,16.79400062561035
6513.242212469202,1196799.0,0.004129999782890081,-0.006219999864697456,-0.004449999891221523,16.815000534057617
6513.243212241125,1196800.0,0.0047599999234080315,-0.0027199999894946814,0.0030900000128895044,16.736000061035156
6513.244212013047,1196801.0,0.006020000204443932,0.003000000026077032,-0.0018599999602884054,16.820999145507812
6513.245211784971,1196802.0,0.006200000178068876,-0.004540000110864639,0.0010000000474974513,16.510000228881836
6513.246211556893,1196803.0,0.005659999791532755,0.003809999907389283,0.0020000000949949026,16.55900001525879
6513.247211328816,1196804.0,0.003640000009909272,-0.004540000110864639,-0.005630000028759241,16.88800048828125
6513.248211100738,1196805.0,0.000539999979082495,-0.0036299999337643385,-0.00041000000783242285,16.993999481201172
6513.249210872661,1196806.0,-0.0016199999954551458,-0.001769999973475933,0.000539999979082495,16.93400001525879
6513.250210644584,1196807.0,-0.0018899999558925629,-0.0012700000079348683,-0.004900000058114529,16.875999450683594
6513.251210416507,1196808.0,-0.0008999999845400453,-0.005270000081509352,-0.00418000016361475,16.905000686645508
6513.25221018843,1196809.0,0.0012600000482052565,0.000910000002477318,-0.0022700000554323196,16.742000579833984
6513.253209960352,1196810.0,0.0030499999411404133,0.003539999946951866,0.0010900000343099236,16.672000885009766
6513.254209732275,1196811.0,0.00279000005684793,0.0030900000128895044,0.0016299999551847577,16.9950008392334
6513.255209504197,1196812.0,0.0021100000012665987,0.000539999979082495,-0.004720000084489584,16.77899932861328
6513.256209276121,1196813.0,0.0016199999954551458,-0.00018000000272877514,0.004269999917596579,16.62299919128418
6513.2572090480435,1196814.0,0.0013000000035390258,0.0031799999997019768,0.0014100000262260437,16.753999710083008
6513.258208819966,1196815.0,0.0002699999895412475,-0.008539999835193157,-0.0018599999602884054,16.881000518798828
6513.259208591889,1196816.0,0.0006300000241026282,0.0020000000949949026,-0.001449999981559813,16.584999084472656
6513.260208363811,1196817.0,0.002520000096410513,0.007360000163316727,-0.004310000222176313,17.086999893188477
6513.261208135735,1196818.0,0.004129999782890081,0.0006799999973736703,-0.0010000000474974513,16.743000030517578
6513.262207907657,1196819.0,0.0052999998442828655,-0.007180000189691782,-0.0027199999894946814,16.64900016784668
6513.26320767958,1196820.0,0.005570000037550926,0.000539999979082495,-0.004540000110864639,16.84000015258789
6513.264207451502,1196821.0,0.004579999949783087,0.0030900000128895044,0.000910000002477318,17.000999450683594
6513.265207223425,1196822.0,0.0035000001080334187,-0.001820000004954636,-0.004900000058114529,16.680999755859375
6513.266206995348,1196823.0,0.0035500000230968,0.0006799999973736703,0.0033199999015778303,17.107999801635742
6513.267206767271,1196824.0,0.004129999782890081,-0.00031999999191612005,0.005090000107884407,16.6560001373291
6513.268206539194,1196825.0,0.004939999897032976,-0.000910000002477318,-0.003809999907389283,16.986000061035156
6513.269206311116,1196826.0,0.005929999984800816,-0.006539999973028898,-0.002630000002682209,16.64900016784668
6513.270206083039,1196827.0,0.006289999932050705,0.0030900000128895044,-0.001820000004954636,16.865999221801758
6513.271205854961,1196828.0,0.007459999993443489,-0.000910000002477318,-0.0019099999917671084,16.974000930786133
6513.272205626885,1196829.0,0.009340000338852406,-0.0036800000816583633,0.00018000000272877514,17.09000015258789
6513.2732053988075,1196830.0,0.009789999574422836,-0.007079999893903732,-0.004900000058114529,17.06399917602539
6513.27420517073,1196831.0,0.009700000286102295,0.00018000000272877514,0.0016299999551847577,17.05900001525879
6513.275204942653,1196832.0,0.009340000338852406,0.004900000058114529,0.0029100000392645597,16.80299949645996
6513.276204714575,1196833.0,0.008630000054836273,-0.004540000110864639,-0.005539999809116125,16.98900032043457
6513.277204486499,1196834.0,0.006920000072568655,-0.004000000189989805,0.0031799999997019768,17.010000228881836
6513.278204258421,1196835.0,0.007009999826550484,-0.000539999979082495,0.000539999979082495,17.125
6513.279204030344,1196836.0,0.005929999984800816,0.004269999917596579,-0.004900000058114529,17.031999588012695
6513.280203802266,1196837.0,0.003860000055283308,-0.0029100000392645597,-0.000859999970998615,16.704999923706055
6513.281203574189,1196838.0,0.003909999970346689,-0.006089999806135893,-0.0012700000079348683,16.900999069213867
6513.2822033461125,1196839.0,0.003590000094845891,0.0028200000524520874,0.0022299999836832285,17.038000106811523
6513.283203118035,1196840.0,0.0023399998899549246,0.0010000000474974513,-0.0017300000181421638,17.041000366210938
6513.284202889958,1196841.0,0.0016199999954551458,0.0010000000474974513,-0.0033599999733269215,17.17799949645996
6513.28520266188,1196842.0,0.0023399998899549246,-0.002950000111013651,0.0028200000524520874,16.80900001525879
6513.286202433803,1196843.0,0.005840000230818987,0.0016299999551847577,0.00018000000272877514,16.965999603271484
6513.287202205725,1196844.0,0.007910000160336494,-0.0011399999493733048,-0.008310000412166119,17.09600067138672
6513.288201977649,1196845.0,0.008849999867379665,-0.0063599999994039536,-0.004410000052303076,17.132999420166016
6513.2892017495715,1196846.0,0.009340000338852406,-0.004900000058114529,0.003539999946951866,17.077999114990234
6513.290201521494,1196847.0,0.010599999688565731,-0.0002699999895412475,0.00031999999191612005,17.16900062561035
6513.291201293417,1196848.0,0.010689999908208847,0.0029100000392645597,-0.00535999983549118,16.80299949645996
6513.292201065339,1196849.0,0.007550000213086605,-0.006949999835342169,-0.004000000189989805,16.99799919128418
6513.293200837263,1196850.0,0.005210000090301037,-0.000910000002477318,-0.0028200000524520874,17.136999130249023
6513.294200609185,1196851.0,0.0035000001080334187,0.0017300000181421638,0.004000000189989805,17.08099937438965
6513.295200381108,1196852.0,0.0030499999411404133,0.002409999957308173,0.0021800000686198473,17.11400032043457
6513.29620015303,1196853.0,0.004670000169426203,0.0016299999551847577,-0.004089999943971634,17.05299949645996
6513.297199924953,1196854.0,0.007189999800175428,-0.000910000002477318,0.0027199999894946814,17.20599937438965
6513.2981996968765,1196855.0,0.007189999800175428,0.001820000004954636,-0.0010000000474974513,16.90999984741211
6513.299199468799,1196856.0,0.005799999926239252,-0.003000000026077032,-0.00418000016361475,17.05900001525879
6513.300199240722,1196857.0,0.002520000096410513,-0.003719999920576811,0.0019099999917671084,17.014999389648438
6513.301199012644,1196858.0,0.00107999995816499,-0.001230000052601099,-0.006180000025779009,17.202999114990234
6513.302198784567,1196859.0,0.0023399998899549246,-0.005539999809116125,-0.0017300000181421638,17.055999755859375
6513.303198556489,1196860.0,0.004490000195801258,0.0045900000259280205,-0.00418000016361475,16.84000015258789
6513.304198328413,1196861.0,0.007189999800175428,-0.002360000042244792,0.00044999999227002263,17.075000762939453
6513.3051981003355,1196862.0,0.00930000003427267,-0.0027199999894946814,-0.001180000021122396,17.288000106811523
6513.306197872258,1196863.0,0.008630000054836273,0.004769999999552965,-0.0010900000343099236,17.097000122070312
6513.307197644181,1196864.0,0.006870000157505274,-0.0028200000524520874,0.0003600000054575503,17.197999954223633
6513.308197416103,1196865.0,0.006649999879300594,-0.0007699999841861427,-0.004000000189989805,17.180999755859375
6513.309197188027,1196866.0,0.008980000391602516,0.000910000002477318,0.0063599999994039536,17.062000274658203
6513.310196959949,1196867.0,0.009879999794065952,-0.007269999943673611,0.0030900000128895044,17.180999755859375
6513.311196731872,1196868.0,0.010470000095665455,-0.004809999838471413,0.00041000000783242285,17.332000732421875
6513.312196503794,1196869.0,0.009610000066459179,-0.007079999893903732,-0.003909999970346689,17.065000534057617
6513.313196275717,1196870.0,0.009069999679923058,-0.0020000000949949026,-0.002859999891370535,17.226999282836914
6513.3141960476405,1196871.0,0.009700000286102295,0.002090000081807375,0.005040000192821026,17.27899932861328
6513.315195819563,1196872.0,0.01348000019788742,-0.0015399999683722854,-0.003719999920576811,17.333999633789062
6513.316195591486,1196873.0,0.01384000014513731,0.000910000002477318,-0.0029100000392645597,17.400999069213867
6513.317195363408,1196874.0,0.012400000356137753,0.0006799999973736703,-0.005179999861866236,17.349000930786133
6513.318195135331,1196875.0,0.009519999846816063,0.0020000000949949026,0.0027199999894946814,17.145000457763672
6513.319194907253,1196876.0,0.00773000018671155,-0.0005000000237487257,0.000539999979082495,17.297000885009766
6513.320194679177,1196877.0,0.006289999932050705,0.001180000021122396,-0.0033199999015778303,17.194000244140625
6513.3211944510995,1196878.0,0.004670000169426203,0.003000000026077032,0.0,17.34600067138672
6513.322194223022,1196879.0,0.0008999999845400453,-0.0022700000554323196,0.002630000002682209,17.437999725341797
6513.323193994945,1196880.0,-0.004670000169426203,-0.0028200000524520874,0.0017300000181421638,17.29400062561035
6513.324193766867,1196881.0,-0.009700000286102295,-0.003809999907389283,0.000910000002477318,17.257999420166016
6513.325193538791,1196882.0,-0.013120000250637531,-0.008080000057816505,-0.004089999943971634,17.291000366210938
6513.326193310713,1196883.0,-0.016529999673366547,-0.006219999864697456,0.005040000192821026,17.39299964904785
6513.327193082636,1196884.0,-0.02102000080049038,-0.004769999999552965,0.0006799999973736703,17.48200035095215
6513.328192854558,1196885.0,-0.023989999666810036,0.0020000000949949026,-0.003539999946951866,17.34600067138672
6513.329192626481,1196886.0,-0.025699999183416367,-0.003269999986514449,-0.005400000140070915,17.343000411987305
6513.3301923984045,1196887.0,-0.02676999941468239,0.002090000081807375,-0.00418000016361475,17.34000015258789
6513.331192170327,1196888.0,-0.028529999777674675,0.005090000107884407,0.0029100000392645597,17.30699920654297
6513.33219194225,1196889.0,-0.029920000582933426,4.999999873689376e-05,0.0003600000054575503,17.48699951171875
6513.333191714172,1196890.0,-0.030460000038146973,0.0010900000343099236,-0.002630000002682209,17.437999725341797
6513.334191486095,1196891.0,-0.0301900003105402,-0.004900000058114529,0.0016299999551847577,17.368000030517578
6513.335191258018,1196892.0,-0.031539998948574066,0.0012700000079348683,-0.0024500000290572643,17.43199920654297
6513.336191029941,1196893.0,-0.032749999314546585,-0.002589999930933118,0.0018599999602884054,17.218000411987305
6513.3371908018635,1196894.0,-0.03432000055909157,0.0013200000394135714,-0.0008200000156648457,17.37700080871582
6513.338190573786,1196895.0,-0.036479998379945755,-0.002360000042244792,-0.0012700000079348683,17.524999618530273
6513.339190345709,1196896.0,-0.03962000086903572,-0.00041000000783242285,-0.007540000136941671,17.41900062561035
6513.340190117631,1196897.0,-0.042899999767541885,0.0013599999947473407,-0.004449999891221523,17.364999771118164
6513.341189889555,1196898.0,-0.04340000078082085,-0.005539999809116125,0.0017300000181421638,17.388999938964844
6513.342189661477,1196899.0,-0.04295000061392784,-0.004809999838471413,-0.003719999920576811,17.325000762939453
6513.3431894334,1196900.0,-0.04222999885678291,0.005179999861866236,-0.004900000058114529,17.3799991607666
6513.344189205322,1196901.0,-0.040070001035928726,-0.004040000028908253,-0.00018000000272877514,17.489999771118164
6513.345188977245,1196902.0,-0.03853999823331833,0.0016799999866634607,-0.0016299999551847577,17.437999725341797
6513.3461887491685,1196903.0,-0.03844999894499779,-0.0083600003272295,0.006899999920278788,17.395000457763672
6513.347188521091,1196904.0,-0.039980001747608185,0.003449999960139394,-0.004720000084489584,17.531999588012695
6513.348188293014,1196905.0,-0.04142000153660774,-0.0007300000288523734,-0.003719999920576811,17.267000198364258
6513.349188064936,1196906.0,-0.043219998478889465,0.0025400000158697367,0.0027199999894946814,17.54800033569336
6513.350187836859,1196907.0,-0.04617999866604805,-0.004449999891221523,-0.003719999920576811,17.586000442504883
6513.351187608781,1196908.0,-0.050850000232458115,-0.005810000002384186,-0.004540000110864639,17.599000930786133
6513.352187380705,1196909.0,-0.0545400008559227,0.005090000107884407,-0.0012700000079348683,17.523000717163086
6513.3531871526275,1196910.0,-0.05795000120997429,-0.000539999979082495,-0.0010000000474974513,17.413000106811523
6513.35418692455,1196911.0,-0.0603800006210804,-0.004360000137239695,0.00494999997317791,17.468000411987305
6513.355186696473,1196912.0,-0.06549999862909317,-0.004809999838471413,0.0020000000949949026,17.388999938964844
6513.356186468395,1196913.0,-0.07457000017166138,0.003809999907389283,-0.00044999999227002263,17.35700035095215
6513.357186240319,1196914.0,-0.08167000114917755,-0.004860000219196081,0.0021800000686198473,17.474000930786133
6513.358186012241,1196915.0,-0.08462999761104584,-0.00686000008136034,0.0021299999207258224,17.57200050354004
6513.359185784164,1196916.0,-0.08489999920129776,-0.002360000042244792,-0.001820000004954636,17.53700065612793
6513.360185556086,1196917.0,-0.08657000213861465,-0.005270000081509352,-0.005630000028759241,17.621000289916992
6513.361185328009,1196918.0,-0.08750999718904495,-0.0063599999994039536,-0.008539999835193157,17.5049991607666
6513.3621850999325,1196919.0,-0.08337999880313873,-0.0021800000686198473,-0.004000000189989805,17.520000457763672
6513.363184871855,1196920.0,-0.07312999665737152,0.003809999907389283,0.0017300000181421638,17.53499984741211
6513.364184643778,1196921.0,-0.059119999408721924,-0.005770000163465738,0.0010900000343099236,17.27899932861328
6513.3651844157,1196922.0,-0.048920001834630966,0.001820000004954636,-0.0027199999894946814,17.559999465942383
6513.366184187623,1196923.0,-0.04187000170350075,0.0021800000686198473,0.001449999981559813,17.45599937438965
6513.367183959546,1196924.0,-0.036479998379945755,0.0021800000686198473,0.0002699999895412475,17.525999069213867
6513.368183731469,1196925.0,-0.030729999765753746,-0.00018000000272877514,0.0002699999895412475,17.56399917602539
6513.3691835033915,1196926.0,-0.024979999288916588,-0.004540000110864639,0.0021800000686198473,17.246999740600586
6513.370183275314,1196927.0,-0.015629999339580536,0.001820000004954636,0.000539999979082495,17.392000198364258
6513.371183047237,1196928.0,-0.003949999809265137,-0.0013599999947473407,-0.00031999999191612005,17.559999465942383
6513.372182819159,1196929.0,0.007009999826550484,0.000910000002477318,-0.004410000052303076,17.583999633789062
6513.373182591083,1196930.0,0.014550000429153442,-0.003449999960139394,-0.006579999811947346,17.583999633789062
6513.374182363005,1196931.0,0.020840000361204147,-0.0027199999894946814,-0.003449999960139394,17.31100082397461
6513.375182134928,1196932.0,0.026590000838041306,0.0021299999207258224,-0.0007699999841861427,17.479000091552734
6513.37618190685,1196933.0,0.03449999913573265,-0.005630000028759241,0.0006799999973736703,17.593000411987305
6513.377181678773,1196934.0,0.044520001858472824,-0.000539999979082495,-0.005900000222027302,17.559999465942383
6513.3781814506965,1196935.0,0.05565999820828438,0.0024999999441206455,0.005270000081509352,17.731000900268555
6513.379181222619,1196936.0,0.06145000085234642,0.0002699999895412475,-0.003809999907389283,17.517000198364258
6513.380180994542,1196937.0,0.064240001142025,-0.0010400000028312206,0.002360000042244792,17.70599937438965
6513.381180766464,1196938.0,0.0662200003862381,-0.000539999979082495,0.0006399999838322401,17.711999893188477
6513.382180538387,1196939.0,0.06827999651432037,-0.0022700000554323196,0.0020000000949949026,17.743000030517578
6513.38318031031,1196940.0,0.07026000320911407,-0.004129999782890081,-0.00203999993391335,17.43199920654297
6513.384180082233,1196941.0,0.0725099965929985,-0.006579999811947346,-0.004449999891221523,17.714000701904297
6513.3851798541555,1196942.0,0.07614000141620636,0.00418000016361475,0.00031999999191612005,17.731000900268555
6513.386179626078,1196943.0,0.07852999866008759,-0.005040000192821026,-0.0007300000288523734,17.780000686645508
6513.387179398001,1196944.0,0.07942000031471252,0.002360000042244792,0.002090000081807375,17.768999099731445
6513.388179169923,1196945.0,0.0791499987244606,-0.0010900000343099236,-0.003000000026077032,17.757999420166016
6513.389178941847,1196946.0,0.07709000259637833,0.0016299999551847577,-0.004809999838471413,17.663999557495117
6513.390178713769,1196947.0,0.07357999682426453,-0.0010900000343099236,0.004540000110864639,17.79199981689453
6513.391178485692,1196948.0,0.06791999936103821,-0.0019499999471008778,-0.005450000055134296,17.79199981689453
6513.392178257614,1196949.0,0.06216999888420105,0.0021299999207258224,-0.0016299999551847577,17.7189998626709
6513.393178029537,1196950.0,0.0553399994969368,-0.001180000021122396,0.0006399999838322401,17.632999420166016
6513.3941778014605,1196951.0,0.04918999969959259,0.0002699999895412475,0.002360000042244792,17.773000717163086
6513.395177573383,1196952.0,0.04402000084519386,-0.004769999999552965,0.0024500000290572643,17.5049991607666
6513.396177345306,1196953.0,0.040070001035928726,-0.0020000000949949026,0.0025400000158697367,17.68199920654297
6513.397177117228,1196954.0,0.03612000122666359,0.002360000042244792,0.0063599999994039536,17.700000762939453
6513.398176889151,1196955.0,0.031449999660253525,-0.004900000058114529,-0.00494999997317791,17.68199920654297
6513.399176661074,1196956.0,0.02807999961078167,-0.000910000002477318,-0.004449999891221523,17.743000030517578
6513.400176432997,1196957.0,0.02606000006198883,-0.004720000084489584,0.003539999946951866,17.783000946044922
6513.4011762049195,1196958.0,0.023180000483989716,-0.0064500002190470695,-0.0015399999683722854,17.559999465942383
6513.402175976842,1196959.0,0.019680000841617584,0.0006799999973736703,-0.004089999943971634,17.694000244140625
6513.403175748765,1196960.0,0.014550000429153442,-0.0033199999015778303,-0.003909999970346689,17.68600082397461
6513.404175520687,1196961.0,0.008799999952316284,0.0007300000288523734,0.00014000000373926014,17.368000030517578
6513.405175292611,1196962.0,0.005260000005364418,0.0030900000128895044,0.002859999891370535,17.579999923706055
6513.406175064533,1196963.0,0.004129999782890081,-0.00031999999191612005,-0.0036299999337643385,17.711999893188477
6513.407174836456,1196964.0,0.0028800000436604023,0.003269999986514449,-0.002630000002682209,17.575000762939453
6513.408174608378,1196965.0,0.0021100000012665987,-0.0006799999973736703,-0.0007300000288523734,17.85700035095215
6513.409174380301,1196966.0,0.0028800000436604023,0.0024500000290572643,-9.000000136438757e-05,17.73699951171875
6513.4101741522245,1196967.0,0.004399999976158142,-0.002360000042244792,-0.0028200000524520874,17.722000122070312
6513.411173924147,1196968.0,0.004129999782890081,-0.0019099999917671084,-0.003449999960139394,17.731000900268555
6513.41217369607,1196969.0,0.0034099998883903027,-0.0044999998062849045,-0.0024500000290572643,17.783000946044922
6513.413173467992,1196970.0,0.003590000094845891,-0.002319999970495701,0.004540000110864639,17.725000381469727
6513.414173239915,1196971.0,0.003229999914765358,-0.003000000026077032,0.001820000004954636,17.81599998474121
6513.415173011838,1196972.0,0.00215999991632998,0.0011399999493733048,0.0020000000949949026,17.8700008392334
6513.416172783761,1196973.0,0.0023799999617040157,0.00044999999227002263,-0.0010000000474974513,17.913999557495117
6513.4171725556835,1196974.0,0.0030499999411404133,-0.004860000219196081,0.0002699999895412475,17.902000427246094
6513.418172327606,1196975.0,0.0030499999411404133,-0.0027199999894946814,0.004000000189989805,17.839000701904297
6513.419172099529,1196976.0,0.002739999908953905,-0.0010000000474974513,-0.0015399999683722854,17.93199920654297
6513.420171871452,1196977.0,0.001120000029914081,0.0016299999551847577,-0.0028200000524520874,17.711999893188477
6513.421171643375,1196978.0,-9.000000136438757e-05,-0.006990000139921904,-0.0062699997797608376,17.920000076293945
6513.422171415297,1196979.0,-0.00018000000272877514,-0.0021800000686198473,-0.0059899999760091305,17.83099937438965
6513.42317118722,1196980.0,-0.0023399998899549246,0.004629999864846468,0.0010900000343099236,17.850000381469727
6513.424170959142,1196981.0,-0.004629999864846468,0.0036299999337643385,-0.004769999999552965,17.608999252319336
6513.425170731065,1196982.0,-0.004579999949783087,0.0013599999947473407,-0.004360000137239695,17.87700080871582
6513.4261705029885,1196983.0,-0.0018899999558925629,-0.004720000084489584,-0.000539999979082495,17.929000854492188
6513.427170274911,1196984.0,0.0009399999980814755,0.0013599999947473407,-0.00018000000272877514,17.913999557495117
6513.428170046834,1196985.0,0.0023799999617040157,0.0030900000128895044,0.002360000042244792,17.80699920654297
6513.429169818756,1196986.0,0.0016199999954551458,-0.004809999838471413,-0.0021800000686198473,17.840999603271484
6513.430169590679,1196987.0,0.0016199999954551458,-0.004900000058114529,0.004000000189989805,17.722000122070312
6513.431169362602,1196988.0,0.0023799999617040157,-0.0036299999337643385,-0.0011399999493733048,17.795000076293945
6513.432169134525,1196989.0,0.0014400000218302011,-0.0007300000288523734,0.0010000000474974513,17.878999710083008
6513.4331689064475,1196990.0,0.0017099999822676182,0.002360000042244792,-0.0033199999015778303,17.9060001373291
6513.43416867837,1196991.0,0.0017999999690800905,-0.005450000055134296,-0.003449999960139394,17.540000915527344
6513.435168450293,1196992.0,0.002199999988079071,0.0016299999551847577,0.006089999806135893,17.82200050354004
6513.436168222215,1196993.0,0.003280000062659383,0.000910000002477318,-0.006680000107735395,17.950000762939453
6513.437167994139,1196994.0,0.004579999949783087,-0.0027199999894946814,-0.0014100000262260437,17.87700080871582
6513.438167766061,1196995.0,0.003229999914765358,0.0036299999337643385,-0.003449999960139394,17.874000549316406
6513.439167537984,1196996.0,0.0016199999954551458,-0.007720000110566616,0.0029100000392645597,17.583999633789062
6513.440167309906,1196997.0,0.001979999942705035,0.0007300000288523734,0.0007300000288523734,17.7549991607666
6513.441167081829,1196998.0,0.001979999942705035,-0.005489999894052744,-0.007770000025629997,17.856000900268555
6513.4421668537525,1196999.0,0.001979999942705035,-0.005630000028759241,-0.0029100000392645597,17.959999084472656
6513.443166625675,1197000.0,0.0028800000436604023,-0.005270000081509352,-0.000539999979082495,17.87700080871582
6513.444166397598,1197001.0,0.0027000000700354576,0.000910000002477318,-0.004720000084489584,17.841999053955078
6513.44516616952,1197002.0,-0.00107999995816499,0.0024500000290572643,-0.004129999782890081,17.8700008392334
6513.446165941443,1197003.0,-0.006289999932050705,-0.006490000057965517,-0.00418000016361475,17.937999725341797
6513.447165713366,1197004.0,-0.006649999879300594,-0.003449999960139394,-0.0027199999894946814,17.975000381469727
6513.448165485289,1197005.0,-0.005570000037550926,-0.0003600000054575503,0.002859999891370535,17.645000457763672
6513.4491652572115,1197006.0,-0.005080000031739473,0.004720000084489584,-0.00041000000783242285,17.926000595092773
6513.450165029134,1197007.0,-0.005840000230818987,-0.004769999999552965,-0.0019499999471008778,17.8700008392334
6513.451164801057,1197008.0,-0.005659999791532755,-0.0024500000290572643,0.001769999973475933,17.893999099731445
6513.45216457298,1197009.0,-0.0034099998883903027,0.004000000189989805,0.005270000081509352,17.656999588012695
6513.453164344903,1197010.0,-0.0006300000241026282,0.000539999979082495,-0.000910000002477318,17.902000427246094
6513.454164116825,1197011.0,-0.001979999942705035,0.0027199999894946814,-0.006719999946653843,17.9689998626709
6513.455163888748,1197012.0,-0.0013500000350177288,-0.007899999618530273,0.003449999960139394,17.96299934387207
6513.45616366067,1197013.0,0.0018899999558925629,-0.000539999979082495,0.00418000016361475,17.783000946044922
6513.457163432593,1197014.0,0.0009899999713525176,0.003909999970346689,0.0006399999838322401,17.98699951171875
6513.4581632045165,1197015.0,-0.0003600000054575503,0.003269999986514449,-0.004860000219196081,18.062999725341797
6513.459162976439,1197016.0,-0.0002699999895412475,0.0020000000949949026,0.0006399999838322401,17.767000198364258
6513.460162748362,1197017.0,-0.0007200000109151006,0.00018000000272877514,-0.003449999960139394,17.905000686645508
6513.461162520284,1197018.0,-0.0003600000054575503,-0.004089999943971634,-0.0008200000156648457,17.920000076293945
6513.462162292207,1197019.0,-0.000539999979082495,-0.002360000042244792,0.003860000055283308,17.902000427246094
6513.46316206413,1197020.0,0.0002699999895412475,-0.0030900000128895044,-0.0021800000686198473,17.999000549316406
6513.464161836053,1197021.0,0.0008999999845400453,-0.001769999973475933,-0.0037700000684708357,17.913999557495117
6513.4651616079755,1197022.0,0.00022000000171829015,-0.000539999979082495,-0.004000000189989805,17.60099983215332
6513.466161379898,1197023.0,-0.000539999979082495,0.003269999986514449,0.001180000021122396,17.625
6513.467161151821,1197024.0,-0.0037700000684708357,0.003809999907389283,-0.0030900000128895044,17.981000900268555
6513.468160923744,1197025.0,-0.005929999984800816,0.0016799999866634607,-0.001449999981559813,17.95199966430664
6513.469160695667,1197026.0,-0.00674000009894371,-0.004900000058114529,0.0010900000343099236,17.944000244140625
6513.470160467589,1197027.0,-0.005929999984800816,0.0003600000054575503,-0.002630000002682209,17.954999923706055
6513.471160239512,1197028.0,-0.0023399998899549246,-0.003539999946951866,-0.005270000081509352,17.952999114990234
6513.472160011434,1197029.0,0.0012600000482052565,-0.000539999979082495,-0.003449999960139394,17.700000762939453
6513.473159783357,1197030.0,0.004490000195801258,-0.004860000219196081,0.001820000004954636,18.003999710083008
6513.4741595552805,1197031.0,0.004310000222176313,-0.004540000110864639,-0.004040000028908253,18.076000213623047
6513.475159327203,1197032.0,0.004670000169426203,-0.0007300000288523734,-0.0063599999994039536,17.981000900268555
6513.476159099126,1197033.0,0.006020000204443932,-0.003000000026077032,-0.0016299999551847577,17.926000595092773
6513.477158871048,1197034.0,0.007009999826550484,0.002360000042244792,-0.0020000000949949026,17.7189998626709
6513.478158642971,1197035.0,0.008449999615550041,-0.0016299999551847577,0.004269999917596579,17.82200050354004
6513.479158414894,1197036.0,0.00925000011920929,-0.001180000021122396,-0.0022700000554323196,17.952999114990234
6513.480158186817,1197037.0,0.008580000139772892,0.0016299999551847577,0.0021299999207258224,18.089000701904297
6513.4811579587395,1197038.0,0.006920000072568655,-0.004540000110864639,-0.005270000081509352,17.743000030517578
6513.482157730662,1197039.0,0.005570000037550926,0.004360000137239695,-0.0030900000128895044,17.780000686645508
6513.483157502585,1197040.0,0.005350000225007534,0.0010000000474974513,0.003809999907389283,18.00200080871582
6513.484157274508,1197041.0,0.005570000037550926,-0.004540000110864639,-0.001449999981559813,18.035999298095703
6513.485157046431,1197042.0,0.005659999791532755,0.003860000055283308,-0.002859999891370535,18.11199951171875
6513.486156818353,1197043.0,0.0030499999411404133,0.0010900000343099236,0.0033599999733269215,17.87700080871582
6513.487156590276,1197044.0,9.000000136438757e-05,-0.0007300000288523734,-0.0036800000816583633,17.965999603271484
6513.488156362198,1197045.0,0.000539999979082495,-0.0059899999760091305,0.0031799999997019768,18.134000778198242
6513.489156134121,1197046.0,0.0016199999954551458,-0.0012700000079348683,0.00044999999227002263,17.785999298095703
6513.4901559060445,1197047.0,0.0007600000244565308,-0.004410000052303076,0.000910000002477318,17.993000030517578
6513.491155677967,1197048.0,9.000000136438757e-05,-0.0036299999337643385,0.003909999970346689,18.12700080871582
6513.49215544989,1197049.0,-9.000000136438757e-05,0.0030900000128895044,0.00418000016361475,17.97800064086914
6513.493155221812,1197050.0,0.00018000000272877514,-0.003909999970346689,-0.0015399999683722854,18.134000778198242
6513.494154993735,1197051.0,0.0008999999845400453,-0.006719999946653843,-0.00018000000272877514,17.858999252319336
6513.495154765658,1197052.0,0.0024300001095980406,-0.0012700000079348683,-0.0010400000028312206,17.957000732421875
6513.496154537581,1197053.0,0.0034099998883903027,-0.002090000081807375,0.0031300000846385956,17.733999252319336
6513.4971543095035,1197054.0,0.003590000094845891,-0.005630000028759241,0.003809999907389283,18.072999954223633
6513.498154081426,1197055.0,0.0035000001080334187,0.00018000000272877514,0.000910000002477318,18.121000289916992
6513.499153853349,1197056.0,0.004490000195801258,-0.004269999917596579,-0.004360000137239695,17.926000595092773
6513.500153625272,1197057.0,0.004670000169426203,0.0029100000392645597,-0.0015399999683722854,18.01099967956543
6513.501153397195,1197058.0,0.005030000116676092,-0.004679999779909849,0.0029100000392645597,18.040000915527344
6513.502153169117,1197059.0,0.0065100002102553844,0.004900000058114529,-0.0021299999207258224,18.141000747680664
6513.50315294104,1197060.0,0.007009999826550484,-0.003949999809265137,0.0016299999551847577,17.999000549316406
6513.504152712962,1197061.0,0.007590000052005053,0.0017300000181421638,-0.0033199999015778303,18.136999130249023
6513.505152484886,1197062.0,0.008220000192523003,0.006949999835342169,0.0016799999866634607,17.97800064086914
6513.5061522568085,1197063.0,0.007550000213086605,-0.005630000028759241,0.0036299999337643385,17.975000381469727
6513.507152028731,1197064.0,0.007459999993443489,-0.002360000042244792,-0.0010400000028312206,18.152999877929688
6513.508151800654,1197065.0,0.008539999835193157,0.0006399999838322401,-0.004540000110864639,17.774999618530273
6513.509151572576,1197066.0,0.007910000160336494,-9.000000136438757e-05,-0.0015399999683722854,18.035999298095703
6513.510151344499,1197067.0,0.007550000213086605,0.0051299999468028545,0.0017300000181421638,17.83099937438965
6513.511151116422,1197068.0,0.006149999797344208,-0.0016299999551847577,0.003539999946951866,18.035999298095703
6513.512150888345,1197069.0,0.007189999800175428,-0.004540000110864639,-0.003719999920576811,17.97800064086914
6513.5131506602675,1197070.0,0.010329999960958958,-0.003809999907389283,0.00018000000272877514,18.003999710083008
6513.51415043219,1197071.0,0.012040000408887863,-0.003909999970346689,-0.00267999991774559,18.139999389648438
6513.515150204113,1197072.0,0.012400000356137753,0.005270000081509352,-0.00014000000373926014,18.007999420166016
6513.516149976036,1197073.0,0.011950000189244747,0.002360000042244792,0.0017300000181421638,18.163999557495117
6513.517149747959,1197074.0,0.010420000180602074,-0.003000000026077032,0.0033599999733269215,18.035999298095703
6513.518149519881,1197075.0,0.009340000338852406,0.0012700000079348683,-0.004360000137239695,18.155000686645508
6513.519149291804,1197076.0,0.00646999990567565,-0.0059899999760091305,0.003449999960139394,17.756999969482422
6513.520149063726,1197077.0,0.002959999954327941,-0.004269999917596579,-0.0021299999207258224,18.072999954223633
6513.52114883565,1197078.0,-0.00018000000272877514,0.001449999981559813,0.005270000081509352,18.139999389648438
6513.5221486075725,1197079.0,-0.0007200000109151006,0.0013599999947473407,0.0025400000158697367,18.02400016784668
6513.523148379495,1197080.0,-0.0008999999845400453,-0.001769999973475933,0.00018000000272877514,17.989999771118164
6513.524148151418,1197081.0,-0.0007600000244565308,0.0027199999894946814,-0.004449999891221523,18.04800033569336
6513.52514792334,1197082.0,-0.0007600000244565308,-0.001180000021122396,-0.005950000137090683,17.913999557495117
6513.526147695263,1197083.0,-0.0003600000054575503,-0.0033599999733269215,0.0020000000949949026,18.014999389648438
6513.527147467186,1197084.0,-0.0003600000054575503,0.0020000000949949026,-0.0021800000686198473,18.01099967956543
6513.528147239109,1197085.0,0.000539999979082495,0.00535999983549118,-0.0010000000474974513,18.06800079345703
6513.5291470110315,1197086.0,0.0009899999713525176,-0.005630000028759241,-0.001769999973475933,17.882999420166016
6513.530146782954,1197087.0,0.0006699999794363976,0.004540000110864639,0.000910000002477318,18.018999099731445
6513.531146554877,1197088.0,0.0011699999449774623,4.999999873689376e-05,-0.005539999809116125,18.134000778198242
6513.5321463268,1197089.0,0.001120000029914081,0.0012700000079348683,-0.0037700000684708357,18.038999557495117
6513.533146098723,1197090.0,0.0018899999558925629,0.0003600000054575503,-0.007269999943673611,17.68199920654297
6513.534145870645,1197091.0,0.0034099998883903027,-0.000910000002477318,-0.006719999946653843,17.902000427246094
6513.535145642568,1197092.0,0.004490000195801258,0.000910000002477318,-0.00014000000373926014,18.090999603271484
6513.53614541449,1197093.0,0.005750000011175871,-0.0019499999471008778,-0.004129999782890081,17.643999099731445
6513.537145186414,1197094.0,0.0064199999906122684,-0.002090000081807375,0.0022299999836832285,18.084999084472656
6513.5381449583365,1197095.0,0.006289999932050705,0.0009500000160187483,0.0027199999894946814,17.881999969482422
6513.539144730259,1197096.0,0.005260000005364418,-0.009170000441372395,-0.00018000000272877514,18.072999954223633
6513.540144502182,1197097.0,0.005030000116676092,-0.005630000028759241,0.002360000042244792,18.135000228881836
6513.541144274104,1197098.0,0.006380000151693821,0.00203999993391335,0.005539999809116125,18.01099967956543
6513.542144046027,1197099.0,0.00674000009894371,0.001500000013038516,0.0016299999551847577,18.024999618530273
6513.54314381795,1197100.0,0.006289999932050705,-0.004540000110864639,-0.0007699999841861427,18.00200080871582
6513.544143589873,1197101.0,0.003949999809265137,-0.005590000189840794,0.000539999979082495,18.14699935913086
6513.545143361795,1197102.0,0.0017099999822676182,-0.00044999999227002263,-0.0034099998883903027,18.145999908447266
6513.546143133718,1197103.0,0.0014400000218302011,0.004449999891221523,-0.006630000192672014,18.02400016784668
6513.547142905641,1197104.0,0.00018000000272877514,-0.0063599999994039536,-0.002360000042244792,18.000999450683594
6513.548142677564,1197105.0,0.0002699999895412475,-0.00018000000272877514,-0.0007300000288523734,17.944000244140625
6513.549142449487,1197106.0,-0.0003600000054575503,0.0027199999894946814,-9.000000136438757e-05,17.975000381469727
6513.550142221409,1197107.0,-0.0015300000086426735,0.002950000111013651,-0.005179999861866236,18.072999954223633
6513.551141993332,1197108.0,-0.0023399998899549246,0.007269999943673611,-0.006310000084340572,18.134000778198242
6513.552141765254,1197109.0,-0.004129999782890081,-0.00571999978274107,-4.999999873689376e-05,18.04800033569336
6513.553141537178,1197110.0,-0.00547999981790781,0.000539999979082495,0.002589999930933118,18.145999908447266
6513.5541413091005,1197111.0,-0.005030000116676092,0.000539999979082495,0.0016799999866634607,17.711999893188477
6513.555141081023,1197112.0,-0.0037700000684708357,-0.0027199999894946814,-0.0013599999947473407,18.014999389648438
6513.556140852946,1197113.0,-0.0008099999977275729,-0.003949999809265137,0.002630000002682209,18.084999084472656
6513.557140624868,1197114.0,0.0003100000030826777,-0.006579999811947346,0.0030900000128895044,18.139999389648438
6513.558140396792,1197115.0,0.0008999999845400453,0.0010900000343099236,0.004360000137239695,18.01799964904785
6513.559140168714,1197116.0,0.0017099999822676182,-0.0027199999894946814,-0.005900000222027302,18.118000030517578
6513.560139940637,1197117.0,0.0021100000012665987,0.002360000042244792,0.00418000016361475,17.804000854492188
6513.561139712559,1197118.0,0.0037700000684708357,0.0006799999973736703,0.0013200000394135714,17.992000579833984
6513.562139484482,1197119.0,0.005570000037550926,-0.004809999838471413,-9.000000136438757e-05,18.11199951171875
6513.563139256405,1197120.0,0.007639999967068434,0.0013599999947473407,-0.004540000110864639,17.989999771118164
6513.564139028328,1197121.0,0.008449999615550041,0.005450000055134296,-0.005270000081509352,17.93199920654297
6513.565138800251,1197122.0,0.007459999993443489,-0.0030400000978261232,0.000910000002477318,18.11400032043457
6513.566138572173,1197123.0,0.0065100002102553844,-0.004360000137239695,-0.003590000094845891,17.73200035095215
6513.567138344096,1197124.0,0.006200000178068876,-0.008899999782443047,-0.00044999999227002263,18.04800033569336
6513.568138116018,1197125.0,0.005929999984800816,0.004360000137239695,-0.001449999981559813,18.114999771118164
6513.569137887942,1197126.0,0.004579999949783087,-0.00418000016361475,-0.002630000002682209,18.059999465942383
6513.5701376598645,1197127.0,0.003860000055283308,-0.0010000000474974513,-0.0010000000474974513,17.975000381469727
6513.571137431787,1197128.0,0.0011699999449774623,-0.0022299999836832285,-0.007079999893903732,18.00200080871582
6513.57213720371,1197129.0,-0.000539999979082495,-0.0022700000554323196,0.000910000002477318,17.93199920654297
6513.573136975632,1197130.0,-0.0012600000482052565,0.00418000016361475,0.0006399999838322401,18.082000732421875
6513.574136747555,1197131.0,-0.0012600000482052565,-0.005630000028759241,0.0022299999836832285,18.08799934387207
6513.575136519478,1197132.0,-0.000539999979082495,-0.0008200000156648457,0.0059899999760091305,17.992000579833984
6513.576136291401,1197133.0,0.0007600000244565308,0.0003600000054575503,-0.0020000000949949026,17.93199920654297
6513.577136063323,1197134.0,0.0009899999713525176,-0.000539999979082495,0.0028200000524520874,17.993000030517578
6513.578135835246,1197135.0,0.002199999988079071,0.0021299999207258224,-0.0030900000128895044,17.959999084472656
6513.579135607169,1197136.0,0.004939999897032976,0.001820000004954636,-0.004310000222176313,18.06599998474121
6513.580135379092,1197137.0,0.004040000028908253,0.00535999983549118,-0.0020000000949949026,18.072999954223633
6513.581135151015,1197138.0,0.0021100000012665987,-0.004900000058114529,-0.005450000055134296,17.92300033569336
6513.582134922937,1197139.0,0.0018899999558925629,-0.006539999973028898,-0.000539999979082495,17.96299934387207
6513.58313469486,1197140.0,0.0018899999558925629,-0.004360000137239695,-0.006579999811947346,18.072999954223633
6513.584134466782,1197141.0,0.0020699999295175076,-0.0030900000128895044,0.000539999979082495,17.694000244140625
6513.585134238706,1197142.0,0.0030499999411404133,0.0012700000079348683,0.002630000002682209,18.003999710083008
6513.5861340106285,1197143.0,0.0047599999234080315,-0.009259999729692936,0.00018000000272877514,17.878999710083008
6513.587133782551,1197144.0,0.004629999864846468,0.000590000010561198,-0.0007300000288523734,17.888999938964844
6513.588133554474,1197145.0,0.004310000222176313,0.0027199999894946814,0.0011399999493733048,17.92300033569336
6513.589133326396,1197146.0,0.0031399999279528856,0.006579999811947346,0.0063599999994039536,18.02400016784668
6513.59013309832,1197147.0,0.0020699999295175076,0.006810000166296959,-0.0010900000343099236,17.952999114990234
6513.591132870242,1197148.0,0.0027000000700354576,0.001449999981559813,-0.0033199999015778303,18.0049991607666
6513.592132642165,1197149.0,0.0023399998899549246,0.00044999999227002263,-0.004129999782890081,17.888999938964844
6513.593132414087,1197150.0,0.0017500000540167093,-0.00418000016361475,-0.002360000042244792,17.858999252319336
6513.59413218601,1197151.0,0.0006300000241026282,0.0002699999895412475,0.0016299999551847577,17.850000381469727
6513.595131957933,1197152.0,-0.00018000000272877514,0.0010000000474974513,0.000910000002477318,17.847999572753906
6513.596131729856,1197153.0,0.0013500000350177288,0.000910000002477318,-0.004089999943971634,17.840999603271484
6513.597131501779,1197154.0,0.00107999995816499,0.0027199999894946814,0.0003600000054575503,17.999000549316406
6513.598131273701,1197155.0,0.00044999999227002263,0.00418000016361475,-0.002950000111013651,17.87700080871582
6513.599131045624,1197156.0,0.0008999999845400453,-0.0022700000554323196,-0.0021800000686198473,17.823999404907227
6513.600130817546,1197157.0,0.0014799999771639705,-0.00044999999227002263,-4.999999873689376e-05,17.856000900268555
6513.60113058947,1197158.0,0.0021100000012665987,-0.004269999917596579,-0.0027199999894946814,17.83799934387207
6513.6021303613925,1197159.0,0.0034099998883903027,-0.0020000000949949026,0.0025400000158697367,17.840999603271484
6513.603130133315,1197160.0,0.004310000222176313,0.0024999999441206455,-0.00686000008136034,17.83099937438965
6513.604129905238,1197161.0,0.0048500001430511475,-0.0052200001664459705,-0.003449999960139394,17.85700035095215
6513.60512967716,1197162.0,0.005570000037550926,-0.003809999907389283,0.0012700000079348683,17.57699966430664
6513.606129449084,1197163.0,0.007770000025629997,0.003449999960139394,0.0025400000158697367,17.833999633789062
6513.607129221006,1197164.0,0.011140000075101852,0.002859999891370535,-0.0022700000554323196,17.88599967956543
6513.608128992929,1197165.0,0.011680000461637974,-0.0002699999895412475,-0.003809999907389283,17.56599998474121
6513.609128764851,1197166.0,0.011049999855458736,-0.006810000166296959,-0.0008200000156648457,17.499000549316406
6513.610128536774,1197167.0,0.010420000180602074,-0.0030900000128895044,0.0016299999551847577,17.81599998474121
6513.611128308697,1197168.0,0.011859999969601631,0.0006399999838322401,-0.00018000000272877514,17.950000762939453
6513.61212808062,1197169.0,0.01384000014513731,-0.006180000025779009,-0.004040000028908253,17.819000244140625
6513.613127852543,1197170.0,0.015990000218153,-0.004540000110864639,0.0036299999337643385,17.775999069213867
6513.614127624465,1197171.0,0.018330000340938568,0.0002699999895412475,-0.000539999979082495,17.902000427246094
6513.615127396388,1197172.0,0.018689999356865883,-0.003719999920576811,0.0014100000262260437,17.85300064086914
6513.61612716831,1197173.0,0.017880000174045563,0.001820000004954636,-0.0007300000288523734,17.7549991607666
6513.617126940234,1197174.0,0.017069999128580093,-0.003220000071451068,-0.006579999811947346,17.767000198364258
6513.6181267121565,1197175.0,0.013209999538958073,0.005450000055134296,0.000539999979082495,17.88599967956543
6513.619126484079,1197176.0,0.00930000003427267,0.005270000081509352,0.0006799999973736703,17.538000106811523
6513.620126256002,1197177.0,0.008270000107586384,0.0003600000054575503,-0.00418000016361475,17.804000854492188
6513.621126027924,1197178.0,0.006060000043362379,-0.002589999930933118,-0.00018000000272877514,17.7549991607666
6513.622125799848,1197179.0,0.00674000009894371,-0.0028200000524520874,-0.0015399999683722854,17.731000900268555
6513.62312557177,1197180.0,0.008179999887943268,-0.0025400000158697367,0.0031799999997019768,17.780000686645508
6513.624125343693,1197181.0,0.009340000338852406,-0.0012700000079348683,-0.002360000042244792,17.85700035095215
6513.625125115615,1197182.0,0.009879999794065952,-0.005770000163465738,-0.007269999943673611,17.523000717163086
6513.626124887538,1197183.0,0.012760000303387642,-0.0024500000290572643,0.0027199999894946814,17.711000442504883
6513.627124659461,1197184.0,0.014779999852180481,-0.0014100000262260437,0.0003600000054575503,17.694000244140625
6513.628124431384,1197185.0,0.014290000312030315,0.005810000002384186,-0.000910000002477318,17.395000457763672
6513.629124203307,1197186.0,0.011459999717772007,-0.005090000107884407,-0.004900000058114529,17.575000762939453
6513.630123975229,1197187.0,0.009970000013709068,0.0012700000079348683,0.000910000002477318,17.670000076293945
6513.631123747152,1197188.0,0.010689999908208847,0.003449999960139394,-0.0010900000343099236,17.7189998626709
6513.632123519074,1197189.0,0.01131999958306551,0.0033599999733269215,-0.005090000107884407,17.694000244140625
6513.633123290998,1197190.0,0.012529999949038029,-0.003449999960139394,-0.001180000021122396,17.725000381469727
6513.6341230629205,1197191.0,0.012400000356137753,-0.0022700000554323196,0.002090000081807375,17.474000930786133
6513.635122834843,1197192.0,0.013120000250637531,0.0016299999551847577,0.006719999946653843,17.426000595092773
6513.636122606766,1197193.0,0.01607999950647354,-0.0022299999836832285,0.0006799999973736703,17.809999465942383
6513.637122378688,1197194.0,0.017969999462366104,0.0036299999337643385,-0.0016299999551847577,17.327999114990234
6513.638122150612,1197195.0,0.01931999996304512,0.003809999907389283,-0.005090000107884407,17.632999420166016
6513.639121922534,1197196.0,0.020479999482631683,0.005630000028759241,-0.007079999893903732,17.624000549316406
6513.640121694457,1197197.0,0.02102000080049038,-0.007269999943673611,-0.0033599999733269215,17.614999771118164
6513.641121466379,1197198.0,0.021199999377131462,0.0011399999493733048,0.004720000084489584,17.76099967956543
6513.642121238302,1197199.0,0.019589999690651894,0.0030900000128895044,-0.0002699999895412475,17.673999786376953
6513.6431210102255,1197200.0,0.017069999128580093,0.004000000189989805,-0.004089999943971634,17.749000549316406
6513.644120782148,1197201.0,0.015270000323653221,-0.00014000000373926014,0.0021800000686198473,17.45599937438965
6513.645120554071,1197202.0,0.013700000010430813,0.0012700000079348683,-0.003909999970346689,17.552000045776367
6513.646120325993,1197203.0,0.01257999986410141,-0.005270000081509352,-0.005450000055134296,17.67300033569336
6513.647120097916,1197204.0,0.010420000180602074,0.002090000081807375,-0.0010900000343099236,17.426000595092773
6513.648119869838,1197205.0,0.01001999992877245,0.004000000189989805,-0.000539999979082495,17.593000411987305
6513.649119641762,1197206.0,0.011500000022351742,-0.00031999999191612005,-0.004089999943971634,17.479000091552734
6513.6501194136845,1197207.0,0.01131999958306551,-0.0063599999994039536,0.0017300000181421638,17.34600067138672
6513.651119185607,1197208.0,0.009519999846816063,0.000910000002477318,0.0012700000079348683,17.490999221801758
6513.65211895753,1197209.0,0.007910000160336494,0.0014100000262260437,0.001820000004954636,17.599000930786133
6513.653118729452,1197210.0,0.008129999972879887,-0.00018000000272877514,-0.004449999891221523,17.26099967956543
6513.654118501376,1197211.0,0.007860000245273113,-0.0012700000079348683,-0.004089999943971634,17.670000076293945
6513.655118273298,1197212.0,0.008089999668300152,0.002360000042244792,0.002360000042244792,17.51099967956543
6513.656118045221,1197213.0,0.008179999887943268,-0.003809999907389283,-0.001500000013038516,17.489999771118164
6513.657117817143,1197214.0,0.008539999835193157,-0.007040000054985285,0.0006399999838322401,17.452999114990234
6513.658117589066,1197215.0,0.007230000104755163,0.004360000137239695,0.001449999981559813,17.461999893188477
6513.6591173609895,1197216.0,0.007459999993443489,-0.00018000000272877514,-0.005450000055134296,17.624000549316406
6513.660117132912,1197217.0,0.007550000213086605,-0.0013599999947473407,-0.00418000016361475,17.54800033569336
6513.661116904835,1197218.0,0.007410000078380108,0.0030900000128895044,0.005270000081509352,17.624000549316406
6513.662116676757,1197219.0,0.007189999800175428,0.0012700000079348683,-0.00798999983817339,17.621000289916992
6513.66311644868,1197220.0,0.004989999812096357,-0.007309999782592058,-0.0059899999760091305,17.468000411987305
6513.664116220602,1197221.0,0.0048500001430511475,-0.0003600000054575503,0.0003600000054575503,17.434999465942383
6513.665115992526,1197222.0,0.004129999782890081,-0.0036800000816583633,-0.0033599999733269215,17.452999114990234
6513.6661157644485,1197223.0,0.0027000000700354576,-0.004000000189989805,-0.0010900000343099236,17.40399932861328
6513.667115536371,1197224.0,0.001979999942705035,-0.0030900000128895044,0.0021800000686198473,17.444000244140625
6513.668115308294,1197225.0,0.0008999999845400453,0.000539999979082495,-0.000910000002477318,17.538000106811523
6513.669115080216,1197226.0,0.0003600000054575503,-0.0010000000474974513,-0.008129999972879887,17.53499984741211
6513.67011485214,1197227.0,-0.00039999998989515007,-0.0020000000949949026,-0.0014100000262260437,17.45599937438965
6513.671114624062,1197228.0,9.000000136438757e-05,-0.0007300000288523734,-0.004000000189989805,17.218000411987305
6513.672114395985,1197229.0,0.0008999999845400453,0.0002699999895412475,-0.005090000107884407,17.493000030517578
6513.673114167907,1197230.0,0.0017099999822676182,-0.005630000028759241,0.0016299999551847577,17.180999755859375
6513.67411393983,1197231.0,0.0028800000436604023,0.00018000000272877514,-0.001449999981559813,17.142000198364258
6513.6751137117535,1197232.0,0.002520000096410513,-0.0016299999551847577,-0.004809999838471413,17.136999130249023
6513.676113483676,1197233.0,0.0011699999449774623,-0.0030900000128895044,-0.006180000025779009,17.003999710083008
6513.677113255599,1197234.0,0.00107999995816499,-0.0007300000288523734,-0.00875999964773655,17.46500015258789
6513.678113027521,1197235.0,0.0016199999954551458,-0.0008200000156648457,-0.001449999981559813,17.368000030517578
6513.679112799444,1197236.0,0.0023399998899549246,-0.004900000058114529,0.0030900000128895044,17.44099998474121
6513.680112571366,1197237.0,0.0016199999954551458,0.0028200000524520874,0.003449999960139394,17.413000106811523
6513.68111234329,1197238.0,-0.00018000000272877514,-0.0029100000392645597,-0.0020000000949949026,17.308000564575195
6513.6821121152125,1197239.0,-0.0016199999954551458,0.000910000002477318,-0.004310000222176313,17.389999389648438
6513.683111887135,1197240.0,-0.0015300000086426735,-0.000859999970998615,-0.0033199999015778303,17.125999450683594
6513.684111659058,1197241.0,-0.0008500000112690032,0.00018000000272877514,-0.0016299999551847577,17.291000366210938
6513.68511143098,1197242.0,0.0011699999449774623,-0.0033199999015778303,-0.0027199999894946814,17.364999771118164
6513.686111202904,1197243.0,0.0014799999771639705,0.0021299999207258224,0.0016299999551847577,17.392000198364258
6513.687110974826,1197244.0,0.0012600000482052565,0.00044999999227002263,0.0036299999337643385,17.35700035095215
6513.688110746749,1197245.0,3.9999998989515007e-05,0.0013599999947473407,-0.0016299999551847577,17.297000885009766
6513.689110518671,1197246.0,-0.004399999976158142,0.0007300000288523734,-0.004129999782890081,17.229999542236328
6513.690110290594,1197247.0,-0.009879999794065952,-0.004360000137239695,0.001820000004954636,17.259000778198242
6513.6911100625175,1197248.0,-0.013930000364780426,-0.00418000016361475,-0.003809999907389283,17.006999969482422
6513.69210983444,1197249.0,-0.014109999872744083,-0.004360000137239695,-0.000539999979082495,17.062000274658203
6513.693109606363,1197250.0,-0.013030000030994415,0.0029100000392645597,9.000000136438757e-05,17.086999893188477
6513.694109378285,1197251.0,-0.011989999562501907,0.0,-0.0059899999760091305,17.194000244140625
6513.695109150208,1197252.0,-0.010379999876022339,0.0006399999838322401,-0.0024500000290572643,17.291000366210938
6513.696108922131,1197253.0,-0.007499999832361937,-0.0034099998883903027,0.0027699999045580626,17.150999069213867
6513.697108694054,1197254.0,-0.004629999864846468,-0.004449999891221523,-0.003719999920576811,17.1200008392334
6513.6981084659765,1197255.0,-0.003280000062659383,-0.0036800000816583633,0.000910000002477318,17.117000579833984
6513.699108237899,1197256.0,-0.0022499999031424522,0.003449999960139394,0.00418000016361475,17.11400032043457
6513.700108009822,1197257.0,-0.00044999999227002263,0.003590000094845891,-0.004269999917596579,17.249000549316406
6513.701107781744,1197258.0,0.0006300000241026282,0.003449999960139394,-0.004999999888241291,17.107999801635742
6513.702107553668,1197259.0,0.0009399999980814755,0.005810000002384186,-0.000910000002477318,17.21500015258789
6513.70310732559,1197260.0,0.0003600000054575503,-0.005179999861866236,-0.004089999943971634,17.145000457763672
6513.704107097513,1197261.0,-9.000000136438757e-05,-0.0016299999551847577,-0.0010400000028312206,17.187999725341797
6513.705106869435,1197262.0,0.00018000000272877514,-0.000539999979082495,0.0021299999207258224,17.16900062561035
6513.706106641358,1197263.0,0.00044999999227002263,0.004720000084489584,0.0,17.062000274658203
6513.7071064132815,1197264.0,0.0,-0.0015899999998509884,-0.002950000111013651,17.075000762939453
6513.708106185204,1197265.0,-0.00018000000272877514,0.00018000000272877514,-0.005270000081509352,16.990999221801758
6513.709105957127,1197266.0,-0.00107999995816499,-0.001180000021122396,-0.002630000002682209,17.003000259399414
6513.710105729049,1197267.0,-0.0012600000482052565,-0.00018000000272877514,-0.0003600000054575503,16.968000411987305
6513.711105500972,1197268.0,-0.001979999942705035,-0.005270000081509352,0.000910000002477318,16.958999633789062
6513.712105272894,1197269.0,-0.0012600000482052565,-0.00571999978274107,-0.00018000000272877514,16.878000259399414
6513.713105044818,1197270.0,0.0008999999845400453,-0.002630000002682209,0.0007699999841861427,17.027000427246094
6513.7141048167405,1197271.0,0.0013899999903514981,-0.0020000000949949026,-0.006539999973028898,16.70199966430664
6513.715104588663,1197272.0,0.0017099999822676182,-0.0022299999836832285,-0.0007699999841861427,16.607999801635742
6513.716104360586,1197273.0,-0.00018000000272877514,0.0024999999441206455,0.004040000028908253,16.680999755859375
6513.717104132508,1197274.0,-0.0017099999822676182,-0.0021800000686198473,-0.004720000084489584,16.61400032043457
6513.718103904432,1197275.0,-0.0016199999954551458,-0.004449999891221523,0.0017300000181421638,17.05900001525879
6513.719103676354,1197276.0,-0.000539999979082495,-0.0059899999760091305,0.0006399999838322401,16.940000534057617
6513.720103448277,1197277.0,-0.00018000000272877514,-0.000910000002477318,-0.004040000028908253,17.03499984741211
6513.721103220199,1197278.0,-0.00018000000272877514,-0.0025400000158697367,0.000910000002477318,17.010000228881836
6513.722102992122,1197279.0,-0.00044999999227002263,0.004360000137239695,0.004269999917596579,16.99799919128418
6513.7231027640455,1197280.0,-0.000539999979082495,-0.006810000166296959,-0.00418000016361475,16.81800079345703
6513.724102535968,1197281.0,-0.0006699999794363976,-0.005270000081509352,-0.003449999960139394,16.851999282836914
6513.725102307891,1197282.0,0.0010300000431016088,-0.00418000016361475,0.004360000137239695,16.6560001373291
6513.726102079813,1197283.0,0.0016199999954551458,0.000539999979082495,-0.006949999835342169,16.79400062561035
6513.727101851736,1197284.0,-0.0003600000054575503,-0.005489999894052744,0.0020000000949949026,16.79400062561035
6513.728101623659,1197285.0,-0.0026100000832229853,-0.004089999943971634,0.00418000016361475,16.753999710083008
6513.729101395582,1197286.0,-0.0048500001430511475,-0.0007300000288523734,-0.0017300000181421638,16.843000411987305
6513.7301011675045,1197287.0,-0.005570000037550926,0.005270000081509352,-0.0052200001664459705,16.52199935913086
6513.731100939427,1197288.0,-0.006200000178068876,0.002360000042244792,0.0003600000054575503,16.891000747680664
6513.73210071135,1197289.0,-0.006200000178068876,-0.004089999943971634,-0.0021800000686198473,16.820999145507812
6513.733100483272,1197290.0,-0.0048500001430511475,0.0030900000128895044,-0.0010900000343099236,16.875999450683594
6513.734100255196,1197291.0,-0.0022499999031424522,-0.0031799999997019768,0.0013599999947473407,16.867000579833984
6513.735100027118,1197292.0,-0.0003600000054575503,0.0010900000343099236,-0.00418000016361475,16.753999710083008
6513.736099799041,1197293.0,0.0007200000109151006,0.0012700000079348683,-0.00044999999227002263,16.70800018310547
6513.737099570963,1197294.0,0.0024300001095980406,0.0021800000686198473,0.002090000081807375,16.791000366210938
6513.738099342886,1197295.0,0.0024300001095980406,-0.00571999978274107,0.0013599999947473407,16.704999923706055
6513.7390991148095,1197296.0,0.0006699999794363976,-0.002360000042244792,-0.003809999907389283,16.736000061035156
6513.740098886732,1197297.0,0.0016599999507889152,0.0016799999866634607,-0.00418000016361475,16.70400047302246
6513.741098658655,1197298.0,0.004310000222176313,0.00418000016361475,-0.0021299999207258224,16.315000534057617
6513.742098430577,1197299.0,0.008489999920129776,-0.0005000000237487257,0.008170000277459621,16.79199981689453
6513.7430982025,1197300.0,0.009700000286102295,0.0003600000054575503,0.0020000000949949026,16.35099983215332
6513.744097974423,1197301.0,0.009879999794065952,-0.004310000222176313,-0.0011399999493733048,16.30900001525879
6513.745097746346,1197302.0,0.009879999794065952,-0.001820000004954636,-0.004540000110864639,16.339000701904297
6513.7460975182685,1197303.0,0.010780000127851963,0.0024999999441206455,-0.003909999970346689,16.415000915527344
6513.747097290191,1197304.0,0.009970000013709068,0.0015399999683722854,-0.003719999920576811,16.573999404907227
6513.748097062114,1197305.0,0.008270000107586384,0.003269999986514449,0.0028200000524520874,16.4060001373291
6513.749096834036,1197306.0,0.005840000230818987,0.002589999930933118,0.0016299999551847577,16.649999618530273
6513.75009660596,1197307.0,0.0012600000482052565,0.00018000000272877514,-0.0022700000554323196,16.617000579833984
6513.751096377882,1197308.0,-0.0015300000086426735,-0.003809999907389283,-0.005630000028759241,16.486000061035156
6513.752096149805,1197309.0,-0.0037700000684708357,0.00031999999191612005,-0.0027199999894946814,16.486000061035156
6513.753095921727,1197310.0,-0.005210000090301037,-0.0012700000079348683,0.0013599999947473407,16.631999969482422
6513.75409569365,1197311.0,-0.0069599999114871025,-0.003809999907389283,0.0025400000158697367,16.535999298095703
6513.7550954655735,1197312.0,-0.008449999615550041,-0.0022700000554323196,-0.003269999986514449,16.594999313354492
6513.756095237496,1197313.0,-0.009159999899566174,0.005270000081509352,0.000910000002477318,16.437000274658203
6513.757095009419,1197314.0,-0.005659999791532755,-0.005040000192821026,0.0020000000949949026,16.424999237060547
6513.758094781341,1197315.0,0.0006300000241026282,-0.00418000016361475,0.003000000026077032,16.399999618530273
6513.759094553264,1197316.0,0.0048500001430511475,-0.0029100000392645597,-0.0003600000054575503,16.437000274658203
6513.760094325187,1197317.0,0.005840000230818987,-0.005270000081509352,-0.002360000042244792,16.354000091552734
6513.76109409711,1197318.0,0.0034099998883903027,-0.005630000028759241,-0.004540000110864639,16.43400001525879
6513.7620938690325,1197319.0,0.000539999979082495,-0.00018000000272877514,-0.0033199999015778303,16.489999771118164
6513.763093640955,1197320.0,-0.0008500000112690032,0.0021299999207258224,-0.007040000054985285,16.486000061035156
6513.764093412878,1197321.0,-0.0017999999690800905,-0.004129999782890081,0.000910000002477318,16.4950008392334
6513.7650931848,1197322.0,-0.0006699999794363976,-0.00418000016361475,0.0010900000343099236,16.08300018310547
6513.766092956724,1197323.0,0.000539999979082495,-0.007809999864548445,-0.004720000084489584,16.429000854492188
6513.767092728646,1197324.0,0.0,-0.0002699999895412475,-0.0003600000054575503,16.315000534057617
6513.768092500569,1197325.0,-9.000000136438757e-05,-0.002589999930933118,0.0030900000128895044,16.41699981689453
6513.769092272491,1197326.0,-0.00018000000272877514,0.00018000000272877514,-0.0025400000158697367,16.440000534057617
6513.770092044414,1197327.0,0.0003100000030826777,-0.003449999960139394,-0.003909999970346689,16.29800033569336
6513.7710918163375,1197328.0,0.0008999999845400453,0.002090000081807375,-0.005270000081509352,16.208999633789062
6513.77209158826,1197329.0,0.0009899999713525176,-0.0016299999551847577,0.00041000000783242285,16.177000045776367
6513.773091360183,1197330.0,0.0014799999771639705,0.0024999999441206455,0.000910000002477318,15.935999870300293
6513.774091132105,1197331.0,0.0017099999822676182,-0.002360000042244792,0.0019099999917671084,15.979000091552734
6513.775090904028,1197332.0,0.0008999999845400453,-0.004629999864846468,0.0025400000158697367,16.073999404907227
6513.776090675951,1197333.0,-0.0016199999954551458,0.005270000081509352,-0.005590000189840794,15.880000114440918
6513.777090447874,1197334.0,-0.003949999809265137,0.003719999920576811,0.000910000002477318,16.33099937438965
6513.7780902197965,1197335.0,-0.005530000198632479,-0.0019099999917671084,0.003809999907389283,16.16200065612793
6513.779089991719,1197336.0,-0.006149999797344208,-0.0059899999760091305,-0.004269999917596579,16.07699966430664
6513.780089763642,1197337.0,-0.0047599999234080315,-0.0008200000156648457,-0.0021299999207258224,16.07699966430664
6513.781089535565,1197338.0,-0.004490000195801258,0.0010000000474974513,0.000539999979082495,16.070999145507812
6513.782089307488,1197339.0,-0.004089999943971634,0.001449999981559813,-0.004000000189989805,16.22599983215332
6513.78308907941,1197340.0,-0.003640000009909272,-0.004089999943971634,0.000539999979082495,16.094999313354492
6513.784088851333,1197341.0,-0.0008999999845400453,-0.0015399999683722854,0.0024999999441206455,16.10099983215332
6513.785088623255,1197342.0,0.00018000000272877514,0.00535999983549118,-0.004679999779909849,15.899999618530273
6513.786088395178,1197343.0,0.0007200000109151006,-0.007449999917298555,-0.005270000081509352,15.906999588012695
6513.7870881671015,1197344.0,0.0015300000086426735,-0.002859999891370535,-0.0012700000079348683,15.970000267028809
6513.788087939024,1197345.0,0.0008999999845400453,-0.004410000052303076,0.003269999986514449,15.973999977111816
6513.789087710947,1197346.0,0.00044999999227002263,-0.005270000081509352,0.003539999946951866,16.04599952697754
6513.790087482869,1197347.0,0.000539999979082495,-0.005090000107884407,0.0016299999551847577,15.923999786376953
6513.791087254792,1197348.0,0.0014400000218302011,0.0012700000079348683,0.0020000000949949026,15.923999786376953
6513.792087026715,1197349.0,0.003100000089034438,0.00018000000272877514,0.0012700000079348683,15.970000267028809
6513.793086798638,1197350.0,0.004490000195801258,-0.00571999978274107,-0.0012700000079348683,15.642999649047852
6513.7940865705605,1197351.0,0.004939999897032976,-0.003809999907389283,0.0,16.075000762939453
6513.795086342483,1197352.0,0.005210000090301037,-0.0007300000288523734,-0.0030900000128895044,15.607999801635742
6513.796086114406,1197353.0,0.005659999791532755,-0.004000000189989805,-0.000539999979082495,16.024999618530273
6513.797085886328,1197354.0,0.006380000151693821,-0.00418000016361475,-0.00418000016361475,15.859999656677246
6513.798085658252,1197355.0,0.007009999826550484,0.0031799999997019768,-0.004449999891221523,15.819999694824219
6513.799085430174,1197356.0,0.007369999773800373,-0.004540000110864639,-0.000910000002477318,15.802000045776367
6513.800085202097,1197357.0,0.007369999773800373,-0.003449999960139394,-0.004999999888241291,15.746000289916992
6513.801084974019,1197358.0,0.007009999826550484,-0.005270000081509352,0.0006799999973736703,15.765000343322754
6513.802084745942,1197359.0,0.008089999668300152,0.002630000002682209,-0.000910000002477318,15.942000389099121
6513.8030845178655,1197360.0,0.010599999688565731,-0.001449999981559813,0.0012700000079348683,15.88700008392334
6513.804084289788,1197361.0,0.01348000019788742,-0.0051299999468028545,0.004000000189989805,15.741000175476074
6513.805084061711,1197362.0,0.015449999831616879,0.001449999981559813,-0.003000000026077032,15.729000091552734
6513.806083833633,1197363.0,0.014820000156760216,0.0017300000181421638,-0.001180000021122396,15.496999740600586
6513.807083605556,1197364.0,0.012400000356137753,0.004000000189989805,0.00418000016361475,15.883999824523926
6513.808083377479,1197365.0,0.00773000018671155,-0.0005000000237487257,-0.005900000222027302,15.39900016784668
6513.809083149402,1197366.0,0.0023399998899549246,-0.002090000081807375,-0.0006799999973736703,15.375
6513.8100829213245,1197367.0,-0.00039999998989515007,-0.0011399999493733048,0.005450000055134296,15.366000175476074
6513.811082693247,1197368.0,-0.0014400000218302011,0.005309999920427799,-0.004089999943971634,15.692000389099121
6513.81208246517,1197369.0,-0.0018899999558925629,0.005090000107884407,-0.0021800000686198473,15.720000267028809
6513.813082237093,1197370.0,-0.0033199999015778303,-0.0002699999895412475,0.0025400000158697367,15.579000473022461
6513.814082009016,1197371.0,-0.005210000090301037,0.000910000002477318,0.0006399999838322401,15.708999633789062
6513.815081780938,1197372.0,-0.007009999826550484,0.0027199999894946814,0.0012700000079348683,15.723999977111816
6513.816081552861,1197373.0,-0.0071000000461936,-0.004720000084489584,0.0015399999683722854,15.753000259399414
6513.817081324783,1197374.0,-0.0048500001430511475,-0.0007699999841861427,-0.002630000002682209,15.569999694824219
6513.818081096706,1197375.0,-0.0024300001095980406,0.0024500000290572643,-0.007670000195503235,15.545999526977539
6513.8190808686295,1197376.0,-0.0011699999449774623,0.002360000042244792,0.0006799999973736703,15.692000389099121
6513.820080640552,1197377.0,-0.0011699999449774623,-0.006719999946653843,-0.003269999986514449,15.595999717712402
6513.821080412475,1197378.0,-0.002520000096410513,0.0007699999841861427,-0.0051299999468028545,15.680000305175781
6513.822080184397,1197379.0,-0.0027000000700354576,0.001180000021122396,-0.001180000021122396,15.491000175476074
6513.82307995632,1197380.0,-0.0018899999558925629,0.002630000002682209,-0.004449999891221523,15.623000144958496
6513.824079728243,1197381.0,-0.000539999979082495,0.0011399999493733048,0.0019099999917671084,15.215999603271484
6513.825079500166,1197382.0,0.0006699999794363976,0.003000000026077032,0.003269999986514449,15.579000473022461
6513.8260792720885,1197383.0,0.000539999979082495,-0.005400000140070915,0.0010000000474974513,15.496999740600586
6513.827079044011,1197384.0,0.003280000062659383,-0.003269999986514449,-0.006539999973028898,15.550000190734863
6513.828078815934,1197385.0,0.005080000031739473,0.0036299999337643385,-0.004089999943971634,15.569999694824219
6513.829078587857,1197386.0,0.005799999926239252,-0.001180000021122396,0.0013599999947473407,15.253000259399414
6513.83007835978,1197387.0,0.00610999995842576,0.0020000000949949026,0.0010000000474974513,15.472000122070312
6513.831078131702,1197388.0,0.006649999879300594,0.0021299999207258224,-0.0021800000686198473,15.144000053405762
6513.832077903625,1197389.0,0.0064199999906122684,-0.004809999838471413,0.0029100000392645597,15.14900016784668
6513.833077675547,1197390.0,0.00646999990567565,-0.0002699999895412475,-0.000910000002477318,15.178999900817871
6513.83407744747,1197391.0,0.007189999800175428,0.00418000016361475,-0.0020000000949949026,15.239999771118164
6513.8350772193935,1197392.0,0.00773000018671155,0.0010900000343099236,0.0027199999894946814,15.234000205993652
6513.836076991316,1197393.0,0.007369999773800373,-0.0012700000079348683,0.0003600000054575503,15.166999816894531
6513.837076763239,1197394.0,0.003229999914765358,0.0015399999683722854,-0.0016299999551847577,15.302000045776367
6513.838076535161,1197395.0,-0.000539999979082495,-0.003809999907389283,0.0,15.258999824523926
6513.839076307084,1197396.0,-0.001979999942705035,-0.003949999809265137,0.0012700000079348683,15.185999870300293
6513.840076079007,1197397.0,-0.0007200000109151006,0.0016299999551847577,0.002630000002682209,15.157999992370605
6513.84107585093,1197398.0,0.003100000089034438,-0.0016299999551847577,-0.00018000000272877514,15.246999740600586
6513.8420756228525,1197399.0,0.005570000037550926,0.0006399999838322401,-0.005630000028759241,15.11400032043457
6513.843075394775,1197400.0,0.005929999984800816,-0.001180000021122396,-4.999999873689376e-05,15.236000061035156
6513.844075166698,1197401.0,0.005929999984800816,0.000539999979082495,-0.001449999981559813,15.314000129699707
6513.845074938621,1197402.0,0.00547999981790781,-0.003220000071451068,-0.0030900000128895044,15.166999816894531
6513.846074710544,1197403.0,0.005210000090301037,0.0011399999493733048,0.0030900000128895044,15.097000122070312
6513.847074482466,1197404.0,0.004540000110864639,0.0016299999551847577,-0.004089999943971634,14.99899959564209
6513.848074254389,1197405.0,0.004579999949783087,0.0029100000392645597,-0.000539999979082495,15.032999992370605
6513.849074026311,1197406.0,0.0048500001430511475,-0.004809999838471413,0.004089999943971634,15.13700008392334
6513.850073798234,1197407.0,0.005659999791532755,-0.0027199999894946814,0.004860000219196081,15.201000213623047
6513.8510735701575,1197408.0,0.0069599999114871025,-0.0025400000158697367,-0.0010900000343099236,15.166999816894531
6513.85207334208,1197409.0,0.008980000391602516,0.0002300000051036477,-0.004000000189989805,15.163999557495117
6513.853073114003,1197410.0,0.009750000201165676,0.0015399999683722854,-0.004360000137239695,14.989999771118164
6513.854072885925,1197411.0,0.011140000075101852,-0.004000000189989805,-9.000000136438757e-05,15.121000289916992
6513.855072657848,1197412.0,0.010599999688565731,-0.0036299999337643385,-0.0033599999733269215,14.940999984741211
6513.856072429771,1197413.0,0.008799999952316284,-0.0063599999994039536,0.0021299999207258224,15.045000076293945
6513.857072201694,1197414.0,0.008980000391602516,0.0003600000054575503,0.0002699999895412475,15.072999954223633
6513.8580719736165,1197415.0,0.009700000286102295,-0.0027199999894946814,-0.001180000021122396,15.045000076293945
6513.859071745539,1197416.0,0.01051000040024519,-0.005630000028759241,-0.0002699999895412475,14.89900016784668
6513.860071517462,1197417.0,0.009569999761879444,-0.00418000016361475,-0.0027199999894946814,15.027000427246094
6513.861071289385,1197418.0,0.006380000151693821,-0.000910000002477318,0.0006799999973736703,14.760000228881836
6513.862071061308,1197419.0,0.0037700000684708357,-0.005810000002384186,0.000539999979082495,14.904999732971191
6513.86307083323,1197420.0,0.0023399998899549246,-0.0010900000343099236,-0.0012700000079348683,14.95199966430664
6513.864070605153,1197421.0,0.0016199999954551458,0.0006799999973736703,0.0010900000343099236,14.565999984741211
6513.865070377075,1197422.0,0.0035000001080334187,-0.00018000000272877514,-0.005489999894052744,14.87399959564209
6513.866070148999,1197423.0,0.005570000037550926,0.0029100000392645597,0.00018000000272877514,14.633000373840332
6513.8670699209215,1197424.0,0.0064199999906122684,0.0006399999838322401,-0.004269999917596579,14.777000427246094
6513.868069692844,1197425.0,0.004490000195801258,0.0010000000474974513,-0.0006399999838322401,14.39799976348877
6513.869069464767,1197426.0,0.0030499999411404133,-0.0021299999207258224,0.003809999907389283,14.510000228881836
6513.870069236689,1197427.0,0.004269999917596579,0.000910000002477318,-0.0051299999468028545,14.659000396728516
6513.871069008612,1197428.0,0.005570000037550926,0.002090000081807375,-0.002360000042244792,14.649999618530273
6513.872068780535,1197429.0,0.006649999879300594,0.002360000042244792,0.004410000052303076,14.645000457763672
6513.873068552458,1197430.0,0.0071000000461936,-0.0012700000079348683,-0.004449999891221523,14.64799976348877
6513.8740683243805,1197431.0,0.008089999668300152,0.003000000026077032,-0.004449999891221523,14.609000205993652
6513.875068096303,1197432.0,0.008449999615550041,-0.004449999891221523,-0.0051299999468028545,14.583000183105469
6513.876067868226,1197433.0,0.007499999832361937,0.00418000016361475,-0.0006799999973736703,14.758000373840332
6513.877067640149,1197434.0,0.006829999852925539,0.00418000016361475,0.0021800000686198473,14.303999900817871
6513.878067412072,1197435.0,0.005659999791532755,0.003449999960139394,0.001500000013038516,14.6850004196167
6513.879067183994,1197436.0,0.0052999998442828655,-0.003809999907389283,0.0021800000686198473,14.614999771118164
6513.880066955917,1197437.0,0.005750000011175871,-0.0030400000978261232,0.003220000071451068,14.565999984741211
6513.881066727839,1197438.0,0.0037700000684708357,0.0022700000554323196,-0.000910000002477318,14.487000465393066
6513.882066499763,1197439.0,-0.002520000096410513,0.000910000002477318,0.003809999907389283,14.368000030517578
6513.8830662716855,1197440.0,-0.007009999826550484,0.0016299999551847577,-0.0020000000949949026,14.508000373840332
6513.884066043608,1197441.0,-0.00930000003427267,-0.000539999979082495,-0.0033199999015778303,14.376999855041504
6513.885065815531,1197442.0,-0.009340000338852406,0.0021800000686198473,0.00044999999227002263,14.362000465393066
6513.886065587453,1197443.0,-0.007009999826550484,-0.006490000057965517,0.0025400000158697367,14.449999809265137
6513.887065359376,1197444.0,-0.004129999782890081,0.001820000004954636,0.0008200000156648457,14.45199966430664
6513.888065131299,1197445.0,-0.00107999995816499,0.0024500000290572643,0.0017300000181421638,14.35200023651123
6513.889064903222,1197446.0,0.0031399999279528856,0.003449999960139394,-0.0013599999947473407,14.428999900817871
6513.8900646751445,1197447.0,0.00674000009894371,-4.999999873689376e-05,-0.004769999999552965,14.345999717712402
6513.891064447067,1197448.0,0.008539999835193157,0.004999999888241291,-0.004089999943971634,14.220999717712402
6513.89206421899,1197449.0,0.010239999741315842,-0.003000000026077032,-0.002360000042244792,14.295999526977539
6513.893063990913,1197450.0,0.01095999963581562,0.0015399999683722854,0.0017300000181421638,14.220000267028809
6513.894063762836,1197451.0,0.012760000303387642,-0.0016299999551847577,0.000539999979082495,14.324999809265137
6513.895063534758,1197452.0,0.014109999872744083,-0.00018000000272877514,-0.006899999920278788,14.013999938964844
6513.896063306681,1197453.0,0.014999999664723873,-0.0033199999015778303,-0.001820000004954636,14.21500015258789
6513.897063078603,1197454.0,0.015720000490546227,0.002090000081807375,-0.004089999943971634,14.194000244140625
6513.898062850527,1197455.0,0.015720000490546227,-0.007040000054985285,-0.003000000026077032,14.163000106811523
6513.8990626224495,1197456.0,0.013389999978244305,0.0030900000128895044,0.0002300000051036477,14.348999977111816
6513.900062394372,1197457.0,0.010649999603629112,0.005270000081509352,-9.000000136438757e-05,14.166000366210938
6513.901062166295,1197458.0,0.008799999952316284,0.0030900000128895044,-0.004540000110864639,14.307000160217285
6513.902061938217,1197459.0,0.008449999615550041,0.002360000042244792,0.000910000002477318,14.071999549865723
6513.90306171014,1197460.0,0.007910000160336494,0.002360000042244792,-0.0036299999337643385,14.12399959564209
6513.904061482063,1197461.0,0.008580000139772892,-0.003809999907389283,-0.0028200000524520874,14.263999938964844
6513.905061253986,1197462.0,0.009159999899566174,-0.0024500000290572643,-9.000000136438757e-05,13.994999885559082
6513.9060610259085,1197463.0,0.009390000253915787,-0.0013599999947473407,0.00018000000272877514,14.206000328063965
6513.907060797831,1197464.0,0.008799999952316284,-0.003000000026077032,-0.0006799999973736703,14.071999549865723
6513.908060569754,1197465.0,0.0088900001719594,0.001449999981559813,0.004540000110864639,13.97700023651123
6513.909060341677,1197466.0,0.008799999952316284,-0.003449999960139394,-4.999999873689376e-05,13.998000144958496
6513.9100601136,1197467.0,0.008220000192523003,-0.0018599999602884054,-0.00418000016361475,13.61400032043457
6513.911059885522,1197468.0,0.008089999668300152,-0.004360000137239695,0.0011399999493733048,13.970999717712402
6513.912059657445,1197469.0,0.008630000054836273,-0.0020000000949949026,-0.0020000000949949026,13.913999557495117
6513.913059429367,1197470.0,0.00773000018671155,-0.0030900000128895044,-0.003719999920576811,13.925000190734863
6513.914059201291,1197471.0,0.0064199999906122684,0.0025400000158697367,0.0006399999838322401,13.965999603271484
6513.9150589732135,1197472.0,0.0064199999906122684,0.0024500000290572643,0.003269999986514449,13.890000343322754
6513.916058745136,1197473.0,0.005350000225007534,-0.005489999894052744,0.003449999960139394,13.873000144958496
6513.917058517059,1197474.0,0.005659999791532755,-0.002630000002682209,0.002360000042244792,13.869000434875488
6513.918058288981,1197475.0,0.0071000000461936,-0.007079999893903732,-0.00418000016361475,13.817999839782715
6513.919058060905,1197476.0,0.008799999952316284,-0.003590000094845891,-0.0062699997797608376,13.779000282287598
6513.920057832827,1197477.0,0.010470000095665455,0.0051299999468028545,-0.0028200000524520874,13.777000427246094
6513.92105760475,1197478.0,0.009519999846816063,-0.004809999838471413,0.0013599999947473407,13.748000144958496
6513.9220573766725,1197479.0,0.00773000018671155,0.0024500000290572643,0.0024500000290572643,13.805999755859375
6513.923057148595,1197480.0,0.008270000107586384,-0.0016299999551847577,0.00018000000272877514,13.729999542236328
6513.924056920518,1197481.0,0.007280000019818544,-0.00018000000272877514,-0.00418000016361475,13.800000190734863
6513.925056692441,1197482.0,0.008220000192523003,-0.00267999991774559,-0.002630000002682209,13.682999610900879
6513.926056464364,1197483.0,0.008980000391602516,0.004000000189989805,-0.0030900000128895044,13.668999671936035
6513.927056236286,1197484.0,0.00773000018671155,-0.0027199999894946814,0.000910000002477318,13.71500015258789
6513.928056008209,1197485.0,0.0065100002102553844,-0.0014100000262260437,0.0027199999894946814,13.312000274658203
6513.929055780131,1197486.0,0.004670000169426203,0.00535999983549118,-0.000910000002477318,13.836999893188477
6513.930055552055,1197487.0,0.0047599999234080315,0.0031300000846385956,0.001449999981559813,13.687000274658203
6513.9310553239775,1197488.0,0.00547999981790781,0.0008200000156648457,-0.003449999960139394,13.805999755859375
6513.9320550959,1197489.0,0.005570000037550926,-0.0013599999947473407,0.0016299999551847577,13.708000183105469
6513.933054867823,1197490.0,0.0053900000639259815,-0.0024500000290572643,0.0025400000158697367,13.593000411987305
6513.934054639745,1197491.0,0.006380000151693821,0.0020000000949949026,0.004000000189989805,13.616999626159668
6513.935054411668,1197492.0,0.00773000018671155,0.004540000110864639,0.001500000013038516,13.484000205993652
6513.936054183591,1197493.0,0.007280000019818544,0.0021800000686198473,-0.003719999920576811,13.527999877929688
6513.937053955514,1197494.0,0.006560000125318766,0.003269999986514449,-0.005179999861866236,13.576000213623047
6513.938053727436,1197495.0,0.00610999995842576,-0.0059899999760091305,-0.0059899999760091305,13.637999534606934
6513.939053499359,1197496.0,0.005080000031739473,-0.004089999943971634,-0.0030900000128895044,13.593000411987305
6513.940053271282,1197497.0,0.004490000195801258,-0.0005000000237487257,0.00018000000272877514,13.62600040435791
6513.941053043205,1197498.0,0.004670000169426203,-0.0015399999683722854,0.0016299999551847577,13.473999977111816
6513.942052815128,1197499.0,0.005750000011175871,-0.0020000000949949026,-0.0027199999894946814,13.572999954223633
6513.94305258705,1197500.0,0.007280000019818544,0.005630000028759241,-0.003590000094845891,13.152999877929688
6513.944052358973,1197501.0,0.007459999993443489,-0.004860000219196081,-0.00418000016361475,13.33899974822998
6513.945052130895,1197502.0,0.007139999885112047,-0.0020000000949949026,-0.0052200001664459705,13.494999885559082
6513.946051902819,1197503.0,0.00646999990567565,-0.002950000111013651,0.005450000055134296,13.279999732971191
6513.9470516747415,1197504.0,0.004310000222176313,-0.001180000021122396,0.0027199999894946814,13.364999771118164
6513.948051446664,1197505.0,0.001979999942705035,-0.0031799999997019768,0.004040000028908253,13.170999526977539
6513.949051218587,1197506.0,0.0012600000482052565,0.003809999907389283,-0.0012700000079348683,13.284000396728516
6513.950050990509,1197507.0,0.0017099999822676182,-0.006719999946653843,-0.005770000163465738,13.286999702453613
6513.951050762433,1197508.0,0.0014400000218302011,-0.0019099999917671084,-0.0033199999015778303,13.284000396728516
6513.952050534355,1197509.0,0.00018000000272877514,-0.0059899999760091305,-0.0044999998062849045,13.364999771118164
6513.953050306278,1197510.0,-9.000000136438757e-05,-0.00535999983549118,0.002360000042244792,12.871999740600586
6513.9540500782,1197511.0,0.0037700000684708357,-0.005450000055134296,0.004269999917596579,13.385000228881836
6513.955049850123,1197512.0,0.00674000009894371,0.006180000025779009,-0.004679999779909849,13.282999992370605
6513.956049622046,1197513.0,0.007590000052005053,-0.0029100000392645597,-0.004000000189989805,13.277999877929688
6513.957049393969,1197514.0,0.008179999887943268,0.0002699999895412475,-0.00418000016361475,13.232000350952148
6513.958049165892,1197515.0,0.008129999972879887,-0.00418000016361475,-0.007079999893903732,13.097000122070312
6513.959048937814,1197516.0,0.007860000245273113,-0.003449999960139394,0.0015399999683722854,12.911999702453613
6513.960048709737,1197517.0,0.008270000107586384,-0.006539999973028898,0.0017300000181421638,13.23900032043457
6513.961048481659,1197518.0,0.008179999887943268,0.0031799999997019768,-0.0029100000392645597,13.0600004196167
6513.962048253583,1197519.0,0.006829999852925539,-0.0063599999994039536,-0.003909999970346689,13.031000137329102
6513.9630480255055,1197520.0,0.007230000104755163,0.0016299999551847577,-0.002090000081807375,12.935999870300293
6513.964047797428,1197521.0,0.007770000025629997,-0.002360000042244792,-0.005810000002384186,13.147000312805176
6513.965047569351,1197522.0,0.007189999800175428,-0.0020000000949949026,0.0010000000474974513,12.755000114440918
6513.966047341273,1197523.0,0.007459999993443489,-0.0030900000128895044,0.0002300000051036477,13.133000373840332
6513.967047113197,1197524.0,0.0088900001719594,0.002360000042244792,-0.0010900000343099236,13.086000442504883
6513.968046885119,1197525.0,0.011189999990165234,-0.0010000000474974513,-0.005090000107884407,12.95199966430664
6513.969046657042,1197526.0,0.01257999986410141,-0.0024500000290572643,-0.0036299999337643385,12.946000099182129
6513.970046428964,1197527.0,0.010870000347495079,-0.0020000000949949026,-0.004900000058114529,12.887999534606934
6513.971046200887,1197528.0,0.007550000213086605,-0.0033199999015778303,0.00044999999227002263,12.887999534606934
6513.97204597281,1197529.0,0.005350000225007534,-0.0059899999760091305,0.0020000000949949026,12.937999725341797
6513.973045744733,1197530.0,0.0021100000012665987,0.0016299999551847577,0.002360000042244792,13.024999618530273
6513.974045516656,1197531.0,3.9999998989515007e-05,-0.00031999999191612005,-0.004679999779909849,13.013999938964844
6513.975045288578,1197532.0,9.000000136438757e-05,0.0,-0.0036299999337643385,12.982000350952148
6513.976045060501,1197533.0,0.0008999999845400453,-0.002360000042244792,-0.004000000189989805,12.774999618530273
6513.977044832423,1197534.0,0.0023399998899549246,-0.0027199999894946814,-0.004900000058114529,12.786999702453613
6513.978044604347,1197535.0,0.004310000222176313,-0.004900000058114529,0.0027699999045580626,12.758999824523926
6513.9790443762695,1197536.0,0.00610999995842576,0.0018599999602884054,-0.002360000042244792,12.75
6513.980044148192,1197537.0,0.006380000151693821,-0.0033599999733269215,-0.005539999809116125,12.774999618530273
6513.981043920115,1197538.0,0.00674000009894371,0.0012700000079348683,-0.000539999979082495,12.689000129699707
6513.982043692037,1197539.0,0.006649999879300594,-0.0007300000288523734,-0.004900000058114529,12.677000045776367
6513.983043463961,1197540.0,0.005570000037550926,0.0016299999551847577,-0.0062699997797608376,12.682999610900879
6513.984043235883,1197541.0,0.003819999983534217,-0.003809999907389283,-0.001180000021122396,12.774999618530273
6513.985043007806,1197542.0,0.0031900000758469105,0.003909999970346689,0.006899999920278788,12.800999641418457
6513.986042779728,1197543.0,0.004670000169426203,-0.0015399999683722854,-0.0006799999973736703,12.817000389099121
6513.987042551651,1197544.0,0.005929999984800816,0.002360000042244792,-0.00418000016361475,12.592000007629395
6513.988042323574,1197545.0,0.005929999984800816,0.00018000000272877514,-0.0027199999894946814,12.652999877929688
6513.989042095497,1197546.0,0.005929999984800816,0.00018000000272877514,-0.0030900000128895044,12.378000259399414
6513.99004186742,1197547.0,0.006649999879300594,-0.004809999838471413,-4.999999873689376e-05,12.520000457763672
6513.991041639342,1197548.0,0.006829999852925539,0.003539999946951866,0.001230000052601099,12.531000137329102
6513.992041411265,1197549.0,0.007550000213086605,-0.002859999891370535,0.0016299999551847577,12.536999702453613
6513.993041183187,1197550.0,0.008089999668300152,0.003000000026077032,-0.0021800000686198473,12.60099983215332
6513.994040955111,1197551.0,0.008980000391602516,0.004089999943971634,-0.007079999893903732,12.253000259399414
6513.9950407270335,1197552.0,0.008980000391602516,0.0028200000524520874,-0.005090000107884407,12.642999649047852
6513.996040498956,1197553.0,0.008630000054836273,0.0012700000079348683,-0.0022700000554323196,12.454000473022461
6513.997040270879,1197554.0,0.008089999668300152,0.0027199999894946814,0.002360000042244792,12.456999778747559
6513.998040042801,1197555.0,0.00773000018671155,-0.005270000081509352,-0.0008200000156648457,12.505999565124512
6513.999039814725,1197556.0,0.007910000160336494,-0.00418000016361475,0.002360000042244792,12.390000343322754
6514.000039586647,1197557.0,0.008630000054836273,-0.007770000025629997,-0.004629999864846468,12.38700008392334
6514.00103935857,1197558.0,0.00875999964773655,-0.0036299999337643385,-0.003809999907389283,12.463000297546387
6514.002039130492,1197559.0,0.008539999835193157,-0.0012700000079348683,0.00018000000272877514,12.52299976348877
6514.003038902415,1197560.0,0.007280000019818544,-0.004040000028908253,0.0020000000949949026,12.508999824523926
6514.0040386743385,1197561.0,0.004670000169426203,0.0021800000686198473,0.0,12.39900016784668
6514.005038446261,1197562.0,0.0021100000012665987,-0.005539999809116125,-0.0021800000686198473,12.166999816894531
6514.006038218184,1197563.0,-0.0003600000054575503,-0.003449999960139394,-0.0035000001080334187,12.48900032043457
6514.007037990106,1197564.0,-0.0007200000109151006,-0.002950000111013651,-0.0030900000128895044,12.28600025177002
6514.008037762029,1197565.0,-0.0011699999449774623,0.002360000042244792,0.00018000000272877514,11.9399995803833
6514.009037533951,1197566.0,-0.00044999999227002263,-0.006719999946653843,0.004269999917596579,11.947999954223633
6514.010037305875,1197567.0,-0.00013000000035390258,-0.001449999981559813,0.004089999943971634,11.980999946594238
6514.0110370777975,1197568.0,-0.000539999979082495,0.001449999981559813,0.00044999999227002263,12.329000473022461
6514.01203684972,1197569.0,-0.00018000000272877514,0.0016299999551847577,0.0010000000474974513,11.913999557495117
6514.013036621643,1197570.0,-0.0003600000054575503,-0.00018000000272877514,-0.002630000002682209,12.270000457763672
6514.014036393565,1197571.0,-0.0030499999411404133,0.0024500000290572643,-0.0036800000816583633,12.230999946594238
6514.015036165489,1197572.0,-0.004490000195801258,-0.004720000084489584,-0.0010000000474974513,12.17300033569336
6514.016035937411,1197573.0,-0.0015300000086426735,0.0029100000392645597,0.00018000000272877514,12.230999946594238
6514.017035709334,1197574.0,0.0014400000218302011,0.002090000081807375,0.002950000111013651,12.107999801635742
6514.018035481256,1197575.0,0.002520000096410513,0.000539999979082495,-0.0021299999207258224,12.177000045776367
6514.019035253179,1197576.0,0.0035500000230968,0.0016299999551847577,-0.005859999917447567,12.041999816894531
6514.0200350251025,1197577.0,0.0027000000700354576,-0.0003600000054575503,0.0030900000128895044,12.050999641418457
6514.021034797025,1197578.0,0.0023399998899549246,-0.003449999960139394,0.004720000084489584,11.687999725341797
6514.022034568948,1197579.0,0.0023399998899549246,-0.00044999999227002263,-0.0007300000288523734,11.960000038146973
6514.02303434087,1197580.0,0.0024300001095980406,0.0015399999683722854,-0.0016299999551847577,11.970999717712402
6514.024034112793,1197581.0,0.0034099998883903027,-0.0003600000054575503,0.0027199999894946814,11.963000297546387
6514.025033884715,1197582.0,0.0030499999411404133,0.004900000058114529,-0.003449999960139394,11.9350004196167
6514.026033656639,1197583.0,0.0025599999353289604,-0.0030900000128895044,0.002360000042244792,11.895999908447266
6514.0270334285615,1197584.0,0.0033199999015778303,0.0013599999947473407,0.0020000000949949026,11.876999855041504
6514.028033200484,1197585.0,0.004310000222176313,-0.007079999893903732,-0.005040000192821026,11.66100025177002
6514.029032972407,1197586.0,0.006649999879300594,-0.004809999838471413,0.000539999979082495,11.986000061035156
6514.030032744329,1197587.0,0.007819999940693378,-0.000539999979082495,0.0027199999894946814,11.548999786376953
6514.031032516253,1197588.0,0.008449999615550041,-0.0016299999551847577,-0.0031799999997019768,11.822999954223633
6514.032032288175,1197589.0,0.008670000359416008,0.0011399999493733048,-0.005040000192821026,11.788999557495117
6514.033032060098,1197590.0,0.009159999899566174,-0.0029100000392645597,-0.002360000042244792,11.765000343322754
6514.03403183202,1197591.0,0.008799999952316284,-0.0033599999733269215,-0.004769999999552965,11.951000213623047
6514.035031603943,1197592.0,0.008799999952316284,0.000910000002477318,0.0020000000949949026,11.791999816894531
6514.0360313758665,1197593.0,0.009879999794065952,0.0030900000128895044,0.0002699999895412475,11.89900016784668
6514.037031147789,1197594.0,0.010739999823272228,-0.0019099999917671084,-0.006089999806135893,11.847000122070312
6514.038030919712,1197595.0,0.012849999591708183,0.00203999993391335,-0.004360000137239695,11.859000205993652
6514.039030691634,1197596.0,0.01051000040024519,0.0027199999894946814,-4.999999873689376e-05,11.850000381469727
6514.040030463557,1197597.0,0.007459999993443489,0.0019099999917671084,-0.002360000042244792,11.583999633789062
6514.041030235479,1197598.0,0.007459999993443489,0.000539999979082495,0.006949999835342169,11.765000343322754
6514.042030007403,1197599.0,0.008270000107586384,0.0007300000288523734,0.0012700000079348683,11.324999809265137
6514.0430297793255,1197600.0,0.008089999668300152,-0.0016299999551847577,-0.0010900000343099236,11.626999855041504
6514.044029551248,1197601.0,0.007459999993443489,-0.00418000016361475,-0.003539999946951866,11.333999633789062
6514.045029323171,1197602.0,0.007230000104755163,0.0002699999895412475,-0.003000000026077032,11.26099967956543
6514.046029095093,1197603.0,0.007410000078380108,-0.000539999979082495,-0.005630000028759241,11.678999900817871
6514.047028867017,1197604.0,0.007139999885112047,0.003809999907389283,-0.0016299999551847577,11.345999717712402
6514.048028638939,1197605.0,0.006200000178068876,-0.0007300000288523734,0.004999999888241291,11.687999725341797
6514.049028410862,1197606.0,0.005210000090301037,-0.007269999943673611,-0.0008200000156648457,11.630000114440918
6514.050028182784,1197607.0,0.004490000195801258,0.0020000000949949026,-0.005270000081509352,11.670000076293945
6514.051027954707,1197608.0,0.003860000055283308,0.004360000137239695,-0.004000000189989805,11.621000289916992
6514.0520277266305,1197609.0,0.0016199999954551458,0.0030900000128895044,-0.003809999907389283,11.182999610900879
6514.053027498553,1197610.0,-0.001979999942705035,0.002950000111013651,0.001500000013038516,11.593999862670898
6514.054027270476,1197611.0,-0.005880000069737434,0.0007699999841861427,0.0020000000949949026,11.22599983215332
6514.055027042398,1197612.0,-0.008449999615550041,0.0017300000181421638,0.0025400000158697367,11.420000076293945
6514.056026814321,1197613.0,-0.008449999615550041,-0.007269999943673611,0.0029100000392645597,11.4350004196167
6514.057026586244,1197614.0,-0.00773000018671155,0.0020000000949949026,-0.0059899999760091305,11.420000076293945
6514.058026358167,1197615.0,-0.00872000027447939,0.0002699999895412475,0.000539999979082495,11.34000015258789
6514.0590261300895,1197616.0,-0.008310000412166119,-0.001180000021122396,-0.000539999979082495,11.355999946594238
6514.060025902012,1197617.0,-0.006829999852925539,-0.00018000000272877514,-0.0029100000392645597,11.29800033569336
6514.061025673935,1197618.0,-0.005570000037550926,0.002360000042244792,-0.003590000094845891,11.329999923706055
6514.062025445857,1197619.0,-0.0037299999967217445,-0.0030900000128895044,-0.004089999943971634,10.994999885559082
6514.063025217781,1197620.0,-0.0023399998899549246,-0.000539999979082495,0.0028200000524520874,11.277999877929688
6514.064024989703,1197621.0,-0.0023399998899549246,0.001769999973475933,0.0024500000290572643,11.395000457763672
6514.065024761626,1197622.0,-0.0003600000054575503,-0.0052200001664459705,-0.0003600000054575503,11.21500015258789
6514.066024533548,1197623.0,0.003909999970346689,-0.006310000084340572,0.0059899999760091305,11.35099983215332
6514.067024305471,1197624.0,0.006920000072568655,0.0022299999836832285,-0.004089999943971634,11.286999702453613
6514.0680240773945,1197625.0,0.008799999952316284,0.005450000055134296,-0.0063599999994039536,11.24899959564209
6514.069023849317,1197626.0,0.009429999627172947,-0.0016299999551847577,0.000910000002477318,11.333999633789062
6514.07002362124,1197627.0,0.008089999668300152,-0.005770000163465738,-0.006680000107735395,11.156000137329102
6514.071023393162,1197628.0,0.008089999668300152,-0.004000000189989805,-0.002360000042244792,11.26099967956543
6514.072023165085,1197629.0,0.005929999984800816,0.0031799999997019768,0.002630000002682209,10.95300006866455
6514.073022937007,1197630.0,0.003590000094845891,-0.006810000166296959,0.0024999999441206455,10.970000267028809
6514.074022708931,1197631.0,0.0012600000482052565,0.0010900000343099236,0.000910000002477318,11.041000366210938
6514.0750224808535,1197632.0,-0.00044999999227002263,-0.003000000026077032,0.0002699999895412475,11.086000442504883
6514.076022252776,1197633.0,-0.0008099999977275729,-0.004360000137239695,-0.007180000189691782,11.218000411987305
6514.077022024699,1197634.0,0.0008999999845400453,-0.006630000192672014,-0.0031799999997019768,10.718000411987305
6514.078021796621,1197635.0,0.0014400000218302011,0.006719999946653843,-0.002630000002682209,11.0
6514.079021568545,1197636.0,0.0017099999822676182,-0.005179999861866236,-0.0002699999895412475,10.692999839782715
6514.080021340467,1197637.0,0.002959999954327941,-0.005630000028759241,0.0020000000949949026,10.833999633789062
6514.08102111239,1197638.0,0.0028800000436604023,-0.0059899999760091305,-0.0016299999551847577,10.930999755859375
6514.082020884312,1197639.0,0.0018899999558925629,-0.00571999978274107,-0.002360000042244792,10.947999954223633
6514.083020656235,1197640.0,0.0027000000700354576,-0.004900000058114529,0.0010000000474974513,10.96500015258789
6514.0840204281585,1197641.0,0.0016199999954551458,0.00418000016361475,-0.003269999986514449,11.02299976348877
6514.085020200081,1197642.0,0.0017999999690800905,-0.0010900000343099236,-0.007040000054985285,10.918999671936035
6514.086019972004,1197643.0,0.0033199999015778303,-0.00535999983549118,0.0012700000079348683,10.909000396728516
6514.087019743926,1197644.0,0.004310000222176313,-0.005489999894052744,-0.006130000110715628,10.84000015258789
6514.088019515849,1197645.0,0.0028800000436604023,-0.003809999907389283,-0.003809999907389283,10.812000274658203
6514.089019287772,1197646.0,0.0026100000832229853,0.0006799999973736703,0.00018000000272877514,10.986000061035156
6514.090019059695,1197647.0,0.0016199999954551458,-0.008170000277459621,0.004310000222176313,10.807999610900879
6514.0910188316175,1197648.0,0.0008999999845400453,-0.0024500000290572643,0.004000000189989805,10.779999732971191
6514.09201860354,1197649.0,0.0013500000350177288,0.004410000052303076,-0.00044999999227002263,10.755999565124512
6514.093018375463,1197650.0,0.0003600000054575503,0.0010900000343099236,0.002360000042244792,10.821999549865723
6514.094018147385,1197651.0,0.0,0.0013599999947473407,-0.0034099998883903027,10.718999862670898
6514.095017919309,1197652.0,0.0,0.003269999986514449,-0.005270000081509352,10.78499984741211
6514.096017691231,1197653.0,-0.0007200000109151006,-0.0008200000156648457,-0.005090000107884407,10.826000213623047
6514.097017463154,1197654.0,-0.00107999995816499,-0.005630000028759241,-0.005179999861866236,10.857999801635742
6514.098017235076,1197655.0,-0.0010300000431016088,0.002630000002682209,0.0025400000158697367,10.821999549865723
6514.099017006999,1197656.0,-0.0016199999954551458,0.0019099999917671084,-0.00018000000272877514,10.645999908447266
6514.1000167789225,1197657.0,-0.002520000096410513,0.005270000081509352,-0.005489999894052744,10.736000061035156
6514.101016550845,1197658.0,-0.004269999917596579,0.0016299999551847577,-0.0045900000259280205,10.60200023651123
6514.102016322768,1197659.0,-0.0048500001430511475,-0.0036299999337643385,-0.003000000026077032,10.593000411987305
6514.10301609469,1197660.0,-0.0037700000684708357,-0.002630000002682209,-0.003719999920576811,10.57699966430664
6514.104015866613,1197661.0,-0.003229999914765358,-0.0034099998883903027,-0.000539999979082495,10.611000061035156
6514.105015638536,1197662.0,-0.0034099998883903027,-0.0033599999733269215,0.001769999973475933,10.277999877929688
6514.106015410459,1197663.0,-0.004269999917596579,-0.001820000004954636,-0.005590000189840794,10.70300006866455
6514.1070151823815,1197664.0,-0.003229999914765358,0.0021800000686198473,-0.004129999782890081,10.36400032043457
6514.108014954304,1197665.0,-0.0027000000700354576,-0.005859999917447567,-0.004220000002533197,10.461000442504883
6514.109014726227,1197666.0,-0.0017500000540167093,-0.003220000071451068,-0.005270000081509352,10.503999710083008
6514.110014498149,1197667.0,-0.0006300000241026282,0.00031999999191612005,0.004449999891221523,10.425999641418457
6514.111014270073,1197668.0,-0.00018000000272877514,0.000910000002477318,0.0007300000288523734,10.46399974822998
6514.112014041995,1197669.0,-0.00018000000272877514,0.004000000189989805,-0.0027199999894946814,10.413000106811523
6514.113013813918,1197670.0,0.0007200000109151006,-0.003449999960139394,0.0030900000128895044,10.144000053405762
6514.11401358584,1197671.0,0.00215999991632998,0.002090000081807375,0.003809999907389283,10.262999534606934
6514.115013357763,1197672.0,0.005929999984800816,-0.0027199999894946814,-0.004089999943971634,10.37600040435791
6514.1160131296865,1197673.0,0.009569999761879444,0.0003600000054575503,0.0013599999947473407,10.090999603271484
6514.117012901609,1197674.0,0.011459999717772007,0.003809999907389283,-0.005270000081509352,10.519000053405762
6514.118012673532,1197675.0,0.011140000075101852,0.002360000042244792,-0.0021299999207258224,10.345000267028809
6514.119012445454,1197676.0,0.009519999846816063,-0.0012700000079348683,0.0029100000392645597,10.300999641418457
6514.120012217377,1197677.0,0.007860000245273113,0.002360000042244792,0.003860000055283308,10.300000190734863
6514.1210119893,1197678.0,0.007910000160336494,-0.0012700000079348683,-0.0036299999337643385,10.260000228881836
6514.122011761223,1197679.0,0.008089999668300152,0.005090000107884407,-0.0010900000343099236,10.437000274658203
6514.1230115331455,1197680.0,0.0071000000461936,0.000910000002477318,-0.0019499999471008778,9.970000267028809
6514.124011305068,1197681.0,0.007009999826550484,0.0028200000524520874,-0.004449999891221523,10.399999618530273
6514.125011076991,1197682.0,0.006649999879300594,-0.0025400000158697367,0.001180000021122396,10.381999969482422
6514.126010848913,1197683.0,0.0065100002102553844,0.004999999888241291,0.001769999973475933,10.348999977111816
6514.127010620837,1197684.0,0.006380000151693821,-0.0033599999733269215,-0.0019099999917671084,10.211000442504883
6514.128010392759,1197685.0,0.005799999926239252,-0.00018000000272877514,-0.0008200000156648457,10.17199993133545
