LSL_Time,PLUX_P1_nSeq,PLUX_P1_ECG0,PLUX_P1_EMG1,PLUX_P1_EMG2,PLUX_P1_RESPIRATION3
6604.757982066279,1287185.0,-0.0588500015437603,-0.003220000071451068,-0.001230000052601099,-0.5133799910545349
6604.758981838494,1287186.0,-0.045099999755620956,-0.0033199999015778303,-0.0031300000846385956,-0.5173599720001221
6604.7599816107095,1287187.0,-0.032430000603199005,4.999999873689376e-05,-0.002409999957308173,-0.5142099857330322
6604.760981382924,1287188.0,-0.024620000272989273,0.00203999993391335,-0.000910000002477318,-0.5138900279998779
6604.761981155139,1287189.0,-0.021379999816417694,0.00203999993391335,0.0027199999894946814,-0.5137500166893005
6604.762980927355,1287190.0,-0.019680000841617584,0.0010000000474974513,-0.0013200000394135714,-0.5100399851799011
6604.76398069957,1287191.0,-0.01931999996304512,0.0024500000290572643,-0.003860000055283308,-0.5137900114059448
6604.764980471786,1287192.0,-0.02281999960541725,0.0014100000262260437,-0.003949999809265137,-0.5116400122642517
6604.765980244001,1287193.0,-0.0276699997484684,0.0024500000290572643,0.00014000000373926014,-0.5109599828720093
6604.766980016216,1287194.0,-0.031539998948574066,0.0014100000262260437,0.002409999957308173,-0.5103099942207336
6604.767979788431,1287195.0,-0.03172000125050545,0.00031999999191612005,-0.002090000081807375,-0.5056899785995483
6604.768979560647,1287196.0,-0.03215999901294708,0.003860000055283308,0.001769999973475933,-0.5081599950790405
6604.769979332862,1287197.0,-0.035670001059770584,0.006769999861717224,-0.000539999979082495,-0.5049600005149841
6604.7709791050775,1287198.0,-0.04187000170350075,0.008129999972879887,0.00031999999191612005,-0.5070599913597107
6604.771978877292,1287199.0,-0.05282999947667122,0.00014000000373926014,0.003220000071451068,-0.5066999793052673
6604.772978649507,1287200.0,-0.06279999762773514,0.0014100000262260437,-0.00014000000373926014,-0.5018500089645386
6604.773978421723,1287201.0,-0.06774000078439713,-0.00267999991774559,-0.0036299999337643385,-0.504040002822876
6604.774978193938,1287202.0,-0.06577000021934509,-0.0021800000686198473,-0.002090000081807375,-0.501800000667572
6604.775977966154,1287203.0,-0.05615000054240227,-0.005900000222027302,-4.999999873689376e-05,-0.5032200217247009
6604.776977738369,1287204.0,-0.04357999935746193,-0.00839999970048666,-0.002859999891370535,-0.5017499923706055
6604.777977510584,1287205.0,-0.02879999950528145,-0.002090000081807375,-0.0064500002190470695,-0.49772998690605164
6604.778977282799,1287206.0,-0.014820000156760216,-0.006680000107735395,0.0009500000160187483,-0.5012099742889404
6604.779977055015,1287207.0,-0.0048500001430511475,-0.0002699999895412475,0.00031999999191612005,-0.49685999751091003
6604.78097682723,1287208.0,0.0017500000540167093,-0.002589999930933118,0.0010900000343099236,-0.4983200132846832
6604.781976599445,1287209.0,0.004269999917596579,0.0024999999441206455,-0.0033199999015778303,-0.4985499978065491
6604.78297637166,1287210.0,0.004540000110864639,0.0024999999441206455,0.0008200000156648457,-0.49351999163627625
6604.783976143875,1287211.0,0.003370000049471855,0.0012700000079348683,-0.0016799999866634607,-0.49658000469207764
6604.784975916091,1287212.0,0.0020699999295175076,0.004540000110864639,-0.0027199999894946814,-0.49309998750686646
6604.785975688306,1287213.0,0.003590000094845891,-9.000000136438757e-05,-0.0015399999683722854,-0.4954400062561035
6604.786975460522,1287214.0,0.007910000160336494,0.00031999999191612005,0.0052200001664459705,-0.491129994392395
6604.787975232737,1287215.0,0.013969999738037586,0.00031999999191612005,0.005040000192821026,-0.4912700057029724
6604.788975004952,1287216.0,0.015449999831616879,0.002409999957308173,0.0031799999997019768,-0.4907200038433075
6604.789974777167,1287217.0,0.009519999846816063,0.0031300000846385956,0.003220000071451068,-0.48728999495506287
6604.790974549383,1287218.0,-0.0004900000058114529,0.006490000057965517,-0.0035000001080334187,-0.4887999892234802
6604.791974321598,1287219.0,-0.01351999957114458,0.001500000013038516,-0.000859999970998615,-0.48600998520851135
6604.792974093813,1287220.0,-0.024800000712275505,0.0016799999866634607,0.004000000189989805,-0.48715001344680786
6604.793973866028,1287221.0,-0.03229999914765358,-0.0019499999471008778,0.0017300000181421638,-0.48357999324798584
6604.794973638243,1287222.0,-0.03458999842405319,-0.0011399999493733048,0.0010400000028312206,-0.48618999123573303
6604.795973410459,1287223.0,-0.03162999823689461,-0.011490000411868095,-0.0019499999471008778,-0.48212000727653503
6604.796973182674,1287224.0,-0.02363000065088272,-0.006310000084340572,-0.0010400000028312206,-0.4850899875164032
6604.79797295489,1287225.0,-0.012439999729394913,-0.006680000107735395,-0.0021800000686198473,-0.48412999510765076
6604.798972727105,1287226.0,0.0013000000035390258,-0.0022299999836832285,0.00031999999191612005,-0.47964000701904297
6604.79997249932,1287227.0,0.011769999749958515,-0.0034099998883903027,-0.0002699999895412475,-0.48197999596595764
6604.800972271535,1287228.0,0.017340000718832016,0.002630000002682209,0.004000000189989805,-0.47822999954223633
6604.8019720437505,1287229.0,0.018060000613331795,0.0010400000028312206,0.0015899999998509884,-0.47878000140190125
6604.802971815966,1287230.0,0.016440000385046005,0.001769999973475933,-0.0024999999441206455,-0.4787299931049347
6604.803971588181,1287231.0,0.014109999872744083,0.003220000071451068,-0.0036800000816583633,-0.47475001215934753
6604.804971360396,1287232.0,0.010599999688565731,0.003449999960139394,-0.0010900000343099236,-0.47721999883651733
6604.805971132611,1287233.0,0.007280000019818544,0.003000000026077032,0.003590000094845891,-0.4756599962711334
6604.806970904827,1287234.0,0.005570000037550926,-0.004769999999552965,-0.0016299999551847577,-0.4749299883842468
6604.807970677042,1287235.0,0.006020000204443932,-0.002589999930933118,-0.001230000052601099,-0.47475001215934753
6604.808970449258,1287236.0,0.0030499999411404133,0.0029100000392645597,-0.0051299999468028545,-0.4704900085926056
6604.809970221472,1287237.0,-0.005210000090301037,0.006130000110715628,0.001180000021122396,-0.4723699986934662
6604.810969993688,1287238.0,-0.01607999950647354,0.003220000071451068,0.003000000026077032,-0.4726000130176544
6604.811969765903,1287239.0,-0.026100000366568565,0.0014100000262260437,0.00031999999191612005,-0.46779000759124756
6604.8129695381185,1287240.0,-0.03305999934673309,0.006949999835342169,-0.00494999997317791,-0.47012001276016235
6604.813969310334,1287241.0,-0.03440999984741211,-0.0010400000028312206,-0.003949999809265137,-0.4690200090408325
6604.814969082549,1287242.0,-0.03162999823689461,0.0015899999998509884,-0.006899999920278788,-0.46696001291275024
6604.815968854764,1287243.0,-0.022690000012516975,-0.005489999894052744,-0.004900000058114529,-0.4667400121688843
6604.816968626979,1287244.0,-0.012040000408887863,-0.004410000052303076,0.0024999999441206455,-0.4624300003051758
6604.817968399195,1287245.0,0.0013899999903514981,-0.0072200000286102295,0.0021299999207258224,-0.46549999713897705
6604.81896817141,1287246.0,0.0142000000923872,-0.002859999891370535,0.0008200000156648457,-0.4645799994468689
6604.819967943626,1287247.0,0.022059999406337738,-0.0010400000028312206,0.00031999999191612005,-0.4597800076007843
6604.82096771584,1287248.0,0.023900000378489494,0.0002300000051036477,0.005900000222027302,-0.4619300067424774
6604.821967488056,1287249.0,0.02281999960541725,0.0030400000978261232,0.009039999917149544,-0.4620699882507324
6604.822967260271,1287250.0,0.021789999678730965,-0.0007699999841861427,0.0072200000286102295,-0.4573099911212921
6604.8239670324865,1287251.0,0.018060000613331795,0.004809999838471413,0.0031300000846385956,-0.4580399990081787
6604.824966804702,1287252.0,0.012760000303387642,0.0010000000474974513,0.0024500000290572643,-0.4580399990081787
6604.8259665769165,1287253.0,0.009429999627172947,0.004129999782890081,0.0045900000259280205,-0.45497000217437744
6604.826966349132,1287254.0,0.008630000054836273,-0.00418000016361475,-0.0002300000051036477,-0.45552000403404236
6604.827966121347,1287255.0,0.00773000018671155,-0.0007699999841861427,-0.00494999997317791,-0.4515799880027771
6604.828965893563,1287256.0,0.0031900000758469105,0.005859999917447567,-0.005489999894052744,-0.4552899897098541
6604.829965665778,1287257.0,-0.009519999846816063,0.003449999960139394,0.001449999981559813,-0.45451000332832336
6604.830965437994,1287258.0,-0.025019999593496323,0.004999999888241291,-0.0031300000846385956,-0.44971001148223877
6604.831965210208,1287259.0,-0.03925999999046326,0.0010900000343099236,-0.00044999999227002263,-0.4506700038909912
6604.832964982424,1287260.0,-0.04774999991059303,0.0015899999998509884,-0.005489999894052744,-0.4473299980163574
6604.833964754639,1287261.0,-0.051569998264312744,0.0030400000978261232,-0.00267999991774559,-0.45058000087738037
6604.8349645268545,1287262.0,-0.05144000053405762,-0.005630000028759241,-0.0011399999493733048,-0.4488399922847748
6604.83596429907,1287263.0,-0.04636000096797943,-0.002589999930933118,-0.0006799999973736703,-0.445360004901886
6604.8369640712845,1287264.0,-0.03584999963641167,-0.0022299999836832285,-0.002589999930933118,-0.44567999243736267
6604.8379638435,1287265.0,-0.025469999760389328,-0.0072200000286102295,-0.0006399999838322401,-0.4422000050544739
6604.838963615715,1287266.0,-0.013659999705851078,-0.006630000192672014,0.003220000071451068,-0.4451799988746643
6604.839963387931,1287267.0,-0.0024300001095980406,-0.002589999930933118,-0.000590000010561198,-0.44370999932289124
6604.840963160146,1287268.0,0.004129999782890081,0.0014100000262260437,-0.007079999893903732,-0.44211000204086304
6604.841962932362,1287269.0,0.00646999990567565,0.0024500000290572643,0.00031999999191612005,-0.4408699870109558
6604.842962704576,1287270.0,0.0069599999114871025,0.00018000000272877514,0.00494999997317791,-0.43790000677108765
6604.843962476792,1287271.0,0.006020000204443932,-0.0007300000288523734,0.0021299999207258224,-0.43922001123428345
6604.844962249007,1287272.0,0.0052999998442828655,0.002090000081807375,-0.0010900000343099236,-0.43560999631881714
6604.8459620212225,1287273.0,0.004490000195801258,0.002409999957308173,0.0022700000554323196,-0.4381699860095978
6604.846961793438,1287274.0,0.003590000094845891,0.001230000052601099,0.0027199999894946814,-0.4355199933052063
6604.847961565652,1287275.0,9.000000136438757e-05,0.0024999999441206455,0.0024500000290572643,-0.43373000621795654
6604.848961337868,1287276.0,-0.00646999990567565,0.001500000013038516,0.00031999999191612005,-0.43428000807762146
6604.849961110083,1287277.0,-0.015990000218153,0.009949999861419201,0.0007699999841861427,-0.4307999908924103
6604.850960882299,1287278.0,-0.026410000398755074,0.0029100000392645597,0.004679999779909849,-0.43327000737190247
6604.851960654514,1287279.0,-0.03799999877810478,0.00749000022187829,0.00031999999191612005,-0.4318099915981293
6604.85296042673,1287280.0,-0.04569000005722046,-9.000000136438757e-05,-0.0033199999015778303,-0.43007001280784607
6604.853960198944,1287281.0,-0.0451899990439415,-0.0018599999602884054,-0.004769999999552965,-0.4294300079345703
6604.85495997116,1287282.0,-0.03976000100374222,-0.0009500000160187483,-0.001449999981559813,-0.4264099895954132
6604.855959743375,1287283.0,-0.030640000477433205,-0.008080000057816505,-0.0037700000684708357,-0.4292899966239929
6604.8569595155905,1287284.0,-0.0185100007802248,-0.00494999997317791,-0.007309999782592058,-0.4274100065231323
6604.857959287806,1287285.0,-0.0034099998883903027,-0.005679999943822622,-0.004410000052303076,-0.42447999119758606
6604.85895906002,1287286.0,0.011680000461637974,-0.0003600000054575503,0.0022700000554323196,-0.42480000853538513
6604.859958832236,1287287.0,0.024979999288916588,-0.00044999999227002263,-0.000859999970998615,-0.4216899871826172
6604.860958604451,1287288.0,0.03302000090479851,0.00018000000272877514,0.00031999999191612005,-0.4247100055217743
6604.861958376667,1287289.0,0.03531000018119812,0.002409999957308173,-9.000000136438757e-05,-0.42173999547958374
6604.862958148882,1287290.0,0.033330000936985016,-0.003000000026077032,0.0027699999045580626,-0.421099990606308
6604.863957921098,1287291.0,0.030640000477433205,0.0010000000474974513,0.002630000002682209,-0.4215500056743622
6604.864957693312,1287292.0,0.025110000744462013,0.005270000081509352,0.0,-0.4184400141239166
6604.865957465528,1287293.0,0.020479999482631683,-0.00014000000373926014,0.003809999907389283,-0.41898998618125916
6604.866957237743,1287294.0,0.019859999418258667,0.00031999999191612005,0.00018000000272877514,-0.4153299927711487
6604.867957009958,1287295.0,0.02111000008881092,0.0045900000259280205,9.000000136438757e-05,-0.4158799946308136
6604.868956782174,1287296.0,0.017559999600052834,-0.0015899999998509884,-4.999999873689376e-05,-0.41304001212120056
6604.869956554388,1287297.0,0.009519999846816063,0.003809999907389283,0.006949999835342169,-0.4156999886035919
6604.870956326604,1287298.0,0.0008099999977275729,0.006810000166296959,-0.00014000000373926014,-0.41244998574256897
6604.871956098819,1287299.0,-0.007819999940693378,0.004310000222176313,-0.0037700000684708357,-0.41249001026153564
6604.872955871035,1287300.0,-0.014150000177323818,-0.0006399999838322401,-0.0025400000158697367,-0.4109799861907959
6604.87395564325,1287301.0,-0.014550000429153442,0.00018000000272877514,-0.0002300000051036477,-0.40841999650001526
6604.874955415465,1287302.0,-0.00925000011920929,-0.0044999998062849045,-0.00203999993391335,-0.40887001156806946
6604.87595518768,1287303.0,0.0013899999903514981,-0.006039999891072512,-0.004129999782890081,-0.40599000453948975
6604.876954959896,1287304.0,0.01568000018596649,-0.0072200000286102295,0.0036800000816583633,-0.4069100022315979
6604.877954732111,1287305.0,0.03037000074982643,-0.009580000303685665,0.0019099999917671084,-0.40365999937057495
6604.878954504326,1287306.0,0.04349000006914139,-0.003539999946951866,-0.0017300000181421638,-0.40654000639915466
6604.879954276542,1287307.0,0.05282999947667122,-0.0033199999015778303,0.003220000071451068,-0.40365999937057495
6604.880954048756,1287308.0,0.05705000087618828,-0.0007699999841861427,0.003719999920576811,-0.40323999524116516
6604.881953820972,1287309.0,0.056689999997615814,0.005040000192821026,0.002409999957308173,-0.40163999795913696
6604.882953593187,1287310.0,0.0530100017786026,0.0013200000394135714,0.00031999999191612005,-0.39902999997138977
6604.883953365403,1287311.0,0.051569998264312744,-0.00041000000783242285,9.000000136438757e-05,-0.40062999725341797
6604.884953137618,1287312.0,0.05048999935388565,0.0019099999917671084,0.00031999999191612005,-0.3995800018310547
6604.885952909833,1287313.0,0.04797999933362007,0.004679999779909849,-0.00044999999227002263,-0.39719998836517334
6604.886952682048,1287314.0,0.044920001178979874,0.004679999779909849,-0.0033199999015778303,-0.39656001329421997
6604.8879524542635,1287315.0,0.04428999871015549,0.0014100000262260437,-0.0011399999493733048,-0.39412999153137207
6604.888952226479,1287316.0,0.04303999990224838,0.004679999779909849,0.001230000052601099,-0.39441001415252686
6604.889951998694,1287317.0,0.03612000122666359,0.007809999864548445,-0.001230000052601099,-0.3912999927997589
6604.890951770909,1287318.0,0.024480000138282776,0.00749000022187829,-0.004129999782890081,-0.3932200074195862
6604.891951543124,1287319.0,0.011230000294744968,0.006630000192672014,-0.0011399999493733048,-0.39138999581336975
6604.89295131534,1287320.0,0.004579999949783087,0.001769999973475933,-0.0029100000392645597,-0.38982999324798584
6604.893951087555,1287321.0,0.004490000195801258,-0.00041000000783242285,-0.002589999930933118,-0.3890500068664551
6604.894950859771,1287322.0,0.008799999952316284,0.0013200000394135714,-0.000910000002477318,-0.38576000928878784
6604.895950631986,1287323.0,0.016939999535679817,-0.0033199999015778303,0.0010400000028312206,-0.38822999596595764
6604.896950404201,1287324.0,0.028389999642968178,-0.0076299998909235,0.001449999981559813,-0.385670006275177
6604.897950176416,1287325.0,0.04052000120282173,-0.005489999894052744,0.00031999999191612005,-0.3829199969768524
6604.8989499486315,1287326.0,0.052650000900030136,-0.005859999917447567,-0.004629999864846468,-0.38245999813079834
6604.899949720847,1287327.0,0.0616299994289875,0.00031999999191612005,-0.002589999930933118,-0.3835099935531616
6604.900949493062,1287328.0,0.0670199990272522,0.00031999999191612005,0.0013200000394135714,-0.38086000084877014
6604.901949265277,1287329.0,0.06827999651432037,0.00031999999191612005,0.003949999809265137,-0.3781599998474121
6604.902949037492,1287330.0,0.06697999686002731,0.005040000192821026,0.00795000046491623,-0.38054001331329346
6604.903948809708,1287331.0,0.06612999737262726,0.003220000071451068,0.006630000192672014,-0.37770000100135803
6604.904948581923,1287332.0,0.06477999687194824,0.003860000055283308,0.006810000166296959,-0.3742699921131134
6604.905948354139,1287333.0,0.06235000118613243,0.004679999779909849,0.004629999864846468,-0.3761399984359741
6604.906948126354,1287334.0,0.06199000030755997,0.001230000052601099,0.002090000081807375,-0.37229999899864197
6604.907947898569,1287335.0,0.06324999779462814,-4.999999873689376e-05,0.006490000057965517,-0.3746800124645233
6604.908947670784,1287336.0,0.05993000045418739,0.003949999809265137,0.005630000028759241,-0.3716599941253662
6604.9099474429995,1287337.0,0.052069999277591705,0.007040000054985285,-0.0033599999733269215,-0.37174999713897705
6604.910947215215,1287338.0,0.04042999818921089,0.002859999891370535,0.001180000021122396,-0.3696900010108948
6604.91194698743,1287339.0,0.02776000089943409,0.004040000028908253,-0.007309999782592058,-0.3680900037288666
6604.912946759645,1287340.0,0.019050000235438347,-0.001230000052601099,-0.004220000002533197,-0.3678100109100342
6604.91394653186,1287341.0,0.01384000014513731,-0.0017300000181421638,-0.007449999917298555,-0.36597999930381775
6604.914946304076,1287342.0,0.011719999834895134,-0.004310000222176313,-0.00494999997317791,-0.3634200096130371
6604.915946076291,1287343.0,0.01689000055193901,-0.00203999993391335,-0.002319999970495701,-0.3652999997138977
6604.916945848507,1287344.0,0.028620000928640366,-0.0031300000846385956,-0.000859999970998615,-0.3616800010204315
6604.917945620722,1287345.0,0.04222999885678291,-0.005489999894052744,-0.0002699999895412475,-0.36204999685287476
6604.918945392937,1287346.0,0.05431000143289566,-0.009220000356435776,0.00031999999191612005,-0.3601199984550476
6604.919945165152,1287347.0,0.06357000023126602,-0.0033599999733269215,0.00267999991774559,-0.35802000761032104
6604.9209449373675,1287348.0,0.0666700005531311,-0.0021800000686198473,0.001769999973475933,-0.3576500117778778
6604.921944709583,1287349.0,0.06577000021934509,0.00031999999191612005,0.00018000000272877514,-0.35526999831199646
6604.922944481798,1287350.0,0.06351999938488007,0.002319999970495701,0.001180000021122396,-0.35627999901771545
6604.923944254013,1287351.0,0.05785999819636345,0.00031999999191612005,-0.00014000000373926014,-0.35280001163482666
6604.924944026228,1287352.0,0.050939999520778656,0.0017300000181421638,-0.0005000000237487257,-0.3543500006198883
6604.925943798444,1287353.0,0.047529999166727066,0.0014100000262260437,0.0028200000524520874,-0.3501400053501129
6604.926943570659,1287354.0,0.04690000042319298,-0.0021800000686198473,-0.000539999979082495,-0.3503299951553345
6604.927943342875,1287355.0,0.04761999845504761,-4.999999873689376e-05,-0.00031999999191612005,-0.34909000992774963
6604.92894311509,1287356.0,0.04473999887704849,0.00031999999191612005,0.0022700000554323196,-0.3475799858570099
6604.929942887305,1287357.0,0.03522000089287758,0.0031799999997019768,0.002859999891370535,-0.3479500114917755
6604.93094265952,1287358.0,0.02273000031709671,0.004769999999552965,-0.000910000002477318,-0.34373000264167786
6604.9319424317355,1287359.0,0.010870000347495079,0.004129999782890081,-0.003860000055283308,-0.3448300063610077
6604.932942203951,1287360.0,0.005030000116676092,0.006089999806135893,-0.0019499999471008778,-0.34154000878334045
6604.933941976166,1287361.0,0.0013899999903514981,0.002859999891370535,-0.0002699999895412475,-0.3428199887275696
6604.934941748381,1287362.0,0.0004900000058114529,-0.0028200000524520874,0.00571999978274107,-0.34011998772621155
6604.935941520596,1287363.0,0.007009999826550484,-0.00494999997317791,0.001230000052601099,-0.3401600122451782
6604.936941292812,1287364.0,0.018330000340938568,-0.000539999979082495,-0.003000000026077032,-0.3365499973297119
6604.937941065027,1287365.0,0.02947000041604042,-0.002589999930933118,-0.0021800000686198473,-0.3365899920463562
6604.938940837243,1287366.0,0.04024999961256981,0.0002300000051036477,9.000000136438757e-05,-0.3336600065231323
6604.939940609457,1287367.0,0.050039999186992645,-0.0009500000160187483,0.0017300000181421638,-0.3336600065231323
6604.940940381673,1287368.0,0.056379999965429306,0.0013599999947473407,0.00031999999191612005,-0.33316001296043396
6604.941940153888,1287369.0,0.05925000086426735,0.0044999998062849045,-0.0009500000160187483,-0.328900009393692
6604.9429399261035,1287370.0,0.05916000157594681,0.003949999809265137,-0.0002300000051036477,-0.329039990901947
6604.943939698319,1287371.0,0.055879998952150345,0.004449999891221523,0.001180000021122396,-0.32853999733924866
6604.944939470534,1287372.0,0.05031000077724457,0.005179999861866236,0.00031999999191612005,-0.32611000537872314
6604.945939242749,1287373.0,0.04456000030040741,0.0036299999337643385,-0.00044999999227002263,-0.32596999406814575
6604.946939014964,1287374.0,0.03953000158071518,0.0031300000846385956,9.000000136438757e-05,-0.3221299946308136
6604.94793878718,1287375.0,0.03579999879002571,0.0034099998883903027,0.0015399999683722854,-0.32175999879837036
6604.948938559395,1287376.0,0.03109000064432621,0.004860000219196081,-0.0002300000051036477,-0.3196600079536438
6604.949938331611,1287377.0,0.022460000589489937,0.008220000192523003,-0.001180000021122396,-0.31874001026153564
6604.950938103825,1287378.0,0.011590000241994858,0.0051299999468028545,-0.0010400000028312206,-0.31700000166893005
6604.951937876041,1287379.0,-0.0014400000218302011,0.00031999999191612005,0.0012700000079348683,-0.3160899877548218
6604.952937648256,1287380.0,-0.00839999970048666,9.000000136438757e-05,0.003000000026077032,-0.31470999121665955
6604.953937420471,1287381.0,-0.00875999964773655,-0.0019499999471008778,-0.004220000002533197,-0.31279000639915466
6604.954937192687,1287382.0,-0.007319999858736992,-0.005270000081509352,-0.005309999920427799,-0.3124200105667114
6604.955936964901,1287383.0,-0.004579999949783087,-0.004040000028908253,-0.005590000189840794,-0.3085300028324127
6604.956936737117,1287384.0,-0.0007600000244565308,-0.0037700000684708357,0.0037700000684708357,-0.30816999077796936
6604.957936509332,1287385.0,0.007550000213086605,-0.00494999997317791,0.0029100000392645597,-0.30687999725341797
6604.958936281548,1287386.0,0.01841999962925911,-0.006130000110715628,0.0019499999471008778,-0.3062399923801422
6604.959936053763,1287387.0,0.029740000143647194,-0.0028200000524520874,-0.003449999960139394,-0.30395999550819397
6604.960935825979,1287388.0,0.034049998968839645,0.0008200000156648457,-0.006949999835342169,-0.30254000425338745
6604.961935598193,1287389.0,0.030950000509619713,-0.0030400000978261232,-0.0019499999471008778,-0.3004299998283386
6604.962935370409,1287390.0,0.02622999995946884,0.0030400000978261232,0.004220000002533197,-0.29910001158714294
6604.963935142624,1287391.0,0.024080000817775726,0.0037700000684708357,0.00031999999191612005,-0.29708999395370483
6604.964934914839,1287392.0,0.024620000272989273,0.003860000055283308,0.003220000071451068,-0.29576000571250916
6604.965934687055,1287393.0,0.026499999687075615,0.004220000002533197,-0.0013200000394135714,-0.29328998923301697
6604.966934459269,1287394.0,0.028119999915361404,0.0019499999471008778,-0.004360000137239695,-0.2932400107383728
6604.967934231485,1287395.0,0.027089999988675117,0.0017300000181421638,-0.0034099998883903027,-0.29058998823165894
6604.9689340037,1287396.0,0.022280000150203705,0.0015399999683722854,-0.002589999930933118,-0.29041001200675964
6604.969933775916,1287397.0,0.014510000124573708,0.005590000189840794,-0.00031999999191612005,-0.2887600064277649
6604.970933548131,1287398.0,0.006380000151693821,0.006130000110715628,0.0007699999841861427,-0.28683000802993774
6604.971933320347,1287399.0,-0.0023399998899549246,0.003949999809265137,0.00267999991774559,-0.28523001074790955
6604.972933092561,1287400.0,-0.006289999932050705,0.003909999970346689,0.0016799999866634607,-0.2836799919605255
6604.9739328647765,1287401.0,-0.005659999791532755,0.000859999970998615,0.003449999960139394,-0.28220999240875244
6604.974932636992,1287402.0,-0.0007200000109151006,-0.002090000081807375,0.0002300000051036477,-0.28033000230789185
6604.975932409207,1287403.0,0.007819999940693378,-0.0051299999468028545,0.00031999999191612005,-0.27959999442100525
6604.976932181423,1287404.0,0.017920000478625298,-0.00839999970048666,-0.0002300000051036477,-0.27731001377105713
6604.977931953637,1287405.0,0.024800000712275505,-0.0063599999994039536,-0.002090000081807375,-0.27643999457359314
6604.978931725853,1287406.0,0.030549999326467514,-0.004900000058114529,-9.000000136438757e-05,-0.27425000071525574
6604.979931498068,1287407.0,0.03844999894499779,-0.0014100000262260437,-4.999999873689376e-05,-0.2746100127696991
6604.980931270284,1287408.0,0.04627000167965889,0.00031999999191612005,-0.00014000000373926014,-0.2723200023174286
6604.981931042499,1287409.0,0.05480999872088432,-0.000590000010561198,-0.0021299999207258224,-0.2711299955844879
6604.982930814715,1287410.0,0.05894000083208084,0.003220000071451068,-0.004449999891221523,-0.2700299918651581
6604.983930586929,1287411.0,0.060109999030828476,0.0010400000028312206,-0.0028200000524520874,-0.2680700123310089
6604.9849303591445,1287412.0,0.06136000156402588,-0.0010000000474974513,-0.0010400000028312206,-0.266510009765625
6604.98593013136,1287413.0,0.061900001019239426,0.002409999957308173,0.001449999981559813,-0.26482000946998596
6604.986929903575,1287414.0,0.06294000148773193,0.0029100000392645597,0.0014100000262260437,-0.26381000876426697
6604.987929675791,1287415.0,0.060830000787973404,0.00018000000272877514,0.0022299999836832285,-0.261570006608963
6604.988929448005,1287416.0,0.04958999902009964,0.005590000189840794,0.0021299999207258224,-0.26151999831199646
6604.989929220221,1287417.0,0.032519999891519547,0.004860000219196081,-0.001820000004954636,-0.25951001048088074
6604.990928992436,1287418.0,0.014820000156760216,0.008270000107586384,-0.004999999888241291,-0.2585900127887726
6604.991928764652,1287419.0,-0.0008500000112690032,0.00267999991774559,0.001769999973475933,-0.25606998801231384
6604.992928536867,1287420.0,-0.00773000018671155,-0.0007300000288523734,0.0024999999441206455,-0.2554300129413605
6604.993928309083,1287421.0,-0.009610000066459179,-0.002589999930933118,0.003949999809265137,-0.25356000661849976
6604.994928081297,1287422.0,-0.005880000069737434,-0.0062699997797608376,0.001230000052601099,-0.25268998742103577
6604.9959278535125,1287423.0,0.0048500001430511475,-0.008899999782443047,-0.003860000055283308,-0.25113001465797424
6604.996927625728,1287424.0,0.018689999356865883,-0.007860000245273113,0.003000000026077032,-0.2500799894332886
6604.997927397943,1287425.0,0.03172000125050545,-0.0071299998089671135,0.004000000189989805,-0.2493000030517578
6604.998927170159,1287426.0,0.0422700010240078,-0.0064500002190470695,0.00031999999191612005,-0.24732999503612518
6604.999926942373,1287427.0,0.051169998943805695,-0.002589999930933118,-0.0020000000949949026,-0.2462799996137619
6605.000926714589,1287428.0,0.056689999997615814,-0.0028200000524520874,0.0002699999895412475,-0.24435000121593475
6605.001926486804,1287429.0,0.05660000070929527,-0.0022299999836832285,0.00031999999191612005,-0.24330000579357147
6605.00292625902,1287430.0,0.05556999891996384,-0.0012700000079348683,-0.0029100000392645597,-0.24174000322818756
6605.003926031235,1287431.0,0.05372999981045723,0.0002300000051036477,-0.004900000058114529,-0.24077999591827393
6605.0049258034505,1287432.0,0.050360001623630524,0.001230000052601099,-0.005859999917447567,-0.23923000693321228
6605.005925575665,1287433.0,0.04887999966740608,0.00031999999191612005,-0.005489999894052744,-0.23794999718666077
6605.0069253478805,1287434.0,0.048920001834630966,0.0020000000949949026,0.0017300000181421638,-0.23615999519824982
6605.007925120096,1287435.0,0.048739999532699585,0.0030400000978261232,-0.0022700000554323196,-0.23543000221252441
6605.008924892311,1287436.0,0.04383999854326248,0.00494999997317791,-0.004410000052303076,-0.23405000567436218
6605.009924664527,1287437.0,0.032430000603199005,0.006719999946653843,0.00014000000373926014,-0.23263999819755554
6605.010924436741,1287438.0,0.018869999796152115,0.00686000008136034,0.0027699999045580626,-0.2308499962091446
6605.011924208957,1287439.0,0.006870000157505274,0.006680000107735395,0.00031999999191612005,-0.23003000020980835
6605.012923981172,1287440.0,-0.00107999995816499,0.001230000052601099,-0.002589999930933118,-0.2283799946308136
6605.013923753388,1287441.0,-0.002959999954327941,-0.0015399999683722854,-0.007449999917298555,-0.2273699939250946
6605.014923525603,1287442.0,0.0009899999713525176,-0.0062699997797608376,-0.007860000245273113,-0.2258100062608719
6605.015923297818,1287443.0,0.009159999899566174,-0.006039999891072512,-0.004410000052303076,-0.22443999350070953
6605.016923070033,1287444.0,0.019990000873804092,-0.00913000013679266,-0.002409999957308173,-0.2232999950647354
6605.0179228422485,1287445.0,0.0321200005710125,-0.0044999998062849045,-0.0022299999836832285,-0.22179000079631805
6605.018922614464,1287446.0,0.04236000031232834,-0.004999999888241291,0.00203999993391335,-0.22036999464035034
6605.019922386679,1287447.0,0.04879000037908554,-0.0037700000684708357,0.0022700000554323196,-0.21881000697612762
6605.020922158894,1287448.0,0.05138999968767166,-0.0007699999841861427,0.0017300000181421638,-0.21794000267982483
6605.021921931109,1287449.0,0.052560001611709595,0.0016799999866634607,0.003220000071451068,-0.21651999652385712
6605.022921703325,1287450.0,0.05012999847531319,0.001769999973475933,0.01030999980866909,-0.21505999565124512
6605.02392147554,1287451.0,0.046810001134872437,0.0013200000394135714,0.001180000021122396,-0.21355000138282776
6605.024921247756,1287452.0,0.043800000101327896,0.0014100000262260437,0.0006799999973736703,-0.2122199982404709
6605.025921019971,1287453.0,0.04258999973535538,0.00031999999191612005,-0.0018599999602884054,-0.21152999997138977
6605.026920792186,1287454.0,0.04182000085711479,-0.0015899999998509884,-0.002950000111013651,-0.2100200057029724
6605.027920564401,1287455.0,0.04033999890089035,0.00031999999191612005,-0.002090000081807375,-0.20919999480247498
6605.0289203366165,1287456.0,0.03570999950170517,0.003719999920576811,-0.0027699999045580626,-0.20749999582767487
6605.029920108832,1287457.0,0.027310000732541084,0.0030900000128895044,-0.004040000028908253,-0.20654000341892242
6605.030919881047,1287458.0,0.016529999673366547,0.0031799999997019768,-0.0002300000051036477,-0.2048500031232834
6605.031919653262,1287459.0,0.0052999998442828655,0.00203999993391335,-0.0009500000160187483,-0.20356999337673187
6605.032919425477,1287460.0,-0.0027000000700354576,0.00031999999191612005,-0.001500000013038516,-0.2029699981212616
6605.033919197693,1287461.0,-0.005570000037550926,-0.001230000052601099,-0.00571999978274107,-0.20087000727653503
6605.034918969908,1287462.0,-0.004490000195801258,-0.005179999861866236,-0.004860000219196081,-0.20026999711990356
6605.035918742124,1287463.0,0.0017099999822676182,-0.006579999811947346,-0.0059899999760091305,-0.19798000156879425
6605.036918514339,1287464.0,0.010289999656379223,-0.0019499999471008778,-0.004679999779909849,-0.19742999970912933
6605.037918286554,1287465.0,0.017829999327659607,-0.005090000107884407,-0.002360000042244792,-0.19583000242710114
6605.038918058769,1287466.0,0.023760000243782997,-0.00418000016361475,-0.004220000002533197,-0.19509999454021454
6605.039917830984,1287467.0,0.028209999203681946,-0.001500000013038516,0.005679999943822622,-0.19267000257968903
6605.0409176032,1287468.0,0.03162999823689461,0.00031999999191612005,0.003220000071451068,-0.19185000658035278
6605.041917375415,1287469.0,0.033149998635053635,-0.0006399999838322401,0.0030400000978261232,-0.1905200034379959
6605.04291714763,1287470.0,0.03449999913573265,0.0013200000394135714,-0.004129999782890081,-0.18941999971866608
6605.043916919845,1287471.0,0.03598000109195709,0.003220000071451068,0.005630000028759241,-0.18772999942302704
6605.044916692061,1287472.0,0.03593999892473221,-0.0006799999973736703,0.003719999920576811,-0.18717999756336212
6605.045916464276,1287473.0,0.03432000055909157,-0.0022299999836832285,0.003220000071451068,-0.18479999899864197
6605.046916236492,1287474.0,0.032930001616477966,0.00031999999191612005,-0.00494999997317791,-0.1850699931383133
6605.047916008707,1287475.0,0.03198999911546707,-0.001180000021122396,-0.0037700000684708357,-0.18213999271392822
6605.048915780922,1287476.0,0.02655000053346157,0.00031999999191612005,0.002859999891370535,-0.1820099949836731
6605.049915553137,1287477.0,0.01689000055193901,-0.0002699999895412475,0.004679999779909849,-0.17990000545978546
6605.050915325352,1287478.0,0.003590000094845891,-0.00041000000783242285,0.000859999970998615,-0.17893999814987183
6605.051915097568,1287479.0,-0.012760000303387642,0.0014100000262260437,-0.0019499999471008778,-0.17737999558448792
6605.052914869783,1287480.0,-0.022369999438524246,-0.002589999930933118,-0.0007300000288523734,-0.1766500025987625
6605.053914641998,1287481.0,-0.023989999666810036,-0.0018599999602884054,-0.0076299998909235,-0.17577999830245972
6605.054914414213,1287482.0,-0.01909000054001808,-0.003539999946951866,-0.005489999894052744,-0.17399999499320984
6605.055914186429,1287483.0,-0.011549999937415123,-0.004220000002533197,0.00018000000272877514,-0.1720699965953827
6605.056913958644,1287484.0,-0.0007200000109151006,-0.005179999861866236,-0.003860000055283308,-0.17106999456882477
6605.05791373086,1287485.0,0.011140000075101852,-0.004269999917596579,-0.00044999999227002263,-0.17069999873638153
6605.058913503075,1287486.0,0.022280000150203705,-0.0007300000288523734,-0.004769999999552965,-0.1679999977350235
6605.05991327529,1287487.0,0.031849998980760574,-0.0021800000686198473,-0.002589999930933118,-0.16704000532627106
6605.060913047505,1287488.0,0.03953000158071518,0.005040000192821026,0.0029100000392645597,-0.1661199927330017
6605.06191281972,1287489.0,0.0393499992787838,0.0037700000684708357,0.004040000028908253,-0.16314999759197235
6605.062912591936,1287490.0,0.03423000127077103,0.0021299999207258224,0.0010400000028312206,-0.163100004196167
6605.063912364151,1287491.0,0.02857000008225441,0.0036800000816583633,0.0022299999836832285,-0.16190999746322632
6605.064912136366,1287492.0,0.02606000006198883,0.005539999809116125,0.0035000001080334187,-0.15939000248908997
6605.065911908581,1287493.0,0.02622999995946884,0.003220000071451068,0.00872000027447939,-0.15897999703884125
6605.066911680797,1287494.0,0.023229999467730522,0.0017300000181421638,0.0045900000259280205,-0.1574700027704239
6605.067911453012,1287495.0,0.02022000029683113,-0.0024500000290572643,0.006089999806135893,-0.15494999289512634
6605.068911225228,1287496.0,0.014469999819993973,0.00031999999191612005,0.0031799999997019768,-0.15509000420570374
6605.069910997443,1287497.0,0.004540000110864639,0.0031799999997019768,-0.004999999888241291,-0.15458999574184418
6605.0709107696575,1287498.0,-0.005119999870657921,0.003909999970346689,-0.005489999894052744,-0.1516599953174591
6605.071910541873,1287499.0,-0.014419999904930592,0.0037700000684708357,0.0015899999998509884,-0.1499200016260147
6605.072910314088,1287500.0,-0.021199999377131462,0.0016299999551847577,-0.00044999999227002263,-0.15018999576568604
6605.073910086304,1287501.0,-0.022779999300837517,-0.001449999981559813,-0.0044999998062849045,-0.1491899937391281
6605.074909858519,1287502.0,-0.018869999796152115,-0.001820000004954636,-0.002589999930933118,-0.14539000391960144
6605.075909630734,1287503.0,-0.008630000054836273,-0.0027699999045580626,-0.006990000139921904,-0.14616000652313232
6605.076909402949,1287504.0,0.003949999809265137,-0.0022299999836832285,-0.0064500002190470695,-0.1441500037908554
6605.077909175165,1287505.0,0.015990000218153,-0.004720000084489584,-0.002360000042244792,-0.14249999821186066
6605.07890894738,1287506.0,0.028349999338388443,-0.003909999970346689,-4.999999873689376e-05,-0.14226999878883362
6605.079908719596,1287507.0,0.03692999854683876,0.00031999999191612005,-0.0007699999841861427,-0.1391099989414215
6605.08090849181,1287508.0,0.04205000028014183,-4.999999873689376e-05,0.0012700000079348683,-0.13956999778747559
6605.0819082640255,1287509.0,0.04276999831199646,0.004129999782890081,0.005090000107884407,-0.13617999851703644
6605.082908036241,1287510.0,0.04033999890089035,0.006990000139921904,-0.00014000000373926014,-0.1375100016593933
6605.083907808456,1287511.0,0.03463999927043915,0.004220000002533197,0.0013200000394135714,-0.13298000395298004
6605.084907580672,1287512.0,0.03037000074982643,0.001769999973475933,0.006490000057965517,-0.13370999693870544
6605.085907352886,1287513.0,0.025699999183416367,0.003949999809265137,0.0033599999733269215,-0.13152000308036804
6605.086907125102,1287514.0,0.021069999784231186,-4.999999873689376e-05,0.002090000081807375,-0.13032999634742737
6605.087906897317,1287515.0,0.017650000751018524,0.0002699999895412475,0.0022299999836832285,-0.1304199993610382
6605.088906669533,1287516.0,0.013749999925494194,0.0024999999441206455,0.002090000081807375,-0.12721000611782074
6605.089906441748,1287517.0,0.0053900000639259815,-4.999999873689376e-05,0.004809999838471413,-0.12758000195026398
6605.0909062139635,1287518.0,-0.005350000225007534,0.0027699999045580626,0.0027699999045580626,-0.1239200010895729
6605.091905986178,1287519.0,-0.015270000323653221,0.00031999999191612005,0.003949999809265137,-0.12369000166654587
6605.0929057583935,1287520.0,-0.021469999104738235,-0.00203999993391335,0.00018000000272877514,-0.12404999881982803
6605.093905530609,1287521.0,-0.023719999939203262,-0.0022700000554323196,-0.003539999946951866,-0.12038999795913696
6605.094905302824,1287522.0,-0.01923000067472458,-0.0018599999602884054,-0.0016299999551847577,-0.120899997651577
6605.09590507504,1287523.0,-0.008539999835193157,-0.0044999998062849045,-0.0028200000524520874,-0.12007000297307968
6605.096904847254,1287524.0,0.0024300001095980406,-0.005950000137090683,-0.006130000110715628,-0.11722999811172485
6605.09790461947,1287525.0,0.01384000014513731,-0.00494999997317791,-0.007309999782592058,-0.11838000267744064
6605.098904391685,1287526.0,0.025520000606775284,-0.00494999997317791,-0.0003600000054575503,-0.1133899986743927
6605.099904163901,1287527.0,0.03539999946951866,-0.004999999888241291,0.0011399999493733048,-0.11416999995708466
6605.100903936116,1287528.0,0.04016000032424927,0.002859999891370535,0.001769999973475933,-0.11078000068664551
6605.1019037083315,1287529.0,0.041370000690221786,0.00014000000373926014,0.00031999999191612005,-0.11292999982833862
6605.102903480546,1287530.0,0.039799999445676804,-0.004679999779909849,-0.002589999930933118,-0.10944999754428864
6605.1039032527615,1287531.0,0.037060000002384186,0.0014100000262260437,0.002409999957308173,-0.10770999640226364
6605.104903024977,1287532.0,0.03418999910354614,-0.0010000000474974513,0.0002300000051036477,-0.10875999927520752
6605.105902797192,1287533.0,0.033240001648664474,-0.00041000000783242285,-0.0010000000474974513,-0.10413999855518341
6605.106902569408,1287534.0,0.033959999680519104,-0.000859999970998615,0.00031999999191612005,-0.10628999769687653
6605.107902341622,1287535.0,0.03477000072598457,-0.0044999998062849045,0.001500000013038516,-0.10405000299215317
6605.108902113838,1287536.0,0.03099999949336052,-0.0015899999998509884,-0.003449999960139394,-0.09978999942541122
6605.109901886053,1287537.0,0.022509999573230743,0.003909999970346689,0.001230000052601099,-0.10226000100374222
6605.110901658269,1287538.0,0.009879999794065952,0.008129999972879887,0.00031999999191612005,-0.09850999712944031
6605.111901430484,1287539.0,-0.0017099999822676182,0.005400000140070915,-0.004540000110864639,-0.09804999828338623
6605.1129012026995,1287540.0,-0.008630000054836273,0.0021299999207258224,-0.0022299999836832285,-0.09928999841213226
6605.113900974914,1287541.0,-0.014109999872744083,-0.0033599999733269215,0.0021299999207258224,-0.09415999799966812
6605.1149007471295,1287542.0,-0.01549999974668026,-0.006680000107735395,0.0025400000158697367,-0.09635999798774719
6605.115900519345,1287543.0,-0.009879999794065952,-0.005859999917447567,-0.0002699999895412475,-0.09269999712705612
6605.11690029156,1287544.0,0.0007200000109151006,-0.005270000081509352,-0.0013200000394135714,-0.09064000099897385
6605.117900063776,1287545.0,0.011680000461637974,-0.001820000004954636,0.002409999957308173,-0.09168999642133713
6605.11889983599,1287546.0,0.02507000043988228,-0.0007699999841861427,0.0027199999894946814,-0.08834999799728394
6605.119899608206,1287547.0,0.039080001413822174,-0.00014000000373926014,0.003860000055283308,-0.0895799994468689
6605.120899380421,1287548.0,0.0516199991106987,0.0002699999895412475,0.002630000002682209,-0.0888499990105629
6605.121899152637,1287549.0,0.06261999905109406,0.0010900000343099236,-0.002589999930933118,-0.08354000002145767
6605.122898924852,1287550.0,0.06846000254154205,0.00494999997317791,-0.0018599999602884054,-0.08533000200986862
6605.1238986970675,1287551.0,0.0670199990272522,0.0018599999602884054,-0.0009500000160187483,-0.08463999629020691
6605.124898469282,1287552.0,0.06126999855041504,0.001500000013038516,-0.002090000081807375,-0.08139000087976456
6605.125898241497,1287553.0,0.054990001022815704,0.00031999999191612005,-0.005489999894052744,-0.0817599967122078
6605.126898013713,1287554.0,0.04901000112295151,0.00203999993391335,0.00031999999191612005,-0.07906000316143036
6605.127897785928,1287555.0,0.04258999973535538,0.0027699999045580626,0.0031300000846385956,-0.07932999730110168
6605.128897558144,1287556.0,0.030910000205039978,0.0002300000051036477,-0.0013200000394135714,-0.07813999801874161
6605.129897330358,1287557.0,0.01568000018596649,0.003949999809265137,0.004860000219196081,-0.07361000031232834
6605.130897102574,1287558.0,0.0011699999449774623,0.010490000247955322,0.0015399999683722854,-0.07603000104427338
6605.131896874789,1287559.0,-0.011640000157058239,0.007309999782592058,-0.0017300000181421638,-0.07146000117063522
6605.132896647005,1287560.0,-0.0185100007802248,0.0018599999602884054,0.0021299999207258224,-0.0731000006198883
6605.13389641922,1287561.0,-0.01923000067472458,-0.004540000110864639,0.0013200000394135714,-0.06853000074625015
6605.1348961914355,1287562.0,-0.015449999831616879,-0.006399999838322401,-0.002630000002682209,-0.06908000260591507
6605.13589596365,1287563.0,-0.005929999984800816,-0.00749000022187829,-0.0051299999468028545,-0.06903000175952911
6605.136895735865,1287564.0,0.005840000230818987,-0.0033599999733269215,-0.005770000163465738,-0.06641999632120132
6605.137895508081,1287565.0,0.018549999222159386,-0.0027699999045580626,-0.000859999970998615,-0.06302999705076218
6605.138895280296,1287566.0,0.0301900003105402,-0.003860000055283308,-0.003719999920576811,-0.06669999659061432
6605.139895052512,1287567.0,0.04016000032424927,-0.0006399999838322401,-0.0036800000816583633,-0.06235000118613243
6605.140894824726,1287568.0,0.044199999421834946,-0.000859999970998615,0.004269999917596579,-0.06120000034570694
6605.141894596942,1287569.0,0.044199999421834946,0.0044999998062849045,0.003809999907389283,-0.06151999905705452
6605.142894369157,1287570.0,0.04267999902367592,0.00031999999191612005,0.004679999779909849,-0.05987999960780144
6605.143894141373,1287571.0,0.040070001035928726,0.004269999917596579,0.003000000026077032,-0.05928000062704086
6605.144893913588,1287572.0,0.03943999856710434,-9.000000136438757e-05,0.0036299999337643385,-0.05406000092625618
6605.145893685803,1287573.0,0.040699999779462814,-0.0002699999895412475,0.003590000094845891,-0.057909999042749405
6605.146893458018,1287574.0,0.03971000015735626,0.00031999999191612005,0.0015399999683722854,-0.05240999907255173
6605.147893230233,1287575.0,0.036159999668598175,0.002589999930933118,-0.00494999997317791,-0.05561999976634979
6605.148893002449,1287576.0,0.027489999309182167,0.002589999930933118,0.002090000081807375,-0.051500000059604645
6605.149892774664,1287577.0,0.015860000625252724,0.004629999864846468,0.0016799999866634607,-0.04870999976992607
6605.150892546879,1287578.0,0.0011699999449774623,0.004679999779909849,-0.004540000110864639,-0.052000001072883606
6605.151892319094,1287579.0,-0.011370000429451466,0.0016799999866634607,-0.0020000000949949026,-0.045729998499155045
6605.15289209131,1287580.0,-0.02273000031709671,0.00031999999191612005,0.0027699999045580626,-0.049710001796483994
6605.153891863525,1287581.0,-0.030009999871253967,-0.0006399999838322401,0.0015399999683722854,-0.045090001076459885
6605.154891635741,1287582.0,-0.029109999537467957,-0.006680000107735395,-0.004860000219196081,-0.0416099987924099
6605.155891407956,1287583.0,-0.01689000055193901,-0.007809999864548445,9.000000136438757e-05,-0.046549998223781586
6605.1568911801705,1287584.0,-0.00107999995816499,-0.006949999835342169,-0.004220000002533197,-0.04362000152468681
6605.157890952386,1287585.0,0.014290000312030315,-0.0031799999997019768,-0.004769999999552965,-0.03781000152230263
6605.158890724601,1287586.0,0.028030000627040863,-0.00494999997317791,-0.00044999999227002263,-0.042479999363422394
6605.159890496817,1287587.0,0.03720000013709068,-0.0031799999997019768,-0.004769999999552965,-0.04033000022172928
6605.160890269032,1287588.0,0.039980001747608185,-0.0013200000394135714,-0.0029100000392645597,-0.03446999937295914
6605.161890041247,1287589.0,0.04205000028014183,-0.0020000000949949026,0.00031999999191612005,-0.038589999079704285
6605.162889813462,1287590.0,0.041689999401569366,-0.0011399999493733048,-0.002090000081807375,-0.03671000152826309
6605.163889585678,1287591.0,0.03853999823331833,0.002859999891370535,0.005859999917447567,-0.03085000067949295
6605.164889357893,1287592.0,0.032660000026226044,0.003719999920576811,-9.000000136438757e-05,-0.03455999866127968
6605.165889130109,1287593.0,0.030729999765753746,0.0012700000079348683,-0.0011399999493733048,-0.03359999880194664
6605.166888902324,1287594.0,0.029740000143647194,0.00031999999191612005,-0.0014100000262260437,-0.028610000386834145
6605.1678886745385,1287595.0,0.02857000008225441,0.003949999809265137,-0.002409999957308173,-0.028379999101161957
6605.168888446754,1287596.0,0.02556000091135502,0.00267999991774559,0.002950000111013651,-0.03053000010550022
6605.169888218969,1287597.0,0.015180000104010105,0.006039999891072512,0.003909999970346689,-0.025180000811815262
6605.170887991185,1287598.0,0.00022000000171829015,0.0036299999337643385,0.0030400000978261232,-0.024630000814795494
6605.1718877634,1287599.0,-0.015270000323653221,0.002360000042244792,-0.003449999960139394,-0.027969999238848686
6605.172887535615,1287600.0,-0.02622999995946884,-0.00041000000783242285,-0.0028200000524520874,-0.02078000083565712
6605.17388730783,1287601.0,-0.031039999797940254,-0.002409999957308173,0.0015399999683722854,-0.024490000680088997
6605.174887080046,1287602.0,-0.029200000688433647,-0.004410000052303076,0.0011399999493733048,-0.01995999924838543
6605.175886852261,1287603.0,-0.019899999722838402,-0.0071299998089671135,-0.0009500000160187483,-0.01891000010073185
6605.1768866244765,1287604.0,-0.006060000043362379,-0.00494999997317791,-0.0002699999895412475,-0.020969999954104424
6605.177886396692,1287605.0,0.008089999668300152,-0.006039999891072512,0.004129999782890081,-0.015469999983906746
6605.1788861689065,1287606.0,0.02012999914586544,-0.003539999946951866,0.0002699999895412475,-0.014790000393986702
6605.179885941122,1287607.0,0.0276699997484684,0.0002300000051036477,0.006039999891072512,-0.018769999966025352
6605.180885713337,1287608.0,0.031449999660253525,0.0015899999998509884,0.004449999891221523,-0.013319999910891056
6605.181885485553,1287609.0,0.03311000019311905,-4.999999873689376e-05,0.0014100000262260437,-0.010300000198185444
6605.182885257768,1287610.0,0.03328999876976013,0.001769999973475933,0.00798999983817339,-0.01221999991685152
6605.183885029983,1287611.0,0.03359999880194664,0.00535999983549118,0.003220000071451068,-0.013369999825954437
6605.184884802198,1287612.0,0.03288000077009201,-0.000539999979082495,-0.0016299999551847577,-0.008469999767839909
6605.185884574414,1287613.0,0.030549999326467514,-0.0005000000237487257,0.0016299999551847577,-0.005539999809116125
6605.186884346629,1287614.0,0.028349999338388443,0.0031300000846385956,0.0024999999441206455,-0.011260000057518482
6605.1878841188445,1287615.0,0.02703999914228916,0.002409999957308173,-0.0064500002190470695,-0.008559999987483025
6605.18888389106,1287616.0,0.0200399998575449,0.0016299999551847577,0.0013599999947473407,-0.0026100000832229853
6605.1898836632745,1287617.0,0.008179999887943268,0.005859999917447567,-0.0036800000816583633,-0.0034799999557435513
6605.19088343549,1287618.0,-0.004220000002533197,0.007269999943673611,-0.00839999970048666,-0.006000000052154064
6605.191883207705,1287619.0,-0.0142000000923872,0.0022700000554323196,-0.005489999894052744,-0.00430000014603138
6605.192882979921,1287620.0,-0.0200399998575449,0.0010400000028312206,-0.00686000008136034,0.001970000099390745
6605.193882752136,1287621.0,-0.02043999917805195,-0.0006399999838322401,-0.007180000189691782,-0.0026100000832229853
6605.194882524351,1287622.0,-0.016979999840259552,-0.004999999888241291,-0.005859999917447567,0.0020099999383091927
6605.195882296566,1287623.0,-0.00800000037997961,-0.00749000022187829,-0.0017300000181421638,-9.000000136438757e-05
6605.196882068782,1287624.0,0.0047599999234080315,-0.004040000028908253,-0.002090000081807375,0.003659999929368496
6605.197881840997,1287625.0,0.015270000323653221,-0.005489999894052744,0.00031999999191612005,0.00014000000373926014
6605.1988816132125,1287626.0,0.024620000272989273,-0.00041000000783242285,0.006719999946653843,0.007780000101774931
6605.199881385428,1287627.0,0.033149998635053635,0.003449999960139394,0.0024999999441206455,0.00215000007301569
6605.2008811576425,1287628.0,0.03765000030398369,0.0010400000028312206,0.005090000107884407,0.009109999984502792
6605.201880929858,1287629.0,0.04024999961256981,-0.0010400000028312206,0.01071999967098236,0.005080000031739473
6605.202880702073,1287630.0,0.040389999747276306,0.004220000002533197,0.00031999999191612005,0.010569999925792217
6605.203880474289,1287631.0,0.038989998400211334,-9.000000136438757e-05,0.003590000094845891,0.006909999996423721
6605.204880246504,1287632.0,0.038679998368024826,0.004679999779909849,0.004040000028908253,0.012040000408887863
6605.205880018719,1287633.0,0.03813999891281128,0.001769999973475933,0.00267999991774559,0.010209999978542328
6605.206879790934,1287634.0,0.03449999913573265,-0.002589999930933118,-0.004040000028908253,0.014189999550580978
6605.20787956315,1287635.0,0.032340001314878464,0.00014000000373926014,0.002859999891370535,0.014689999632537365
6605.208879335365,1287636.0,0.026820000261068344,0.001230000052601099,-0.005489999894052744,0.012040000408887863
6605.2098791075805,1287637.0,0.015720000490546227,0.00795000046491623,-0.003220000071451068,0.018810000270605087
6605.210878879795,1287638.0,0.002739999908953905,0.0063599999994039536,-0.0027699999045580626,0.014050000347197056
6605.2118786520105,1287639.0,-0.010200000368058681,0.003590000094845891,-0.0016799999866634607,0.021059999242424965
6605.212878424226,1287640.0,-0.019859999418258667,0.0024500000290572643,0.0010400000028312206,0.015560000203549862
6605.213878196441,1287641.0,-0.0258799996227026,-0.00041000000783242285,0.0015899999998509884,0.022379999980330467
6605.214877968657,1287642.0,-0.025790000334382057,-0.00913000013679266,0.00031999999191612005,0.01730000041425228
6605.215877740871,1287643.0,-0.019589999690651894,-0.005900000222027302,-0.001769999973475933,0.02339000068604946
6605.216877513087,1287644.0,-0.0083600003272295,-0.005810000002384186,-0.0062699997797608376,0.022019999101758003
6605.217877285302,1287645.0,0.003229999914765358,-0.0016299999551847577,0.0012700000079348683,0.021330000832676888
6605.218877057518,1287646.0,0.014600000344216824,-0.003539999946951866,-0.0063599999994039536,0.028519999235868454
6605.219876829733,1287647.0,0.02345000021159649,-0.0011399999493733048,-0.003539999946951866,0.02266000024974346
6605.2208766019485,1287648.0,0.031129999086260796,-0.00031999999191612005,-0.0011399999493733048,0.02961999922990799
6605.221876374163,1287649.0,0.0350399985909462,0.001769999973475933,-0.0063599999994039536,0.023760000243782997
6605.222876146378,1287650.0,0.03359999880194664,0.0027199999894946814,0.003220000071451068,0.030719999223947525
6605.223875918594,1287651.0,0.029829999431967735,0.0030400000978261232,-0.00041000000783242285,0.028020000085234642
6605.224875690809,1287652.0,0.027130000293254852,0.0016799999866634607,-0.0011399999493733048,0.027790000662207603
6605.225875463025,1287653.0,0.02606000006198883,0.0014100000262260437,0.00031999999191612005,0.0340999998152256
6605.226875235239,1287654.0,0.02606000006198883,-0.000590000010561198,-0.004089999943971634,0.029249999672174454
6605.227875007455,1287655.0,0.025429999455809593,0.001820000004954636,0.004629999864846468,0.03465000167489052
6605.22887477967,1287656.0,0.021789999678730965,0.010130000300705433,-4.999999873689376e-05,0.03130999952554703
6605.229874551886,1287657.0,0.012489999644458294,0.006130000110715628,-0.000910000002477318,0.03872999921441078
6605.230874324101,1287658.0,0.0,0.005770000163465738,0.005400000140070915,0.032910000532865524
6605.2318740963165,1287659.0,-0.01131999958306551,0.00203999993391335,0.003220000071451068,0.033969998359680176
6605.232873868531,1287660.0,-0.015949999913573265,0.00031999999191612005,0.003449999960139394,0.04055999964475632
6605.233873640746,1287661.0,-0.014910000376403332,-0.0002300000051036477,0.007309999782592058,0.03757999837398529
6605.234873412962,1287662.0,-0.011049999855458736,-0.004900000058114529,-0.0027699999045580626,0.03602999821305275
6605.235873185177,1287663.0,-0.00547999981790781,-0.01104000024497509,0.001180000021122396,0.04156000167131424
6605.236872957393,1287664.0,0.002959999954327941,-0.00875999964773655,0.003590000094845891,0.03830999881029129
6605.237872729607,1287665.0,0.012889999896287918,-0.00749000022187829,-0.004720000084489584,0.04523000121116638
6605.238872501823,1287666.0,0.021199999377131462,-0.0019499999471008778,-0.004040000028908253,0.03951000049710274
6605.239872274038,1287667.0,0.027489999309182167,0.0016299999551847577,-0.0027699999045580626,0.047929998487234116
6605.240872046254,1287668.0,0.03181000053882599,-9.000000136438757e-05,0.0019099999917671084,0.041749998927116394
6605.241871818469,1287669.0,0.03387000039219856,0.004310000222176313,-0.005859999917447567,0.04935000091791153
6605.242871590684,1287670.0,0.033959999680519104,0.005400000140070915,0.001449999981559813,0.04293999820947647
6605.243871362899,1287671.0,0.033149998635053635,0.0028200000524520874,0.001769999973475933,0.050450000911951065
6605.244871135114,1287672.0,0.029069999232888222,0.00031999999191612005,-0.0022700000554323196,0.04500000178813934
6605.24587090733,1287673.0,0.02507000043988228,-0.000590000010561198,0.003860000055283308,0.052319999784231186
6605.246870679545,1287674.0,0.02353999949991703,0.00031999999191612005,-0.00203999993391335,0.04605000093579292
6605.247870451761,1287675.0,0.023900000378489494,-0.0028200000524520874,0.001180000021122396,0.053050000220537186
6605.248870223975,1287676.0,0.02012999914586544,0.0072200000286102295,0.0030400000978261232,0.0481100007891655
6605.249869996191,1287677.0,0.00872000027447939,0.008489999920129776,-0.002319999970495701,0.05392000079154968
6605.250869768406,1287678.0,-0.006200000178068876,0.00494999997317791,0.0027199999894946814,0.05364999920129776
6605.251869540622,1287679.0,-0.018689999356865883,0.003220000071451068,-0.002630000002682209,0.05575999990105629
6605.252869312837,1287680.0,-0.02703999914228916,0.005270000081509352,-0.002090000081807375,0.054749999195337296
6605.253869085052,1287681.0,-0.030230000615119934,0.003220000071451068,-0.0019099999917671084,0.057360000908374786
6605.254868857267,1287682.0,-0.027489999309182167,-0.004999999888241291,-0.0036800000816583633,0.0595100000500679
6605.255868629482,1287683.0,-0.01841999962925911,-0.0045900000259280205,-0.0029100000392645597,0.05493000149726868
6605.256868401698,1287684.0,-0.006779999937862158,-0.0036800000816583633,-0.0022700000554323196,0.06289999932050705
6605.257868173913,1287685.0,0.004490000195801258,-0.006219999864697456,0.0010000000474974513,0.05699000135064125
6605.258867946129,1287686.0,0.014639999717473984,4.999999873689376e-05,0.00018000000272877514,0.06436000019311905
6605.259867718343,1287687.0,0.022910000756382942,0.000910000002477318,0.00031999999191612005,0.05846000090241432
6605.260867490559,1287688.0,0.027580000460147858,-0.0003600000054575503,0.00031999999191612005,0.06618999689817429
6605.261867262774,1287689.0,0.029920000582933426,-0.002090000081807375,-0.005770000163465738,0.0603800006210804
6605.2628670349895,1287690.0,0.030050000175833702,0.0037700000684708357,0.00267999991774559,0.0670199990272522
6605.263866807205,1287691.0,0.02776000089943409,0.0010000000474974513,-0.0036800000816583633,0.066880002617836
6605.26486657942,1287692.0,0.0218299999833107,0.004269999917596579,-0.003449999960139394,0.06385999917984009
6605.265866351635,1287693.0,0.013120000250637531,0.000910000002477318,-0.002950000111013651,0.06949000060558319
6605.26686612385,1287694.0,0.006920000072568655,0.00031999999191612005,0.0,0.06572999805212021
6605.267865896066,1287695.0,0.004040000028908253,-0.0015399999683722854,-0.0017300000181421638,0.07058999687433243
6605.268865668281,1287696.0,0.0008099999977275729,0.005770000163465738,0.003719999920576811,0.07246000319719315
6605.269865440497,1287697.0,-0.005929999984800816,0.00535999983549118,0.0022299999836832285,0.06769999861717224
6605.270865212711,1287698.0,-0.01607999950647354,0.002859999891370535,0.008949999697506428,0.07613000273704529
6605.271864984927,1287699.0,-0.02947000041604042,0.0021299999207258224,0.00031999999191612005,0.06966999918222427
6605.272864757142,1287700.0,-0.03880999982357025,0.005950000137090683,-0.00203999993391335,0.0757099986076355
6605.2738645293575,1287701.0,-0.04123999923467636,-0.0027699999045580626,-0.0013599999947473407,0.07648999989032745
6605.274864301573,1287702.0,-0.038359999656677246,-0.002090000081807375,0.005590000189840794,0.07219000160694122
6605.2758640737875,1287703.0,-0.028389999642968178,-0.008220000192523003,0.005040000192821026,0.08111999928951263
6605.276863846003,1287704.0,-0.015270000323653221,-0.007899999618530273,0.001180000021122396,0.07924000173807144
6605.277863618218,1287705.0,0.0003100000030826777,-0.006579999811947346,0.0063599999994039536,0.07553000003099442
6605.278863390434,1287706.0,0.013659999705851078,-0.003719999920576811,0.008170000277459621,0.08290000259876251
6605.279863162649,1287707.0,0.02201000042259693,-0.004310000222176313,0.006089999806135893,0.07717999815940857
6605.280862934864,1287708.0,0.025919999927282333,-0.0010900000343099236,-0.002589999930933118,0.08528000116348267
6605.281862707079,1287709.0,0.02597000077366829,0.00031999999191612005,0.004310000222176313,0.07882999628782272
6605.282862479295,1287710.0,0.02223999984562397,-0.00031999999191612005,-0.0044999998062849045,0.08601000159978867
6605.28386225151,1287711.0,0.017969999462366104,0.0059899999760091305,-0.007670000195503235,0.08518999814987183
6605.2848620237255,1287712.0,0.013969999738037586,0.000859999970998615,-0.003719999920576811,0.08432000130414963
6605.285861795941,1287713.0,0.011189999990165234,0.0015399999683722854,-0.0029100000392645597,0.08730000257492065
6605.2868615681555,1287714.0,0.0083600003272295,0.0010000000474974513,-0.0027699999045580626,0.08629000186920166
6605.287861340371,1287715.0,0.007910000160336494,-0.000910000002477318,-0.0021800000686198473,0.08417999744415283
6605.288861112586,1287716.0,0.004490000195801258,0.0037700000684708357,-0.0051299999468028545,0.09150999784469604
6605.289860884802,1287717.0,-0.00215999991632998,0.00494999997317791,0.0024999999441206455,0.08925999701023102
6605.290860657017,1287718.0,-0.010780000127851963,0.0044999998062849045,0.0015899999998509884,0.08702000230550766
6605.291860429232,1287719.0,-0.018459999933838844,0.0021800000686198473,-0.0028200000524520874,0.09397999942302704
6605.292860201447,1287720.0,-0.023269999772310257,0.003949999809265137,0.003220000071451068,0.09068000316619873
6605.293859973663,1287721.0,-0.026820000261068344,-0.0051299999468028545,0.003949999809265137,0.08972000330686569
6605.294859745878,1287722.0,-0.02727000042796135,-0.0031300000846385956,0.0024999999441206455,0.09773000329732895
6605.2958595180935,1287723.0,-0.020659999921917915,-0.007400000002235174,-0.004310000222176313,0.09155000001192093
6605.296859290309,1287724.0,-0.010870000347495079,-0.005489999894052744,-0.0083600003272295,0.09993000328540802
6605.2978590625235,1287725.0,-0.0003600000054575503,-0.0024500000290572643,0.0018599999602884054,0.0953499972820282
6605.298858834739,1287726.0,0.006829999852925539,-0.00571999978274107,-0.000590000010561198,0.09407000243663788
6605.299858606954,1287727.0,0.00925000011920929,-0.0022299999836832285,0.0016799999866634607,0.10029999911785126
6605.30085837917,1287728.0,0.009789999574422836,0.005040000192821026,-0.005900000222027302,0.10350000113248825
6605.301858151385,1287729.0,0.010470000095665455,0.006130000110715628,0.0014100000262260437,0.10102999955415726
6605.3028579236,1287730.0,0.010420000180602074,-0.00041000000783242285,0.0002300000051036477,0.09801000356674194
6605.303857695815,1287731.0,0.010060000233352184,-0.0010400000028312206,-0.003000000026077032,0.10332000255584717
6605.304857468031,1287732.0,0.009340000338852406,0.0027699999045580626,0.001769999973475933,0.10679999738931656
6605.305857240246,1287733.0,0.009429999627172947,0.0019499999471008778,-0.000859999970998615,0.1043199971318245
6605.3068570124615,1287734.0,0.011049999855458736,-0.0016299999551847577,-0.0007699999841861427,0.10236000269651413
6605.307856784677,1287735.0,0.012439999729394913,0.0002699999895412475,0.003590000094845891,0.10798999667167664
6605.308856556891,1287736.0,0.00800000037997961,0.007180000189691782,0.00031999999191612005,0.11133000254631042
6605.309856329107,1287737.0,-0.0028800000436604023,0.0035000001080334187,-0.004410000052303076,0.10724999755620956
6605.310856101322,1287738.0,-0.016489999368786812,0.003949999809265137,-0.0027199999894946814,0.10537999868392944
6605.311855873538,1287739.0,-0.02857000008225441,0.00418000016361475,-0.008129999972879887,0.10578999668359756
6605.312855645753,1287740.0,-0.03720000013709068,0.0025400000158697367,-0.000859999970998615,0.11361999809741974
6605.313855417968,1287741.0,-0.04024999961256981,-0.004089999943971634,-0.0033599999733269215,0.1116499975323677
6605.314855190183,1287742.0,-0.0384100005030632,-0.004410000052303076,-0.001180000021122396,0.1083500012755394
6605.315854962399,1287743.0,-0.03260999917984009,-0.008990000002086163,0.0002300000051036477,0.11745999753475189
6605.316854734614,1287744.0,-0.02232999913394451,-0.00875999964773655,-0.0005000000237487257,0.11082000285387039
6605.3178545068295,1287745.0,-0.008270000107586384,-0.001180000021122396,0.0014100000262260437,0.11095999926328659
6605.318854279045,1287746.0,0.0031900000758469105,-0.0031799999997019768,0.00031999999191612005,0.11906000226736069
6605.319854051259,1287747.0,0.011370000429451466,-0.001180000021122396,-0.0006399999838322401,0.1214900016784668
6605.320853823475,1287748.0,0.016489999368786812,0.004269999917596579,0.0033199999015778303,0.11719000339508057
6605.32185359569,1287749.0,0.01860000006854534,-0.0009500000160187483,0.0010400000028312206,0.11553999781608582
6605.322853367906,1287750.0,0.018869999796152115,0.005040000192821026,0.002950000111013651,0.11558999866247177
6605.323853140121,1287751.0,0.018640000373125076,0.003220000071451068,-0.003449999960139394,0.123089998960495
6605.324852912336,1287752.0,0.018149999901652336,0.0037700000684708357,-0.00203999993391335,0.1256999969482422
6605.325852684551,1287753.0,0.018149999901652336,0.0030400000978261232,-0.004360000137239695,0.11965999752283096
6605.326852456767,1287754.0,0.017430000007152557,0.0016799999866634607,0.002319999970495701,0.11980000138282776
6605.327852228982,1287755.0,0.013570000417530537,-0.0022299999836832285,-0.004040000028908253,0.1291400045156479
6605.328852001197,1287756.0,0.0035000001080334187,0.002409999957308173,0.00031999999191612005,0.12189999967813492
6605.329851773413,1287757.0,-0.0101500004529953,0.005309999920427799,0.0009500000160187483,0.12876999378204346
6605.330851545627,1287758.0,-0.022870000451803207,0.004310000222176313,0.0013200000394135714,0.1239200010895729
6605.331851317843,1287759.0,-0.03198999911546707,0.0028200000524520874,0.003909999970346689,0.1288599967956543
6605.332851090058,1287760.0,-0.0384100005030632,-0.002589999930933118,0.00031999999191612005,0.12601999938488007
6605.333850862274,1287761.0,-0.04222999885678291,-0.0036299999337643385,0.0013200000394135714,0.13256999850273132
6605.334850634489,1287762.0,-0.0399399995803833,-0.007579999975860119,0.003220000071451068,0.1269800066947937
6605.335850406704,1287763.0,-0.030820000916719437,-0.005859999917447567,0.002859999891370535,0.13568000495433807
6605.336850178919,1287764.0,-0.019050000235438347,-0.008990000002086163,-0.002090000081807375,0.12748999893665314
6605.337849951135,1287765.0,-0.01092000026255846,-0.007899999618530273,0.001769999973475933,0.1365099996328354
6605.33884972335,1287766.0,-0.004670000169426203,-0.004410000052303076,-0.0006399999838322401,0.13091999292373657
6605.339849495565,1287767.0,0.0020699999295175076,-0.000859999970998615,-0.0010000000474974513,0.13508999347686768
6605.34084926778,1287768.0,0.007550000213086605,0.0044999998062849045,-0.003949999809265137,0.13715000450611115
6605.341849039995,1287769.0,0.013930000364780426,0.001230000052601099,0.003220000071451068,0.13344000279903412
6605.342848812211,1287770.0,0.016039999201893806,0.0071299998089671135,0.0014100000262260437,0.14094999432563782
6605.343848584426,1287771.0,0.012439999729394913,0.003949999809265137,-0.0022299999836832285,0.13490000367164612
6605.344848356642,1287772.0,0.009209999814629555,0.004900000058114529,-0.0024500000290572643,0.14424000680446625
6605.345848128856,1287773.0,0.007369999773800373,0.0036800000816583633,0.0010400000028312206,0.13568000495433807
6605.346847901072,1287774.0,0.006560000125318766,0.00031999999191612005,-0.0031799999997019768,0.1442900002002716
6605.347847673287,1287775.0,0.0053900000639259815,0.0002699999895412475,-0.0007699999841861427,0.1376499980688095
6605.3488474455025,1287776.0,0.0,0.0021299999207258224,0.005630000028759241,0.14757999777793884
6605.349847217718,1287777.0,-0.011140000075101852,0.005040000192821026,-0.0027699999045580626,0.14008000493049622
6605.350846989933,1287778.0,-0.02314000017940998,0.005770000163465738,0.004129999782890081,0.1483599990606308
6605.351846762148,1287779.0,-0.03369000181555748,0.004679999779909849,0.0025400000158697367,0.1425900012254715
6605.352846534363,1287780.0,-0.03863000124692917,0.003909999970346689,-0.0030400000978261232,0.14972999691963196
6605.353846306579,1287781.0,-0.03558000177145004,0.0031300000846385956,0.00031999999191612005,0.14496999979019165
6605.354846078794,1287782.0,-0.029109999537467957,-0.008949999697506428,-0.0021800000686198473,0.1511099934577942
6605.35584585101,1287783.0,-0.01931999996304512,-0.006130000110715628,-0.004769999999552965,0.14630000293254852
6605.356845623224,1287784.0,-0.006560000125318766,-0.010219999589025974,0.00031999999191612005,0.1542699933052063
6605.35784539544,1287785.0,0.008539999835193157,-0.008220000192523003,0.002319999970495701,0.1467999964952469
6605.358845167655,1287786.0,0.01931999996304512,-0.0051299999468028545,-0.000859999970998615,0.15408000349998474
6605.3598449398705,1287787.0,0.026410000398755074,-0.0036800000816583633,0.001769999973475933,0.15532000362873077
6605.360844712086,1287788.0,0.03009999915957451,-0.0015399999683722854,-0.0036299999337643385,0.15060000121593475
6605.361844484301,1287789.0,0.02735999971628189,0.0002699999895412475,0.002950000111013651,0.15793000161647797
6605.362844256516,1287790.0,0.019859999418258667,0.0044999998062849045,0.0024500000290572643,0.15376000106334686
6605.363844028731,1287791.0,0.014290000312030315,0.004040000028908253,-0.00031999999191612005,0.15851999819278717
6605.364843800947,1287792.0,0.00925000011920929,0.0021299999207258224,0.00031999999191612005,0.16144999861717224
6605.365843573162,1287793.0,0.006020000204443932,-0.0015399999683722854,-0.006579999811947346,0.15449999272823334
6605.366843345378,1287794.0,0.004399999976158142,0.00571999978274107,-0.0036800000816583633,0.1629199981689453
6605.367843117592,1287795.0,0.003860000055283308,0.005770000163465738,-0.00839999970048666,0.1598999947309494
6605.368842889808,1287796.0,0.0007200000109151006,0.006680000107735395,-0.0018599999602884054,0.15633000433444977
6605.369842662023,1287797.0,-0.007910000160336494,0.0024500000290572643,-0.004540000110864639,0.16730999946594238
6605.3708424342385,1287798.0,-0.01779000088572502,0.004360000137239695,-0.002589999930933118,0.1612199991941452
6605.371842206454,1287799.0,-0.027400000020861626,0.006490000057965517,-0.003719999920576811,0.16730999946594238
6605.372841978669,1287800.0,-0.03260999917984009,0.0021299999207258224,0.0009500000160187483,0.16548000276088715
6605.373841750884,1287801.0,-0.033959999680519104,-0.000859999970998615,-0.0011399999493733048,0.1637900024652481
6605.374841523099,1287802.0,-0.030859999358654022,-0.0033599999733269215,-0.001230000052601099,0.1722099930047989
6605.375841295315,1287803.0,-0.023180000483989716,-0.007040000054985285,0.001500000013038516,0.1643799990415573
6605.37684106753,1287804.0,-0.012489999644458294,-0.010080000385642052,0.0015399999683722854,0.17408999800682068
6605.377840839746,1287805.0,-0.0015300000086426735,-0.004679999779909849,0.005770000163465738,0.1677200049161911
6605.37884061196,1287806.0,0.007459999993443489,-0.0033199999015778303,0.005810000002384186,0.17499999701976776
6605.379840384176,1287807.0,0.014639999717473984,0.004310000222176313,0.013030000030994415,0.17005999386310577
6605.380840156391,1287808.0,0.019680000841617584,0.001769999973475933,0.013939999975264072,0.1761000007390976
6605.3818399286065,1287809.0,0.021560000255703926,0.0002300000051036477,0.014619999565184116,0.17962999641895294
6605.382839700822,1287810.0,0.018869999796152115,-0.00041000000783242285,0.013530000112950802,0.17307999730110168
6605.383839473037,1287811.0,0.015410000458359718,0.0027199999894946814,0.008670000359416008,0.17994999885559082
6605.384839245252,1287812.0,0.013120000250637531,0.0013200000394135714,-0.0003600000054575503,0.1801300048828125
6605.385839017467,1287813.0,0.012980000115931034,0.0028200000524520874,0.004040000028908253,0.1736299991607666
6605.386838789683,1287814.0,0.013030000030994415,-0.0007699999841861427,-0.004769999999552965,0.18443000316619873
6605.387838561898,1287815.0,0.012799999676644802,-0.00014000000373926014,-0.0062699997797608376,0.1776600033044815
6605.388838334114,1287816.0,0.008089999668300152,0.00031999999191612005,-0.002630000002682209,0.18671999871730804
6605.389838106328,1287817.0,0.0007600000244565308,0.006630000192672014,-0.01063000038266182,0.17967000603675842
6605.390837878544,1287818.0,-0.007550000213086605,0.00872000027447939,0.0,0.18782000243663788
6605.391837650759,1287819.0,-0.016529999673366547,0.002589999930933118,-0.006949999835342169,0.182559996843338
6605.3928374229745,1287820.0,-0.021560000255703926,0.0010400000028312206,-0.004629999864846468,0.18846000730991364
6605.39383719519,1287821.0,-0.02201000042259693,-0.0017300000181421638,-0.005950000137090683,0.1850699931383133
6605.394836967405,1287822.0,-0.016979999840259552,-0.004040000028908253,-0.002589999930933118,0.18978999555110931
6605.39583673962,1287823.0,-0.006560000125318766,-0.006310000084340572,-0.005179999861866236,0.1906999945640564
6605.396836511835,1287824.0,0.007189999800175428,-0.006219999864697456,-0.00571999978274107,0.18337999284267426
6605.397836284051,1287825.0,0.020309999585151672,-0.005489999894052744,-0.0002300000051036477,0.19596999883651733
6605.398836056266,1287826.0,0.03305999934673309,-0.0036299999337643385,0.0010400000028312206,0.19362999498844147
6605.399835828482,1287827.0,0.04295000061392784,-0.002319999970495701,-0.0035000001080334187,0.19290000200271606
6605.400835600696,1287828.0,0.046539999544620514,0.0014100000262260437,-0.0036800000816583633,0.18727000057697296
6605.401835372912,1287829.0,0.045099999755620956,0.0022299999836832285,0.0011399999493733048,0.19939999282360077
6605.402835145127,1287830.0,0.04066000133752823,0.00031999999191612005,0.002360000042244792,0.19710999727249146
6605.4038349173425,1287831.0,0.03342000022530556,0.004860000219196081,-0.0019499999471008778,0.19075000286102295
6605.404834689558,1287832.0,0.027540000155568123,0.003949999809265137,0.002859999891370535,0.20095999538898468
6605.405834461772,1287833.0,0.0218299999833107,0.0045900000259280205,-0.00031999999191612005,0.2045300006866455
6605.406834233988,1287834.0,0.01769999973475933,0.003909999970346689,0.0030400000978261232,0.20531000196933746
6605.407834006203,1287835.0,0.014639999717473984,-0.003909999970346689,0.00267999991774559,0.1990399956703186
6605.408833778419,1287836.0,0.010420000180602074,0.002950000111013651,0.010400000028312206,0.1974799931049347
6605.409833550634,1287837.0,0.0003100000030826777,0.005859999917447567,0.0017300000181421638,0.2054000049829483
6605.410833322849,1287838.0,-0.012079999782145023,0.007180000189691782,0.002360000042244792,0.20934000611305237
6605.411833095064,1287839.0,-0.02345000021159649,0.0064500002190470695,-0.0008200000156648457,0.20448000729084015
6605.41283286728,1287840.0,-0.030910000205039978,-0.001820000004954636,-0.006579999811947346,0.20934000611305237
6605.413832639495,1287841.0,-0.032430000603199005,-0.0002699999895412475,-0.005539999809116125,0.20489999651908875
6605.41483241171,1287842.0,-0.027629999443888664,-0.0035000001080334187,-0.01066999975591898,0.2136400043964386
6605.415832183926,1287843.0,-0.019360000267624855,-0.01140000019222498,-0.014209999702870846,0.2037000060081482
6605.41683195614,1287844.0,-0.009340000338852406,-0.006680000107735395,-0.0016799999866634607,0.21533000469207764
6605.417831728356,1287845.0,0.0014400000218302011,-0.00571999978274107,-0.000910000002477318,0.21272000670433044
6605.418831500571,1287846.0,0.013120000250637531,-0.003000000026077032,0.005090000107884407,0.2110700011253357
6605.419831272787,1287847.0,0.02263999916613102,-0.003949999809265137,0.007540000136941671,0.21657000482082367
6605.420831045002,1287848.0,0.024709999561309814,-0.002589999930933118,0.009259999729692936,0.21065999567508698
6605.421830817217,1287849.0,0.02191999927163124,0.001820000004954636,0.014349999837577343,0.22055000066757202
6605.422830589432,1287850.0,0.017650000751018524,-0.0014100000262260437,0.01448999997228384,0.21071000397205353
6605.423830361648,1287851.0,0.016620000824332237,0.001230000052601099,0.011629999615252018,0.21996000409126282
6605.424830133863,1287852.0,0.015990000218153,0.001500000013038516,0.0045900000259280205,0.22059999406337738
6605.425829906078,1287853.0,0.015270000323653221,0.003220000071451068,0.005179999861866236,0.2184000015258789
6605.426829678294,1287854.0,0.013299999758601189,0.001230000052601099,0.006680000107735395,0.22567999362945557
6605.427829450508,1287855.0,0.0088900001719594,-0.00018000000272877514,0.009039999917149544,0.21588000655174255
6605.428829222724,1287856.0,0.0021100000012665987,0.006130000110715628,0.0018599999602884054,0.2233400046825409
6605.429828994939,1287857.0,-0.006649999879300594,0.00839999970048666,-0.007540000136941671,0.22682000696659088
6605.430828767155,1287858.0,-0.017069999128580093,0.006130000110715628,-0.013899999670684338,0.22371000051498413
6605.43182853937,1287859.0,-0.02703999914228916,4.999999873689376e-05,-0.014530000276863575,0.22883999347686768
6605.432828311585,1287860.0,-0.033240001648664474,-0.0027699999045580626,-0.01370999962091446,0.22472000122070312
6605.4338280838,1287861.0,-0.03513000160455704,-0.004900000058114529,-0.014349999837577343,0.23029999434947968
6605.4348278560155,1287862.0,-0.03305999934673309,-0.004999999888241291,-0.0062699997797608376,0.22745999693870544
6605.435827628231,1287863.0,-0.025520000606775284,-0.008580000139772892,-0.001500000013038516,0.23469999432563782
6605.436827400446,1287864.0,-0.013749999925494194,-0.009309999644756317,0.00031999999191612005,0.2243500053882599
6605.437827172662,1287865.0,-0.0006300000241026282,-0.00803999975323677,0.001769999973475933,0.2321300059556961
6605.438826944876,1287866.0,0.01221999991685152,-0.005590000189840794,0.008080000057816505,0.23607000708580017
6605.439826717092,1287867.0,0.021740000694990158,-0.0022299999836832285,0.0031300000846385956,0.22705000638961792
6605.440826489307,1287868.0,0.02622999995946884,0.00031999999191612005,0.005770000163465738,0.23885999619960785
6605.441826261523,1287869.0,0.026499999687075615,0.005950000137090683,0.00880999956279993,0.23058000206947327
6605.442826033738,1287870.0,0.02425999939441681,0.0033599999733269215,0.002409999957308173,0.24045999348163605
6605.443825805953,1287871.0,0.02071000076830387,0.003220000071451068,0.007400000002235174,0.23615999519824982
6605.444825578168,1287872.0,0.018060000613331795,0.001820000004954636,0.0008200000156648457,0.2420700043439865
6605.4458253503835,1287873.0,0.016620000824332237,0.0027699999045580626,0.004540000110864639,0.23931999504566193
6605.446825122599,1287874.0,0.015540000051259995,-0.0020000000949949026,0.004629999864846468,0.24100999534130096
6605.447824894814,1287875.0,0.014150000177323818,-0.004220000002533197,0.004679999779909849,0.24724000692367554
6605.44882466703,1287876.0,0.007009999826550484,0.0002699999895412475,0.001820000004954636,0.23611000180244446
6605.449824439244,1287877.0,-0.007369999773800373,0.005400000140070915,0.00031999999191612005,0.25025999546051025
6605.45082421146,1287878.0,-0.02363000065088272,0.007670000195503235,0.0022700000554323196,0.23927000164985657
6605.451823983675,1287879.0,-0.03692999854683876,0.005950000137090683,-0.0002300000051036477,0.25095000863075256
6605.452823755891,1287880.0,-0.04433999955654144,0.003220000071451068,-0.003269999986514449,0.24347999691963196
6605.453823528106,1287881.0,-0.04473999887704849,-0.00041000000783242285,0.0014100000262260437,0.2513599991798401
6605.454823300321,1287882.0,-0.04016000032424927,-0.006630000192672014,-0.004310000222176313,0.2486100047826767
6605.455823072536,1287883.0,-0.029920000582933426,-0.006039999891072512,-0.002950000111013651,0.25227001309394836
6605.4568228447515,1287884.0,-0.018459999933838844,-0.005900000222027302,-0.0033199999015778303,0.2505800127983093
6605.457822616967,1287885.0,-0.007550000213086605,-0.009220000356435776,-0.008580000139772892,0.2533699870109558
6605.458822389182,1287886.0,0.0006300000241026282,-0.0030900000128895044,-0.002319999970495701,0.2528199851512909
6605.459822161398,1287887.0,0.00773000018671155,0.00203999993391335,-0.004040000028908253,0.2553899884223938
6605.460821933612,1287888.0,0.011680000461637974,0.004310000222176313,-0.007770000025629997,0.2540600001811981
6605.461821705828,1287889.0,0.012040000408887863,0.008860000409185886,-0.0033599999733269215,0.2563000023365021
6605.462821478043,1287890.0,0.008449999615550041,0.004679999779909849,-0.0002300000051036477,0.2581300139427185
6605.463821250259,1287891.0,0.005840000230818987,0.0014100000262260437,-0.005489999894052744,0.2581300139427185
6605.464821022474,1287892.0,0.0026100000832229853,0.003949999809265137,0.00267999991774559,0.26212000846862793
6605.465820794689,1287893.0,-0.0034099998883903027,0.002409999957308173,-0.000910000002477318,0.25314000248908997
6605.466820566904,1287894.0,-0.008940000087022781,0.0018599999602884054,-0.004269999917596579,0.26399001479148865
6605.4678203391195,1287895.0,-0.011370000429451466,-0.004220000002533197,0.004310000222176313,0.2594600021839142
6605.468820111335,1287896.0,-0.015769999474287033,0.0014100000262260437,0.0025400000158697367,0.2663699984550476
6605.46981988355,1287897.0,-0.02402999997138977,0.003860000055283308,0.0027699999045580626,0.2546499967575073
6605.470819655765,1287898.0,-0.035760000348091125,0.00686000008136034,0.0013200000394135714,0.26284998655319214
6605.47181942798,1287899.0,-0.04645000025629997,0.0063599999994039536,-0.0022299999836832285,0.2705399990081787
6605.472819200196,1287900.0,-0.05183999985456467,0.004040000028908253,0.003909999970346689,0.25808998942375183
6605.473818972411,1287901.0,-0.0524200014770031,-0.000910000002477318,-0.006399999838322401,0.2708599865436554
6605.474818744627,1287902.0,-0.05130000039935112,0.00018000000272877514,-0.005859999917447567,0.26747000217437744
6605.475818516841,1287903.0,-0.04690000042319298,-0.004900000058114529,0.0022299999836832285,0.2695299983024597
6605.476818289057,1287904.0,-0.03751000016927719,-0.00839999970048666,-0.0015899999998509884,0.2727400064468384
6605.477818061272,1287905.0,-0.02622999995946884,-0.0062699997797608376,0.0012700000079348683,0.2686600089073181
6605.4788178334875,1287906.0,-0.016979999840259552,-0.007309999782592058,0.005040000192821026,0.2770400047302246
6605.479817605703,1287907.0,-0.010780000127851963,-0.0052200001664459705,-0.000910000002477318,0.26399001479148865
6605.480817377918,1287908.0,-0.007770000025629997,0.00031999999191612005,0.00267999991774559,0.2784099876880646
6605.481817150133,1287909.0,-0.007819999940693378,0.0016799999866634607,0.0021299999207258224,0.2745699882507324
6605.482816922348,1287910.0,-0.010239999741315842,0.003860000055283308,-0.000539999979082495,0.2779099941253662
6605.483816694564,1287911.0,-0.012400000356137753,0.003220000071451068,0.003809999907389283,0.27570998668670654
6605.484816466779,1287912.0,-0.013969999738037586,0.002360000042244792,-0.00041000000783242285,0.27772998809814453
6605.485816238995,1287913.0,-0.01508999988436699,0.0024999999441206455,-0.0013200000394135714,0.2796899974346161
6605.486816011209,1287914.0,-0.015270000323653221,0.0002300000051036477,0.00418000016361475,0.27643999457359314
6605.487815783425,1287915.0,-0.0147299999371171,0.002409999957308173,-0.0045900000259280205,0.28119999170303345
6605.48881555564,1287916.0,-0.01779000088572502,0.004540000110864639,-0.002589999930933118,0.27900999784469604
6605.4898153278555,1287917.0,-0.02597000077366829,0.007400000002235174,-0.00044999999227002263,0.28395000100135803
6605.490815100071,1287918.0,-0.0370200015604496,0.006490000057965517,0.001180000021122396,0.2799200117588043
6605.491814872286,1287919.0,-0.04879000037908554,-0.0010000000474974513,-0.009669999592006207,0.2863300144672394
6605.492814644501,1287920.0,-0.0557899996638298,0.00031999999191612005,-0.0006399999838322401,0.2786400020122528
6605.493814416716,1287921.0,-0.0557899996638298,-0.006039999891072512,-0.0045900000259280205,0.28898999094963074
6605.494814188932,1287922.0,-0.049949999898672104,-0.007400000002235174,-0.004000000189989805,0.27570998668670654
6605.495813961147,1287923.0,-0.039080001413822174,-0.0044999998062849045,0.0016299999551847577,0.2918199896812439
6605.496813733363,1287924.0,-0.025340000167489052,-0.004129999782890081,-0.001180000021122396,0.28595998883247375
6605.497813505577,1287925.0,-0.011500000022351742,-0.002950000111013651,-0.003909999970346689,0.29131999611854553
6605.498813277793,1287926.0,0.00107999995816499,-0.0022299999836832285,0.007540000136941671,0.28870999813079834
6605.499813050008,1287927.0,0.008980000391602516,0.0014100000262260437,0.00031999999191612005,0.29100000858306885
6605.500812822223,1287928.0,0.012079999782145023,0.0018599999602884054,-0.0017300000181421638,0.2918199896812439
6605.501812594439,1287929.0,0.010239999741315842,0.003220000071451068,0.00031999999191612005,0.2898600101470947
6605.502812366654,1287930.0,0.005030000116676092,0.003719999920576811,-0.002319999970495701,0.2944299876689911
6605.503812138869,1287931.0,-0.0027000000700354576,0.001180000021122396,0.00494999997317791,0.28925999999046326
6605.504811911084,1287932.0,-0.013570000417530537,-0.0011399999493733048,-0.001180000021122396,0.2984200119972229
6605.5058116833,1287933.0,-0.024800000712275505,-0.0014100000262260437,-0.00041000000783242285,0.28395000100135803
6605.506811455515,1287934.0,-0.03584999963641167,0.00031999999191612005,0.0002699999895412475,0.2984600067138672
6605.507811227731,1287935.0,-0.04627000167965889,0.001769999973475933,-0.0002300000051036477,0.29622000455856323
6605.508810999945,1287936.0,-0.05961000174283981,0.0045900000259280205,-0.00031999999191612005,0.2945300042629242
6605.509810772161,1287937.0,-0.07772000133991241,0.007860000245273113,-0.002589999930933118,0.29978999495506287
6605.510810544376,1287938.0,-0.09630999714136124,0.005590000189840794,0.006630000192672014,0.29681000113487244
6605.511810316591,1287939.0,-0.11482000350952148,0.0036800000816583633,-0.0010000000474974513,0.3013499975204468
6605.512810088807,1287940.0,-0.13117000460624695,0.0037700000684708357,-0.002409999957308173,0.2975899875164032
6605.513809861022,1287941.0,-0.14343999326229095,-0.004860000219196081,0.001769999973475933,0.30052000284194946
6605.514809633237,1287942.0,-0.14972999691963196,-0.004360000137239695,-0.0002300000051036477,0.30171000957489014
6605.515809405452,1287943.0,-0.15094000101089478,-0.006039999891072512,0.005040000192821026,0.30313000082969666
6605.516809177668,1287944.0,-0.14717000722885132,-0.006399999838322401,0.00018000000272877514,0.3020800054073334
6605.517808949883,1287945.0,-0.1401599943637848,-0.010579999536275864,-0.007899999618530273,0.302949994802475
6605.518808722099,1287946.0,-0.13134999573230743,-0.0062699997797608376,-0.007899999618530273,0.3048200011253357
6605.519808494313,1287947.0,-0.1263200044631958,-0.0015899999998509884,-0.013989999890327454,0.30500999093055725
6605.520808266529,1287948.0,-0.1263200044631958,0.0021299999207258224,-0.013939999975264072,0.30614998936653137
6605.521808038744,1287949.0,-0.12848000228405,0.007180000189691782,-0.006399999838322401,0.30660998821258545
6605.522807810959,1287950.0,-0.13064000010490417,0.005270000081509352,-0.004269999917596579,0.30500999093055725
6605.523807583175,1287951.0,-0.13549000024795532,0.007360000163316727,-0.0022700000554323196,0.3082599937915802
6605.52480735539,1287952.0,-0.14079000055789948,0.0072200000286102295,0.007670000195503235,0.30730000138282776
6605.525807127605,1287953.0,-0.14500999450683594,0.0010400000028312206,0.010130000300705433,0.30963000655174255
6605.52680689982,1287954.0,-0.1427599936723709,0.005630000028759241,0.011529999785125256,0.3085300028324127
6605.527806672036,1287955.0,-0.13131000101566315,0.0019099999917671084,0.012670000083744526,0.30976998805999756
6605.528806444251,1287956.0,-0.11945000290870667,0.004000000189989805,0.015530000440776348,0.31525999307632446
6605.529806216467,1287957.0,-0.11050999909639359,0.010490000247955322,0.015850000083446503,0.30083999037742615
6605.530805988681,1287958.0,-0.09828999638557434,0.008670000359416008,0.012400000356137753,0.31672999262809753
6605.5318057608965,1287959.0,-0.0865200012922287,0.004900000058114529,0.003949999809265137,0.3035399913787842
6605.532805533112,1287960.0,-0.07056999951601028,0.00031999999191612005,0.004679999779909849,0.31801000237464905
6605.533805305327,1287961.0,-0.04667000100016594,-0.0017300000181421638,0.0010400000028312206,0.3112800121307373
6605.534805077543,1287962.0,-0.01607999950647354,-0.006399999838322401,-0.00018000000272877514,0.3165000081062317
6605.535804849757,1287963.0,0.02151999995112419,-0.004089999943971634,-0.006949999835342169,0.3143500089645386
6605.536804621973,1287964.0,0.06451000273227692,-0.004089999943971634,-0.018069999292492867,0.3147999942302704
6605.537804394188,1287965.0,0.10907000303268433,-0.006769999861717224,-0.005950000137090683,0.3191100060939789
6605.538804166404,1287966.0,0.14932000637054443,-0.0037700000684708357,-0.005489999894052744,0.3165000081062317
6605.539803938619,1287967.0,0.1799599975347519,0.00031999999191612005,-0.004629999864846468,0.32016000151634216
6605.540803710834,1287968.0,0.19666999578475952,0.003590000094845891,-0.002589999930933118,0.3170900046825409
6605.541803483049,1287969.0,0.20250999927520752,0.00031999999191612005,-0.003539999946951866,0.32076001167297363
6605.5428032552645,1287970.0,0.2071399986743927,0.004679999779909849,-0.006310000084340572,0.3201099932193756
6605.54380302748,1287971.0,0.21320000290870667,0.00267999991774559,-0.0027199999894946814,0.3181900084018707
6605.544802799695,1287972.0,0.2254199981689453,0.001230000052601099,-0.0037700000684708357,0.3223100006580353
6605.545802571911,1287973.0,0.24478000402450562,0.0030400000978261232,-0.007770000025629997,0.3211199939250946
6605.546802344125,1287974.0,0.26837000250816345,0.004410000052303076,0.001500000013038516,0.3240100145339966
6605.547802116341,1287975.0,0.2833699882030487,0.0017300000181421638,-0.002589999930933118,0.3173699975013733
6605.548801888556,1287976.0,0.2870599925518036,0.00749000022187829,-0.000910000002477318,0.32785001397132874
6605.549801660772,1287977.0,0.28453999757766724,0.0024500000290572643,0.005679999943822622,0.3205699920654297
6605.550801432987,1287978.0,0.2763200104236603,0.00535999983549118,-4.999999873689376e-05,0.32607001066207886
6605.551801205202,1287979.0,0.2643299996852875,0.004679999779909849,-0.004540000110864639,0.3225899934768677
6605.552800977417,1287980.0,0.2451000064611435,-0.0007699999841861427,-0.0015399999683722854,0.32945001125335693
6605.5538007496325,1287981.0,0.22596000134944916,-0.000539999979082495,-0.004999999888241291,0.3201099932193756
6605.554800521848,1287982.0,0.21710999310016632,-0.0064500002190470695,-0.002589999930933118,0.3295400142669678
6605.555800294063,1287983.0,0.21796999871730804,-0.007899999618530273,-0.0016799999866634607,0.32532998919487
6605.556800066279,1287984.0,0.2266799956560135,-0.00839999970048666,-0.005489999894052744,0.32927000522613525
6605.557799838493,1287985.0,0.2366500049829483,-0.010579999536275864,-0.000539999979082495,0.32684001326560974
6605.558799610709,1287986.0,0.24375000596046448,-0.007860000245273113,-0.0019099999917671084,0.3313800096511841
6605.559799382924,1287987.0,0.2537199854850769,-0.0021800000686198473,0.00031999999191612005,0.3244200050830841
6605.56079915514,1287988.0,0.25641998648643494,-0.0007699999841861427,0.005489999894052744,0.3327000141143799
6605.561798927355,1287989.0,0.24334999918937683,0.003590000094845891,-0.0015399999683722854,0.3292199969291687
6605.56279869957,1287990.0,0.21809999644756317,0.0027199999894946814,0.0031799999997019768,0.3329800069332123
6605.563798471785,1287991.0,0.1900700032711029,0.003539999946951866,0.0024999999441206455,0.3284499943256378
6605.5647982440005,1287992.0,0.1639699935913086,0.0044999998062849045,-0.001500000013038516,0.3343000113964081
6605.565798016216,1287993.0,0.1429399996995926,0.00031999999191612005,0.0014100000262260437,0.3305499851703644
6605.566797788431,1287994.0,0.12471000105142593,0.0012700000079348683,-0.001230000052601099,0.3362700045108795
6605.567797560647,1287995.0,0.10668999701738358,-0.0002699999895412475,0.00031999999191612005,0.32190001010894775
6605.568797332861,1287996.0,0.08449999988079071,0.003220000071451068,0.000910000002477318,0.33664000034332275
6605.569797105077,1287997.0,0.05821999907493591,0.006949999835342169,-0.00044999999227002263,0.3325200080871582
6605.570796877292,1287998.0,0.03037000074982643,0.008310000412166119,0.0021299999207258224,0.33722999691963196
6605.571796649508,1287999.0,0.004540000110864639,0.003220000071451068,0.00018000000272877514,0.3355900049209595
6605.572796421723,1288000.0,-0.015809999778866768,0.004679999779909849,-0.002090000081807375,0.3347199857234955
6605.573796193938,1288001.0,-0.02928999997675419,0.00031999999191612005,-0.000859999970998615,0.33869999647140503
6605.574795966153,1288002.0,-0.0364300012588501,-0.004040000028908253,0.0002699999895412475,0.33535999059677124
6605.5757957383685,1288003.0,-0.03880999982357025,-0.0044999998062849045,0.002630000002682209,0.3367300033569336
6605.576795510584,1288004.0,-0.040699999779462814,-0.002950000111013651,0.0034099998883903027,0.3425399959087372
6605.577795282799,1288005.0,-0.038359999656677246,-0.0024500000290572643,0.002630000002682209,0.33809998631477356
6605.578795055015,1288006.0,-0.03109000064432621,-0.0022299999836832285,-0.0027699999045580626,0.34345999360084534
6605.579794827229,1288007.0,-0.021609999239444733,-0.0013200000394135714,0.003220000071451068,0.3284499943256378
6605.580794599445,1288008.0,-0.019770000129938126,0.0010400000028312206,0.0015899999998509884,0.34488001465797424
6605.58179437166,1288009.0,-0.019770000129938126,0.003220000071451068,-0.0018599999602884054,0.3295400142669678
6605.582794143876,1288010.0,-0.02191999927163124,0.005309999920427799,-0.002090000081807375,0.34345999360084534
6605.583793916091,1288011.0,-0.024390000849962234,0.007309999782592058,-0.002589999930933118,0.34560999274253845
6605.584793688306,1288012.0,-0.02848000079393387,0.003449999960139394,-0.0033199999015778303,0.3411700129508972
6605.585793460521,1288013.0,-0.031539998948574066,0.0018599999602884054,0.003949999809265137,0.34578999876976013
6605.586793232736,1288014.0,-0.03347000107169151,0.004860000219196081,0.00031999999191612005,0.3443300127983093
6605.587793004952,1288015.0,-0.03392000123858452,0.00031999999191612005,-0.0019499999471008778,0.345660001039505
6605.588792777167,1288016.0,-0.0370200015604496,0.007860000245273113,0.0010000000474974513,0.3469400107860565
6605.589792549383,1288017.0,-0.04438000172376633,0.008580000139772892,0.003220000071451068,0.3448300063610077
6605.590792321597,1288018.0,-0.05623999983072281,0.0072200000286102295,0.0012700000079348683,0.34950000047683716
6605.591792093813,1288019.0,-0.07034999877214432,0.006630000192672014,-0.0007699999841861427,0.34200000762939453
6605.592791866028,1288020.0,-0.08157999813556671,0.006130000110715628,-0.0033199999015778303,0.35065001249313354
6605.593791638244,1288021.0,-0.0865200012922287,-0.0019099999917671084,0.0035000001080334187,0.34836000204086304
6605.594791410459,1288022.0,-0.08337999880313873,-0.005489999894052744,-0.0027199999894946814,0.3510099947452545
6605.595791182674,1288023.0,-0.07474999874830246,-0.007809999864548445,0.00031999999191612005,0.3485899865627289
6605.596790954889,1288024.0,-0.06526999920606613,-0.00839999970048666,-0.0018599999602884054,0.3518800139427185
6605.597790727104,1288025.0,-0.0557899996638298,-0.007400000002235174,-0.002589999930933118,0.34821999073028564
6605.59879049932,1288026.0,-0.04726000130176544,-0.004129999782890081,-0.003000000026077032,0.3573800027370453
6605.599790271535,1288027.0,-0.039980001747608185,-0.002589999930933118,0.001230000052601099,0.3514299988746643
6605.60079004375,1288028.0,-0.03894999995827675,0.00031999999191612005,-0.0022299999836832285,0.3564099967479706
6605.601789815965,1288029.0,-0.04196000099182129,0.005040000192821026,-0.002090000081807375,0.35541000962257385
6605.602789588181,1288030.0,-0.04402000084519386,0.004310000222176313,-0.0014100000262260437,0.34821999073028564
6605.603789360396,1288031.0,-0.045820001512765884,0.003909999970346689,0.0011399999493733048,0.3605799973011017
6605.604789132612,1288032.0,-0.04941999912261963,0.0024999999441206455,-0.0030400000978261232,0.35468000173568726
6605.605788904826,1288033.0,-0.055080000311136246,0.003949999809265137,-0.003449999960139394,0.3623200058937073
6605.606788677042,1288034.0,-0.05903000012040138,0.00031999999191612005,0.003539999946951866,0.3561899960041046
6605.607788449257,1288035.0,-0.06015000119805336,0.001769999973475933,-0.0010000000474974513,0.35774001479148865
6605.608788221472,1288036.0,-0.06451000273227692,0.007540000136941671,-0.0020000000949949026,0.36136001348495483
6605.609787993688,1288037.0,-0.07034999877214432,0.009580000303685665,-0.0007699999841861427,0.34894999861717224
6605.610787765903,1288038.0,-0.07817000150680542,0.005090000107884407,0.00031999999191612005,0.36469998955726624
6605.611787538118,1288039.0,-0.087909996509552,0.0016299999551847577,0.0035000001080334187,0.3614000082015991
6605.612787310333,1288040.0,-0.09478999674320221,-0.001180000021122396,0.003590000094845891,0.3635999858379364
6605.613787082549,1288041.0,-0.09775000065565109,-0.0022299999836832285,0.004089999943971634,0.363970011472702
6605.614786854764,1288042.0,-0.0958700031042099,-0.0027199999894946814,-0.0018599999602884054,0.36103999614715576
6605.61578662698,1288043.0,-0.08769000321626663,-0.006990000139921904,0.001180000021122396,0.3686800003051758
6605.616786399194,1288044.0,-0.07601000368595123,-0.006810000166296959,0.006399999838322401,0.351610004901886
6605.6177861714095,1288045.0,-0.06289000064134598,-0.008080000057816505,0.0071299998089671135,0.3689599931240082
6605.618785943625,1288046.0,-0.05183999985456467,-0.0035000001080334187,0.003449999960139394,0.3657500147819519
6605.61978571584,1288047.0,-0.042500000447034836,-0.004999999888241291,0.0059899999760091305,0.36456000804901123
6605.620785488056,1288048.0,-0.03844999894499779,0.00418000016361475,0.0030900000128895044,0.3683600127696991
6605.621785260271,1288049.0,-0.038270000368356705,0.0031799999997019768,-0.0052200001664459705,0.36671000719070435
6605.622785032486,1288050.0,-0.04042999818921089,4.999999873689376e-05,0.001769999973475933,0.37029001116752625
6605.623784804701,1288051.0,-0.04340000078082085,0.002859999891370535,-0.0017300000181421638,0.3628700077533722
6605.624784576917,1288052.0,-0.045099999755620956,0.0022299999836832285,-0.008129999972879887,0.3744499981403351
6605.625784349132,1288053.0,-0.04416000097990036,-0.0010900000343099236,0.00031999999191612005,0.35774001479148865
6605.626784121348,1288054.0,-0.041999999433755875,0.002409999957308173,-0.003000000026077032,0.37307998538017273
6605.627783893562,1288055.0,-0.0413299985229969,0.003220000071451068,-0.0016299999551847577,0.36945998668670654
6605.6287836657775,1288056.0,-0.045099999755620956,0.002950000111013651,-0.0015399999683722854,0.37174999713897705
6605.629783437993,1288057.0,-0.052650000900030136,0.005590000189840794,-0.005179999861866236,0.37476998567581177
6605.630783210208,1288058.0,-0.06379000097513199,0.00749000022187829,-0.000590000010561198,0.37106001377105713
6605.631782982424,1288059.0,-0.0743900015950203,0.005489999894052744,-0.005489999894052744,0.3787499964237213
6605.632782754639,1288060.0,-0.08027999848127365,0.002859999891370535,0.00031999999191612005,0.3686800003051758
6605.633782526854,1288061.0,-0.07977999746799469,0.0021299999207258224,-0.0036800000816583633,0.3773300051689148
6605.634782299069,1288062.0,-0.07556000351905823,0.0002300000051036477,-0.0019099999917671084,0.37349000573158264
6605.635782071285,1288063.0,-0.06594999879598618,-0.004129999782890081,0.0002300000051036477,0.3771499991416931
6605.6367818435,1288064.0,-0.05138999968767166,-0.014030000194907188,-0.0022700000554323196,0.3753199875354767
6605.6377816157155,1288065.0,-0.034860000014305115,-0.003909999970346689,0.0030400000978261232,0.3760499954223633
6605.63878138793,1288066.0,-0.02092999964952469,-0.006949999835342169,-0.002409999957308173,0.3811799883842468
6605.6397811601455,1288067.0,-0.013120000250637531,-0.005950000137090683,0.00014000000373926014,0.3658899962902069
6605.640780932361,1288068.0,-0.008630000054836273,0.0007300000288523734,0.00014000000373926014,0.3804900050163269
6605.641780704576,1288069.0,-0.006200000178068876,0.0030400000978261232,-0.000539999979082495,0.3771499991416931
6605.642780476792,1288070.0,-0.003590000094845891,-0.0010000000474974513,-0.0029100000392645597,0.3807699978351593
6605.643780249007,1288071.0,-0.003590000094845891,0.0027199999894946814,-0.007860000245273113,0.3800800144672394
6605.644780021222,1288072.0,-0.007459999993443489,0.0045900000259280205,0.0010400000028312206,0.382099986076355
6605.645779793437,1288073.0,-0.011140000075101852,0.0010400000028312206,0.0014100000262260437,0.3764199912548065
6605.646779565653,1288074.0,-0.012040000408887863,0.0037700000684708357,-0.0019099999917671084,0.38631001114845276
6605.647779337868,1288075.0,-0.011140000075101852,-0.003719999920576811,0.003220000071451068,0.3680900037288666
6605.6487791100835,1288076.0,-0.015449999831616879,0.006130000110715628,0.005539999809116125,0.38405999541282654
6605.649778882298,1288077.0,-0.023719999939203262,0.001769999973475933,0.006630000192672014,0.3844299912452698
6605.6507786545135,1288078.0,-0.036660000681877136,0.009580000303685665,0.004449999891221523,0.37450000643730164
6605.651778426729,1288079.0,-0.051569998264312744,0.0021299999207258224,0.01257999986410141,0.3885999917984009
6605.652778198944,1288080.0,-0.06589999794960022,0.004000000189989805,0.0071299998089671135,0.3839699923992157
6605.65377797116,1288081.0,-0.0752900019288063,-0.002630000002682209,0.0036299999337643385,0.3839699923992157
6605.654777743375,1288082.0,-0.07704000174999237,-0.0024500000290572643,0.0020000000949949026,0.38703998923301697
6605.65577751559,1288083.0,-0.06917999684810638,-0.0013599999947473407,0.000859999970998615,0.38433998823165894
6605.656777287805,1288084.0,-0.05480999872088432,-0.006089999806135893,-0.000859999970998615,0.38666999340057373
6605.657777060021,1288085.0,-0.04114999994635582,-0.002319999970495701,-0.0012700000079348683,0.38850000500679016
6605.658776832236,1288086.0,-0.031039999797940254,-0.000910000002477318,-0.0062699997797608376,0.3855699896812439
6605.6597766044515,1288087.0,-0.02493000030517578,0.0002699999895412475,-0.007670000195503235,0.393449991941452
6605.660776376666,1288088.0,-0.02273000031709671,-0.000590000010561198,-0.007670000195503235,0.3786199986934662
6605.6617761488815,1288089.0,-0.02314000017940998,0.0021299999207258224,-0.0072200000286102295,0.3928999900817871
6605.662775921097,1288090.0,-0.02606000006198883,0.0016799999866634607,0.0014100000262260437,0.3821899890899658
6605.663775693312,1288091.0,-0.028929999098181725,0.0024999999441206455,-0.0036800000816583633,0.39166000485420227
6605.664775465528,1288092.0,-0.02978000044822693,0.003590000094845891,0.00031999999191612005,0.3881399929523468
6605.665775237742,1288093.0,-0.029020000249147415,0.0022700000554323196,-0.0011399999493733048,0.39239999651908875
6605.666775009958,1288094.0,-0.028440000489354134,-0.0006799999973736703,-0.0027699999045580626,0.39107000827789307
6605.667774782173,1288095.0,-0.02622999995946884,-0.0013200000394135714,0.00018000000272877514,0.3898800015449524
6605.668774554389,1288096.0,-0.026149999350309372,0.004449999891221523,0.0010900000343099236,0.393310010433197
6605.669774326604,1288097.0,-0.03139999881386757,0.004360000137239695,0.00535999983549118,0.3911600112915039
6605.670774098819,1288098.0,-0.04016000032424927,0.006039999891072512,0.0014100000262260437,0.3935900032520294
6605.671773871034,1288099.0,-0.049059998244047165,0.004629999864846468,-0.00014000000373926014,0.3928999900817871
6605.6727736432495,1288100.0,-0.05274000018835068,-0.0007699999841861427,0.003590000094845891,0.3928999900817871
6605.673773415465,1288101.0,-0.05112000182271004,-0.0007300000288523734,0.00203999993391335,0.3965100049972534
6605.67477318768,1288102.0,-0.0471699982881546,-0.005489999894052744,-0.004040000028908253,0.3936299979686737
6605.675772959896,1288103.0,-0.037379998713731766,-0.007180000189691782,0.0006799999973736703,0.3966499865055084
6605.67677273211,1288104.0,-0.025520000606775284,-0.007860000245273113,-0.0022299999836832285,0.39875999093055725
6605.677772504326,1288105.0,-0.011950000189244747,-0.0006799999973736703,-4.999999873689376e-05,0.3943600058555603
6605.678772276541,1288106.0,0.0,-0.0045900000259280205,-0.0022299999836832285,0.4021899998188019
6605.679772048757,1288107.0,0.007369999773800373,-0.0015399999683722854,0.0014100000262260437,0.3963800072669983
6605.680771820972,1288108.0,0.010649999603629112,0.001769999973475933,0.0014100000262260437,0.39688000082969666
6605.681771593187,1288109.0,0.012439999729394913,0.005040000192821026,-0.000539999979082495,0.40310999751091003
6605.682771365402,1288110.0,0.011140000075101852,0.002090000081807375,0.004040000028908253,0.39574000239372253
6605.683771137617,1288111.0,0.009700000286102295,0.004410000052303076,-0.002589999930933118,0.40369999408721924
6605.684770909833,1288112.0,0.008449999615550041,0.001769999973475933,0.00418000016361475,0.3858500123023987
6605.685770682048,1288113.0,0.003949999809265137,0.003590000094845891,-0.0008200000156648457,0.4020099937915802
6605.686770454264,1288114.0,-0.0034099998883903027,0.00267999991774559,0.0018599999602884054,0.40004000067710876
6605.687770226478,1288115.0,-0.010379999876022339,0.00018000000272877514,-0.004999999888241291,0.39875999093055725
6605.688769998694,1288116.0,-0.01671000011265278,0.006490000057965517,0.00031999999191612005,0.4060800075531006
6605.689769770909,1288117.0,-0.02928999997675419,0.010579999536275864,-0.0019099999917671084,0.38776999711990356
6605.690769543125,1288118.0,-0.04636000096797943,0.005770000163465738,0.0021299999207258224,0.40323999524116516
6605.69176931534,1288119.0,-0.06114000082015991,0.0019499999471008778,-0.0027699999045580626,0.4020499885082245
6605.692769087555,1288120.0,-0.0689999982714653,0.0014100000262260437,0.004809999838471413,0.3999499976634979
6605.69376885977,1288121.0,-0.06936000287532806,-0.0036800000816583633,-0.00418000016361475,0.405349999666214
6605.694768631985,1288122.0,-0.06387999653816223,-0.0002699999895412475,-0.0013200000394135714,0.4014599919319153
6605.695768404201,1288123.0,-0.050939999520778656,-0.00494999997317791,-0.0006399999838322401,0.40296998620033264
6605.696768176416,1288124.0,-0.03387000039219856,-0.00839999970048666,-0.006039999891072512,0.4031499922275543
6605.697767948632,1288125.0,-0.0175199992954731,-0.004040000028908253,-0.0036299999337643385,0.40411001443862915
6605.698767720846,1288126.0,-0.0035000001080334187,-0.006089999806135893,-0.0033599999733269215,0.40279000997543335
6605.699767493062,1288127.0,0.006870000157505274,-0.0037700000684708357,-0.002950000111013651,0.4072299897670746
6605.700767265277,1288128.0,0.009569999761879444,-0.000590000010561198,-0.0007300000288523734,0.391620010137558
6605.701767037493,1288129.0,0.008980000391602516,-0.0015399999683722854,0.0021299999207258224,0.4093799889087677
6605.702766809708,1288130.0,0.006829999852925539,0.006039999891072512,-0.001230000052601099,0.40351998805999756
6605.7037665819225,1288131.0,0.005929999984800816,-0.0006799999973736703,-0.002859999891370535,0.4085099995136261
6605.704766354138,1288132.0,0.004490000195801258,0.0033199999015778303,0.0006399999838322401,0.40334001183509827
6605.705766126353,1288133.0,0.0015300000086426735,0.004679999779909849,-0.0036800000816583633,0.4109799861907959
6605.706765898569,1288134.0,-0.0017999999690800905,0.0013200000394135714,9.000000136438757e-05,0.39542001485824585
6605.707765670784,1288135.0,-0.003819999983534217,0.00267999991774559,0.004310000222176313,0.40874001383781433
6605.708765443,1288136.0,-0.007369999773800373,0.003220000071451068,0.00795000046491623,0.40700000524520874
6605.709765215214,1288137.0,-0.014019999653100967,0.008630000054836273,0.004720000084489584,0.40498000383377075
6605.71076498743,1288138.0,-0.024080000817775726,0.003220000071451068,0.006490000057965517,0.41089001297950745
6605.711764759645,1288139.0,-0.03508000075817108,0.0037700000684708357,0.005489999894052744,0.40630999207496643
6605.712764531861,1288140.0,-0.04407000169157982,0.0016299999551847577,0.00031999999191612005,0.40755000710487366
6605.713764304076,1288141.0,-0.04761999845504761,0.0024999999441206455,0.003590000094845891,0.41047999262809753
6605.7147640762905,1288142.0,-0.04447000101208687,-0.005489999894052744,-0.006949999835342169,0.4056200087070465
6605.715763848506,1288143.0,-0.035259999334812164,-0.00880999956279993,-0.00014000000373926014,0.4122200012207031
6605.716763620721,1288144.0,-0.022280000150203705,-0.005489999894052744,-0.006719999946653843,0.40612998604774475
6605.717763392937,1288145.0,-0.00872000027447939,-0.0019099999917671084,-0.002090000081807375,0.4119400084018707
6605.718763165152,1288146.0,0.0034099998883903027,-0.0062699997797608376,0.003220000071451068,0.40740999579429626
6605.719762937368,1288147.0,0.013340000063180923,-0.0059899999760091305,0.0010400000028312206,0.40790998935699463
6605.720762709582,1288148.0,0.020659999921917915,-0.004220000002533197,0.0024999999441206455,0.41335999965667725
6605.721762481798,1288149.0,0.024529999122023582,-0.0021800000686198473,0.0009500000160187483,0.3946399986743927
6605.722762254013,1288150.0,0.02745000086724758,-0.0034099998883903027,0.006949999835342169,0.41047999262809753
6605.7237620262285,1288151.0,0.027720000594854355,0.0045900000259280205,-0.003269999986514449,0.40755000710487366
6605.724761798444,1288152.0,0.02515999972820282,0.004679999779909849,-0.0018599999602884054,0.40845999121665955
6605.7257615706585,1288153.0,0.02022000029683113,0.0010400000028312206,-0.00686000008136034,0.41367998719215393
6605.726761342874,1288154.0,0.021199999377131462,0.0033599999733269215,-0.000590000010561198,0.4073599874973297
6605.727761115089,1288155.0,0.022280000150203705,0.006130000110715628,-0.00014000000373926014,0.4146000146865845
6605.728760887305,1288156.0,0.01689000055193901,0.0024500000290572643,-0.004769999999552965,0.39487001299858093
6605.72976065952,1288157.0,0.0015300000086426735,0.005770000163465738,-0.0009500000160187483,0.41321998834609985
6605.730760431735,1288158.0,-0.0147299999371171,0.008489999920129776,-0.004129999782890081,0.4065900146961212
6605.73176020395,1288159.0,-0.025699999183416367,0.006039999891072512,-0.0031300000846385956,0.41102999448776245
6605.732759976166,1288160.0,-0.032519999891519547,0.00031999999191612005,-0.0024999999441206455,0.40845999121665955
6605.733759748381,1288161.0,-0.036660000681877136,-0.00041000000783242285,-0.009449999779462814,0.40874001383781433
6605.7347595205965,1288162.0,-0.035349998623132706,0.0011399999493733048,0.0007300000288523734,0.41376999020576477
6605.735759292811,1288163.0,-0.0301900003105402,-0.008129999972879887,-0.006310000084340572,0.3950999975204468
6605.7367590650265,1288164.0,-0.021970000118017197,-0.006680000107735395,-0.0006399999838322401,0.41277000308036804
6605.737758837242,1288165.0,-0.012489999644458294,-0.001180000021122396,0.0002699999895412475,0.40022000670433044
6605.738758609457,1288166.0,-0.005169999785721302,-0.0052200001664459705,-0.0022299999836832285,0.41161999106407166
6605.739758381673,1288167.0,0.0007200000109151006,-0.0011399999493733048,0.003949999809265137,0.40827998518943787
6605.740758153888,1288168.0,0.004809999838471413,0.002589999930933118,0.00031999999191612005,0.4083299934864044
6605.741757926103,1288169.0,0.008799999952316284,4.999999873689376e-05,0.005270000081509352,0.41266998648643494
6605.742757698318,1288170.0,0.009700000286102295,0.003220000071451068,0.004269999917596579,0.39454999566078186
6605.743757470534,1288171.0,0.0069599999114871025,0.003949999809265137,0.003949999809265137,0.41317999362945557
6605.744757242749,1288172.0,0.003949999809265137,0.0010400000028312206,-0.00041000000783242285,0.4056200087070465
6605.7457570149645,1288173.0,0.0014799999771639705,-0.002589999930933118,-0.003949999809265137,0.41043001413345337
6605.746756787179,1288174.0,0.0029200001154094934,-0.0015399999683722854,0.006089999806135893,0.4071800112724304
6605.7477565593945,1288175.0,0.0048500001430511475,0.00014000000373926014,-0.005630000028759241,0.4083299934864044
6605.74875633161,1288176.0,0.0015699999639764428,0.0059899999760091305,0.0013200000394135714,0.4105699956417084
6605.749756103825,1288177.0,-0.008980000391602516,0.005770000163465738,-0.0008200000156648457,0.4052099883556366
6605.750755876041,1288178.0,-0.023989999666810036,0.006130000110715628,-0.0007300000288523734,0.4099299907684326
6605.751755648256,1288179.0,-0.04052000120282173,0.004900000058114529,-0.001449999981559813,0.4090999960899353
6605.752755420471,1288180.0,-0.05076000094413757,0.003220000071451068,0.004679999779909849,0.4074600040912628
6605.753755192686,1288181.0,-0.05364000052213669,-0.0005000000237487257,-0.0013200000394135714,0.40529999136924744
6605.754754964902,1288182.0,-0.0510299988090992,-0.004089999943971634,0.008489999920129776,0.4121699929237366
6605.755754737117,1288183.0,-0.040070001035928726,-0.004679999779909849,-0.0015899999998509884,0.3928999900817871
6605.7567545093325,1288184.0,-0.023989999666810036,-0.00949000008404255,0.003590000094845891,0.41130000352859497
6605.757754281547,1288185.0,-0.008449999615550041,-0.001820000004954636,-0.0011399999493733048,0.4030599892139435
6605.7587540537625,1288186.0,0.005210000090301037,-0.0002699999895412475,-0.003220000071451068,0.40988001227378845
6605.759753825978,1288187.0,0.017160000279545784,-0.0015399999683722854,-0.0011399999493733048,0.3934899866580963
6605.760753598193,1288188.0,0.023310000076889992,0.0021299999207258224,-0.0009500000160187483,0.4086900055408478
6605.761753370409,1288189.0,0.027489999309182167,0.001769999973475933,-0.004679999779909849,0.4079599976539612
6605.762753142624,1288190.0,0.028209999203681946,0.0044999998062849045,-0.004860000219196081,0.4041599929332733
6605.763752914839,1288191.0,0.0276699997484684,0.0018599999602884054,-0.0036800000816583633,0.4086500108242035
6605.764752687054,1288192.0,0.024800000712275505,0.003909999970346689,-0.0017300000181421638,0.39111000299453735
6605.76575245927,1288193.0,0.020169999450445175,0.00203999993391335,0.0016799999866634607,0.41047999262809753
6605.766752231485,1288194.0,0.01779000088572502,-0.0005000000237487257,0.0010400000028312206,0.3934899866580963
6605.7677520037005,1288195.0,0.01769999973475933,0.005770000163465738,-0.0030900000128895044,0.40961000323295593
6605.768751775915,1288196.0,0.014059999957680702,0.0018599999602884054,0.0031300000846385956,0.40334001183509827
6605.76975154813,1288197.0,0.004310000222176313,0.00880999956279993,0.0027199999894946814,0.40279000997543335
6605.770751320346,1288198.0,-0.007189999800175428,0.003590000094845891,0.0002699999895412475,0.4068099856376648
6605.771751092561,1288199.0,-0.019950000569224358,0.003449999960139394,0.00031999999191612005,0.39487001299858093
6605.772750864777,1288200.0,-0.02928999997675419,-0.0007699999841861427,-0.001820000004954636,0.4082300066947937
6605.773750636992,1288201.0,-0.035760000348091125,-0.0011399999493733048,0.003220000071451068,0.4014599919319153
6605.774750409207,1288202.0,-0.033959999680519104,-0.004449999891221523,-0.002589999930933118,0.4029200077056885
6605.775750181422,1288203.0,-0.022690000012516975,-0.0036299999337643385,-0.0027699999045580626,0.4040699899196625
6605.776749953638,1288204.0,-0.006560000125318766,-0.006089999806135893,-0.0014100000262260437,0.3969300091266632
6605.777749725853,1288205.0,0.010239999741315842,-0.004769999999552965,0.0011399999493733048,0.40672001242637634
6605.7787494980685,1288206.0,0.02606000006198883,-0.006579999811947346,-0.0010900000343099236,0.4001300036907196
6605.779749270283,1288207.0,0.03612000122666359,0.00018000000272877514,0.0014100000262260437,0.39875999093055725
6605.780749042498,1288208.0,0.0393499992787838,-0.00041000000783242285,0.0013200000394135714,0.40369999408721924
6605.781748814714,1288209.0,0.04383999854326248,0.0016299999551847577,-0.003590000094845891,0.3937700092792511
6605.782748586929,1288210.0,0.044199999421834946,0.00535999983549118,-0.0016799999866634607,0.4046199917793274
6605.783748359145,1288211.0,0.043129999190568924,0.0019099999917671084,0.002630000002682209,0.398389995098114
6605.78474813136,1288212.0,0.04097000136971474,0.00880999956279993,0.004220000002533197,0.39774999022483826
6605.785747903575,1288213.0,0.03943999856710434,0.00031999999191612005,0.00031999999191612005,0.40035998821258545
6605.78674767579,1288214.0,0.03953000158071518,0.00031999999191612005,0.0031799999997019768,0.39559999108314514
6605.787747448006,1288215.0,0.040699999779462814,-0.002630000002682209,0.008489999920129776,0.40237000584602356
6605.788747220221,1288216.0,0.03558000177145004,0.0024999999441206455,0.005950000137090683,0.3961000144481659
6605.789746992436,1288217.0,0.019859999418258667,0.004449999891221523,-0.004629999864846468,0.40296998620033264
6605.790746764651,1288218.0,-0.0011699999449774623,0.003590000094845891,-0.002589999930933118,0.38822999596595764
6605.791746536866,1288219.0,-0.01779000088572502,0.005400000140070915,-0.00267999991774559,0.39792999625205994
6605.792746309082,1288220.0,-0.02622999995946884,0.003220000071451068,-0.0002699999895412475,0.3961000144481659
6605.793746081297,1288221.0,-0.03136000037193298,-0.002589999930933118,-0.003539999946951866,0.39427000284194946
6605.794745853513,1288222.0,-0.03319999948143959,-9.000000136438757e-05,-0.005489999894052744,0.39976999163627625
6605.795745625727,1288223.0,-0.027310000732541084,-0.0022700000554323196,-0.003449999960139394,0.38960000872612
6605.796745397943,1288224.0,-0.015720000490546227,-0.005489999894052744,-0.005539999809116125,0.39473000168800354
6605.797745170158,1288225.0,-0.0004900000058114529,-0.0072200000286102295,0.005770000163465738,0.394679993391037
6605.798744942374,1288226.0,0.013570000417530537,-0.0062699997797608376,-4.999999873689376e-05,0.3907899856567383
6605.799744714589,1288227.0,0.02676999941468239,0.00031999999191612005,0.007809999864548445,0.3972899913787842
6605.8007444868035,1288228.0,0.03449999913573265,0.001230000052601099,0.0037700000684708357,0.3786199986934662
6605.801744259019,1288229.0,0.03711000084877014,0.0014100000262260437,0.006399999838322401,0.39403998851776123
6605.802744031234,1288230.0,0.03522000089287758,0.003220000071451068,0.00203999993391335,0.38776999711990356
6605.80374380345,1288231.0,0.03181000053882599,9.000000136438757e-05,-0.0036800000816583633,0.38850000500679016
6605.804743575665,1288232.0,0.027310000732541084,-0.001180000021122396,0.00031999999191612005,0.393310010433197
6605.805743347881,1288233.0,0.023719999939203262,-0.0006399999838322401,-0.00203999993391335,0.38690000772476196
6605.806743120095,1288234.0,0.019899999722838402,0.0016799999866634607,-0.004089999943971634,0.3928999900817871
6605.807742892311,1288235.0,0.018149999901652336,-0.0031799999997019768,-0.004540000110864639,0.37766000628471375
6605.808742664526,1288236.0,0.014109999872744083,0.0024500000290572643,-0.005679999943822622,0.39034000039100647
6605.8097424367415,1288237.0,0.00418000016361475,0.007770000025629997,0.002859999891370535,0.3780199885368347
6605.810742208957,1288238.0,-0.007280000019818544,0.004679999779909849,0.0024999999441206455,0.38762998580932617
6605.8117419811715,1288239.0,-0.0185100007802248,-0.00018000000272877514,0.00267999991774559,0.3833799958229065
6605.812741753387,1288240.0,-0.02606000006198883,0.0027699999045580626,0.006130000110715628,0.38543999195098877
6605.813741525602,1288241.0,-0.027580000460147858,0.0015399999683722854,0.00031999999191612005,0.3718400001525879
6605.814741297818,1288242.0,-0.0243500005453825,-0.001230000052601099,-0.002360000042244792,0.38631001114845276
6605.815741070033,1288243.0,-0.016130000352859497,-0.006949999835342169,-0.0012700000079348683,0.38300999999046326
6605.816740842249,1288244.0,-0.004040000028908253,-0.0012700000079348683,0.0031300000846385956,0.3703800141811371
6605.817740614463,1288245.0,0.007189999800175428,-0.007040000054985285,0.0021299999207258224,0.3836100101470947
6605.818740386679,1288246.0,0.018060000613331795,-0.0020000000949949026,-0.0018599999602884054,0.380950003862381
