LSL_Time,PLUX_P2_nSeq,PLUX_P2_ECG0,PLUX_P2_EMG1,PLUX_P2_EMG2,PLUX_P2_RIP3
6970.222961779707,1653884.0,-0.0030499999411404133,0.004629999864846468,0.003909999970346689,12.607000350952148
6970.223961551629,1653885.0,-0.0037700000684708357,0.009630000218749046,-0.004809999838471413,12.543000221252441
6970.224961323553,1653886.0,-0.0014400000218302011,0.01334999967366457,-0.014349999837577343,12.5600004196167
6970.225961095475,1653887.0,-0.0007200000109151006,0.01720999926328659,-0.008080000057816505,12.5
6970.226960867398,1653888.0,-0.000539999979082495,0.007809999864548445,-0.012900000438094139,12.531000137329102
6970.22796063932,1653889.0,0.0020699999295175076,-0.0027199999894946814,-0.009630000218749046,12.652999877929688
6970.228960411243,1653890.0,0.004579999949783087,0.0036299999337643385,-0.006180000025779009,12.52400016784668
6970.2299601831655,1653891.0,0.006020000204443932,0.03723999857902527,-0.00875999964773655,12.555000305175781
6970.230959955089,1653892.0,0.008089999668300152,0.0228899996727705,-0.007899999618530273,12.555000305175781
6970.231959727012,1653893.0,0.008449999615550041,0.009359999559819698,-0.0019499999471008778,12.555000305175781
6970.232959498934,1653894.0,0.009519999846816063,-0.007540000136941671,0.0013200000394135714,12.604000091552734
6970.233959270857,1653895.0,0.009159999899566174,-0.015350000001490116,0.0027199999894946814,12.704000473022461
6970.23495904278,1653896.0,0.007369999773800373,-0.01979999989271164,0.01181000005453825,12.592000007629395
6970.235958814703,1653897.0,0.00646999990567565,-0.03061000071465969,0.015799999237060547,12.592000007629395
6970.236958586625,1653898.0,0.006020000204443932,-0.027249999344348907,0.00872000027447939,12.73799991607666
6970.237958358548,1653899.0,0.005030000116676092,-0.03269999846816063,0.0019099999917671084,12.708000183105469
6970.238958130471,1653900.0,0.0071000000461936,-0.022520000115036964,-0.006630000192672014,12.640000343322754
6970.239957902393,1653901.0,0.009340000338852406,-0.016529999673366547,-0.0007300000288523734,12.310999870300293
6970.240957674317,1653902.0,0.009340000338852406,-0.005900000222027302,-0.004629999864846468,12.732000350952148
6970.241957446239,1653903.0,0.00773000018671155,0.002360000042244792,-0.004809999838471413,12.543000221252441
6970.242957218162,1653904.0,0.008089999668300152,0.022749999538064003,-0.020349999889731407,12.708000183105469
6970.243956990084,1653905.0,0.008799999952316284,0.017260000109672546,-0.01689000055193901,12.652999877929688
6970.244956762007,1653906.0,0.009340000338852406,0.008899999782443047,-0.013260000385344028,12.592000007629395
6970.24595653393,1653907.0,0.009789999574422836,0.0019099999917671084,-0.0033599999733269215,12.567000389099121
6970.246956305853,1653908.0,0.010060000233352184,0.01217000000178814,-0.00989999994635582,12.517999649047852
6970.247956077776,1653909.0,0.010689999908208847,0.006719999946653843,0.0003600000054575503,12.76200008392334
6970.248955849698,1653910.0,0.01095999963581562,0.013530000112950802,0.007180000189691782,12.322999954223633
6970.249955621621,1653911.0,0.011049999855458736,-0.001449999981559813,0.0021299999207258224,12.642999649047852
6970.250955393543,1653912.0,0.010329999960958958,0.0062699997797608376,0.001820000004954636,12.60099983215332
6970.251955165467,1653913.0,0.01095999963581562,9.000000136438757e-05,0.003220000071451068,12.786999702453613
6970.252954937389,1653914.0,0.010689999908208847,-0.013399999588727951,0.0025400000158697367,12.579000473022461
6970.253954709312,1653915.0,0.011099999770522118,-0.007720000110566616,-0.0015399999683722854,12.569999694824219
6970.254954481235,1653916.0,0.014019999653100967,-0.00041000000783242285,0.006719999946653843,12.628000259399414
6970.255954253157,1653917.0,0.01779000088572502,0.01107999961823225,0.009259999729692936,12.604000091552734
6970.256954025081,1653918.0,0.020349999889731407,-0.009990000165998936,0.005270000081509352,12.604000091552734
6970.257953797003,1653919.0,0.023000000044703484,-0.017260000109672546,0.0007699999841861427,12.659000396728516
6970.258953568926,1653920.0,0.02353999949991703,-0.015990000218153,0.0016299999551847577,12.729999542236328
6970.259953340848,1653921.0,0.022690000012516975,-0.009990000165998936,-0.008170000277459621,12.609999656677246
6970.260953112771,1653922.0,0.0218299999833107,-0.003539999946951866,-0.008539999835193157,12.75
6970.2619528846935,1653923.0,0.021560000255703926,0.0003600000054575503,0.0017300000181421638,12.807999610900879
6970.262952656617,1653924.0,0.019589999690651894,0.008990000002086163,0.00535999983549118,12.744000434875488
6970.26395242854,1653925.0,0.01730000041425228,-0.0019099999917671084,-0.002360000042244792,12.63700008392334
6970.264952200462,1653926.0,0.015410000458359718,-0.0003600000054575503,-0.00880999956279993,12.677000045776367
6970.265951972385,1653927.0,0.01348000019788742,-0.004720000084489584,-0.00018000000272877514,12.616000175476074
6970.266951744308,1653928.0,0.010379999876022339,0.003909999970346689,0.000910000002477318,12.579000473022461
6970.267951516231,1653929.0,0.009159999899566174,0.006219999864697456,-4.999999873689376e-05,12.517999649047852
6970.268951288153,1653930.0,0.009340000338852406,0.001820000004954636,0.003269999986514449,12.375
6970.269951060076,1653931.0,0.01095999963581562,0.009259999729692936,0.007079999893903732,12.668000221252441
6970.270950831999,1653932.0,0.012620000168681145,0.005270000081509352,-0.005539999809116125,12.781000137329102
6970.271950603921,1653933.0,0.01384000014513731,0.005630000028759241,-0.001449999981559813,12.302000045776367
6970.272950375845,1653934.0,0.014960000291466713,0.017349999397993088,-0.005539999809116125,12.668000221252441
6970.273950147767,1653935.0,0.015990000218153,0.02751999907195568,-0.0025400000158697367,12.62399959564209
6970.27494991969,1653936.0,0.016130000352859497,0.015890000388026237,-0.007449999917298555,12.701000213623047
6970.275949691612,1653937.0,0.01607999950647354,-0.007899999618530273,0.00795000046491623,12.36299991607666
6970.276949463535,1653938.0,0.016529999673366547,-0.015080000273883343,-0.0022700000554323196,12.836999893188477
6970.277949235458,1653939.0,0.017160000279545784,-0.021619999781250954,-0.0021800000686198473,12.680000305175781
6970.278949007381,1653940.0,0.01779000088572502,-0.02816000021994114,0.003909999970346689,12.63700008392334
6970.279948779304,1653941.0,0.01689000055193901,-0.03759999945759773,0.010990000329911709,12.668000221252441
6970.280948551226,1653942.0,0.016170000657439232,-0.018710000440478325,0.0044999998062849045,12.845000267028809
6970.281948323149,1653943.0,0.014379999600350857,0.007360000163316727,0.009809999726712704,12.652999877929688
6970.282948095071,1653944.0,0.013120000250637531,0.010490000247955322,0.011989999562501907,12.579000473022461
6970.283947866995,1653945.0,0.011680000461637974,0.007449999917298555,0.0013599999947473407,12.692000389099121
6970.284947638917,1653946.0,0.009340000338852406,0.0016799999866634607,-0.004720000084489584,12.692000389099121
6970.28594741084,1653947.0,0.0088900001719594,0.005270000081509352,-0.010350000113248825,12.73799991607666
6970.286947182763,1653948.0,0.009519999846816063,0.007079999893903732,-0.009630000218749046,12.741000175476074
6970.287946954686,1653949.0,0.009159999899566174,0.021980000659823418,-0.0076299998909235,12.741000175476074
6970.288946726609,1653950.0,0.009700000286102295,0.04532000049948692,-0.003949999809265137,12.701000213623047
6970.289946498531,1653951.0,0.010599999688565731,0.022430000826716423,0.0002300000051036477,12.789999961853027
6970.290946270454,1653952.0,0.012400000356137753,-0.005179999861866236,-0.0010000000474974513,12.836000442504883
6970.291946042376,1653953.0,0.013969999738037586,-0.02597999945282936,-0.003590000094845891,12.880999565124512
6970.292945814299,1653954.0,0.014019999653100967,-0.040869999676942825,-0.007540000136941671,12.548999786376953
6970.293945586222,1653955.0,0.014290000312030315,-0.04287000000476837,-0.003000000026077032,12.890999794006348
6970.294945358145,1653956.0,0.015049999579787254,-0.029430000111460686,0.0025400000158697367,12.70300006866455
6970.295945130068,1653957.0,0.014999999664723873,-0.014800000004470348,-0.001500000013038516,12.83899974822998
6970.29694490199,1653958.0,0.015629999339580536,0.0028200000524520874,-0.004720000084489584,12.753000259399414
6970.297944673913,1653959.0,0.015809999778866768,0.008449999615550041,-0.007809999864548445,12.708000183105469
6970.298944445836,1653960.0,0.017430000007152557,0.012310000136494637,-0.003000000026077032,12.75
6970.299944217759,1653961.0,0.01860000006854534,0.0010900000343099236,-0.008539999835193157,12.72599983215332
6970.300943989681,1653962.0,0.019139999523758888,0.021069999784231186,-0.000910000002477318,12.706000328063965
6970.301943761604,1653963.0,0.021560000255703926,0.012900000438094139,-0.010350000113248825,12.45300006866455
6970.302943533527,1653964.0,0.02443999983370304,0.004269999917596579,-0.0059899999760091305,12.786999702453613
6970.303943305449,1653965.0,0.026639999821782112,0.010850000195205212,0.004269999917596579,12.777999877929688
6970.304943077373,1653966.0,0.027489999309182167,-0.0076299998909235,0.012529999949038029,12.869000434875488
6970.305942849295,1653967.0,0.028929999098181725,-0.005489999894052744,0.0017300000181421638,12.743000030517578
6970.306942621218,1653968.0,0.027489999309182167,-0.006130000110715628,-0.0019099999917671084,12.765999794006348
6970.30794239314,1653969.0,0.024480000138282776,-0.0006799999973736703,-9.000000136438757e-05,12.708000183105469
6970.308942165063,1653970.0,0.023360000923275948,0.0010000000474974513,0.000539999979082495,12.755999565124512
6970.309941936986,1653971.0,0.025340000167489052,-0.0030900000128895044,-0.0062699997797608376,12.876999855041504
6970.310941708909,1653972.0,0.027489999309182167,0.0003600000054575503,-0.00872000027447939,12.71399974822998
6970.311941480832,1653973.0,0.028929999098181725,0.0003600000054575503,0.0003600000054575503,12.732000350952148
6970.312941252754,1653974.0,0.027489999309182167,0.0028200000524520874,0.0020000000949949026,12.805000305175781
6970.313941024677,1653975.0,0.0243500005453825,0.0031799999997019768,-0.006990000139921904,12.857000350952148
6970.314940796599,1653976.0,0.024620000272989273,-0.00018000000272877514,-0.0063599999994039536,12.930000305175781
6970.315940568523,1653977.0,0.026149999350309372,-0.001820000004954636,-0.000910000002477318,12.894000053405762
6970.316940340445,1653978.0,0.02676999941468239,0.0015399999683722854,0.011629999615252018,12.73799991607666
6970.317940112368,1653979.0,0.027489999309182167,-0.00014000000373926014,0.013260000385344028,12.621999740600586
6970.318939884291,1653980.0,0.02785000018775463,-0.0016299999551847577,-0.004900000058114529,12.854000091552734
6970.319939656214,1653981.0,0.028750000521540642,0.0029100000392645597,-0.016979999840259552,12.949000358581543
6970.320939428137,1653982.0,0.03027999959886074,0.03361000120639801,-0.01071999967098236,12.901000022888184
6970.321939200059,1653983.0,0.027310000732541084,0.024250000715255737,-0.0013599999947473407,12.664999961853027
6970.322938971982,1653984.0,0.025200000032782555,0.0029100000392645597,-0.0033199999015778303,12.923999786376953
6970.323938743904,1653985.0,0.023579999804496765,-0.007809999864548445,-0.002950000111013651,12.72599983215332
6970.324938515827,1653986.0,0.0218299999833107,-0.011579999700188637,-0.016349999234080315,12.902999877929688
6970.32593828775,1653987.0,0.017249999567866325,-0.005900000222027302,-0.014259999617934227,12.909000396728516
6970.326938059673,1653988.0,0.01384000014513731,-0.005630000028759241,-0.01689000055193901,12.871999740600586
6970.327937831596,1653989.0,0.0129399998113513,-0.01489999983459711,-0.009449999779462814,12.793000221252441
6970.328937603518,1653990.0,0.01257999986410141,-0.021069999784231186,-0.0076299998909235,12.774999618530273
6970.329937375441,1653991.0,0.014469999819993973,-0.013260000385344028,-0.0010000000474974513,12.842000007629395
6970.330937147364,1653992.0,0.017559999600052834,-0.017260000109672546,0.00795000046491623,12.793999671936035
6970.331936919287,1653993.0,0.019449999555945396,-0.021479999646544456,0.021069999784231186,12.75
6970.332936691209,1653994.0,0.019589999690651894,-0.009630000218749046,0.02053000032901764,12.734999656677246
6970.333936463132,1653995.0,0.017160000279545784,-0.007079999893903732,0.012760000303387642,12.76200008392334
6970.334936235055,1653996.0,0.015270000323653221,0.019619999453425407,0.001449999981559813,12.751999855041504
6970.335936006977,1653997.0,0.014019999653100967,0.02280000038444996,0.004540000110864639,12.937999725341797
6970.336935778901,1653998.0,0.0147299999371171,0.01334999967366457,-0.00418000016361475,12.810999870300293
6970.337935550823,1653999.0,0.01590000092983246,0.0020000000949949026,-0.00953999999910593,12.753000259399414
6970.338935322746,1654000.0,0.017069999128580093,-0.006990000139921904,-0.010850000195205212,12.520000457763672
6970.339935094668,1654001.0,0.01769999973475933,-0.0024999999441206455,-0.0063599999994039536,12.958000183105469
6970.340934866592,1654002.0,0.017969999462366104,-0.017260000109672546,-0.014310000464320183,12.755000114440918
6970.341934638514,1654003.0,0.0185100007802248,-0.01489999983459711,-0.004900000058114529,12.689000129699707
6970.342934410437,1654004.0,0.01689000055193901,0.00418000016361475,-0.007770000025629997,12.791000366210938
6970.34393418236,1654005.0,0.014379999600350857,0.00018000000272877514,-0.00949000008404255,12.76200008392334
6970.344933954282,1654006.0,0.012849999591708183,0.0002300000051036477,-0.01181000005453825,12.774999618530273
6970.345933726205,1654007.0,0.009929999709129333,-0.006180000025779009,-0.00989999994635582,12.47700023651123
6970.346933498128,1654008.0,0.007189999800175428,0.003539999946951866,-0.007079999893903732,12.899999618530273
6970.347933270051,1654009.0,0.005929999984800816,0.007449999917298555,-0.005400000140070915,12.875
6970.348933041973,1654010.0,0.004490000195801258,-0.003539999946951866,-0.001500000013038516,12.961999893188477
6970.349932813896,1654011.0,0.004670000169426203,0.00880999956279993,0.008899999782443047,12.802000045776367
6970.350932585819,1654012.0,0.00610999995842576,0.005630000028759241,0.0063599999994039536,12.753000259399414
6970.351932357742,1654013.0,0.006289999932050705,-0.00018000000272877514,0.000910000002477318,12.970000267028809
6970.352932129665,1654014.0,0.005570000037550926,-0.002950000111013651,-0.004000000189989805,12.720000267028809
6970.353931901587,1654015.0,0.003280000062659383,0.00494999997317791,-0.007579999975860119,12.744000434875488
6970.35493167351,1654016.0,0.0008999999845400453,-0.0012700000079348683,-0.0030900000128895044,12.595000267028809
6970.355931445432,1654017.0,-0.00039999998989515007,-0.0016299999551847577,0.004720000084489584,12.505999565124512
6970.356931217355,1654018.0,-0.0012600000482052565,-0.0010900000343099236,0.003539999946951866,12.774999618530273
6970.357930989278,1654019.0,-0.0018400000408291817,0.000910000002477318,-0.007269999943673611,12.701000213623047
6970.358930761201,1654020.0,-0.0020699999295175076,0.004360000137239695,0.00041000000783242285,12.949999809265137
6970.359930533124,1654021.0,-0.0007200000109151006,0.0031799999997019768,-0.006130000110715628,12.456999778747559
6970.360930305046,1654022.0,0.0008999999845400453,0.0076299998909235,-0.010350000113248825,12.456999778747559
6970.361930076969,1654023.0,0.0011699999449774623,0.002360000042244792,-0.011989999562501907,12.63599967956543
6970.362929848892,1654024.0,0.0016199999954551458,0.0006399999838322401,-0.004269999917596579,12.774999618530273
6970.363929620815,1654025.0,0.00215999991632998,0.00418000016361475,-0.0012700000079348683,12.720999717712402
6970.364929392737,1654026.0,0.0030499999411404133,-0.008539999835193157,0.006719999946653843,12.932999610900879
6970.36592916466,1654027.0,0.0020699999295175076,-0.009990000165998936,-0.004860000219196081,12.777999877929688
6970.366928936583,1654028.0,0.0014799999771639705,-0.0030900000128895044,-0.0033599999733269215,12.774999618530273
6970.367928708505,1654029.0,0.0016199999954551458,-0.004629999864846468,-0.0059899999760091305,12.696999549865723
6970.368928480429,1654030.0,0.00107999995816499,0.00418000016361475,0.003809999907389283,12.76200008392334
6970.369928252351,1654031.0,-0.00018000000272877514,-0.005900000222027302,0.0083600003272295,12.72599983215332
6970.370928024274,1654032.0,-0.0003600000054575503,-0.004900000058114529,0.009630000218749046,12.961000442504883
6970.371927796196,1654033.0,-0.0015300000086426735,-0.003949999809265137,0.01181000005453825,12.781000137329102
6970.37292756812,1654034.0,-0.0022499999031424522,-0.004629999864846468,0.005270000081509352,12.786999702453613
6970.373927340042,1654035.0,-0.003590000094845891,0.005810000002384186,0.004449999891221523,12.755000114440918
6970.374927111965,1654036.0,-0.004490000195801258,0.00535999983549118,0.0013599999947473407,12.776000022888184
6970.375926883888,1654037.0,-0.004129999782890081,0.006490000057965517,0.0028200000524520874,12.656000137329102
6970.37692665581,1654038.0,-0.00215999991632998,0.011629999615252018,-0.009990000165998936,12.961999893188477
6970.377926427733,1654039.0,-0.0015300000086426735,-0.0010000000474974513,-0.008539999835193157,12.786999702453613
6970.378926199656,1654040.0,-0.0007600000244565308,-0.009080000221729279,-0.0051299999468028545,12.784000396728516
6970.379925971579,1654041.0,-0.0007600000244565308,-0.015080000273883343,-0.003809999907389283,12.692000389099121
6970.380925743501,1654042.0,-0.0023399998899549246,-0.011629999615252018,-0.0020000000949949026,12.833000183105469
6970.381925515424,1654043.0,-0.0016199999954551458,-0.003590000094845891,0.008539999835193157,12.604000091552734
6970.382925287347,1654044.0,-0.0013899999903514981,-0.005900000222027302,-0.005179999861866236,12.887999534606934
6970.38392505927,1654045.0,-0.00215999991632998,-0.002360000042244792,-0.0025400000158697367,12.784000396728516
6970.384924831193,1654046.0,-0.0027000000700354576,-0.001449999981559813,-0.005630000028759241,12.753000259399414
6970.385924603115,1654047.0,-0.003229999914765358,0.0024500000290572643,-0.003220000071451068,12.552000045776367
6970.386924375038,1654048.0,-0.004040000028908253,0.0063599999994039536,-0.006719999946653843,12.913999557495117
6970.38792414696,1654049.0,-0.004490000195801258,0.0017300000181421638,0.004040000028908253,12.793000221252441
6970.388923918883,1654050.0,-0.004040000028908253,-0.000859999970998615,-0.007720000110566616,12.847999572753906
6970.389923690806,1654051.0,-0.0023399998899549246,-0.01071999967098236,-0.004720000084489584,12.793000221252441
6970.390923462729,1654052.0,0.0008999999845400453,-0.012529999949038029,-0.005179999861866236,12.758999824523926
6970.391923234652,1654053.0,0.004490000195801258,-0.004269999917596579,-0.0022700000554323196,12.765999794006348
6970.392923006574,1654054.0,0.007819999940693378,-0.0002699999895412475,-0.0012700000079348683,12.932999610900879
6970.393922778497,1654055.0,0.010239999741315842,0.009359999559819698,0.002360000042244792,12.786999702453613
6970.39492255042,1654056.0,0.011719999834895134,0.013989999890327454,0.0029100000392645597,12.847999572753906
6970.395922322343,1654057.0,0.011590000241994858,0.0064500002190470695,-0.005450000055134296,12.763999938964844
6970.396922094265,1654058.0,0.012849999591708183,0.0021800000686198473,-0.007040000054985285,12.765999794006348
6970.397921866188,1654059.0,0.011680000461637974,0.002950000111013651,-0.00418000016361475,12.569999694824219
6970.398921638111,1654060.0,0.010060000233352184,-0.0028200000524520874,0.011529999785125256,12.946000099182129
6970.399921410033,1654061.0,0.005929999984800816,0.004000000189989805,0.013989999890327454,12.765999794006348
6970.400921181957,1654062.0,-0.0014400000218302011,-0.003449999960139394,-0.004449999891221523,12.592000007629395
6970.401920953879,1654063.0,-0.008449999615550041,-0.002360000042244792,-0.008539999835193157,12.807999610900879
6970.402920725802,1654064.0,-0.011590000241994858,-0.020160000771284103,-0.0008200000156648457,12.781000137329102
6970.403920497724,1654065.0,-0.011230000294744968,-0.017980000004172325,-0.0027199999894946814,12.765999794006348
6970.404920269648,1654066.0,-0.01131999958306551,-0.00018000000272877514,0.0013599999947473407,12.432999610900879
6970.40592004157,1654067.0,-0.011950000189244747,-0.0020000000949949026,-0.0016299999551847577,12.84000015258789
6970.406919813493,1654068.0,-0.01131999958306551,0.024159999564290047,-0.00535999983549118,12.744000434875488
6970.407919585416,1654069.0,-0.008799999952316284,0.025790000334382057,-0.004679999779909849,12.744000434875488
6970.408919357338,1654070.0,-0.0053900000639259815,0.0203000009059906,-0.0016299999551847577,12.73799991607666
6970.409919129261,1654071.0,-0.003590000094845891,0.003449999960139394,0.0021800000686198473,12.946000099182129
6970.410918901184,1654072.0,-0.002199999988079071,-0.004809999838471413,-0.005630000028759241,12.717000007629395
6970.411918673107,1654073.0,-0.0016199999954551458,-0.005270000081509352,-0.003909999970346689,12.491000175476074
6970.412918445029,1654074.0,0.001979999942705035,-0.014259999617934227,-0.0018599999602884054,12.774999618530273
6970.413918216952,1654075.0,0.005570000037550926,-0.030649999156594276,-0.0031799999997019768,12.805000305175781
6970.414917988875,1654076.0,0.00646999990567565,-0.03432999923825264,-0.006539999973028898,12.854000091552734
6970.415917760798,1654077.0,0.005210000090301037,-0.026480000466108322,-0.00041000000783242285,12.619000434875488
6970.416917532721,1654078.0,0.0034099998883903027,-0.003449999960139394,-0.0012700000079348683,12.909000396728516
6970.417917304643,1654079.0,0.0016199999954551458,0.002360000042244792,0.005270000081509352,12.781000137329102
6970.418917076566,1654080.0,-0.0028299998957663774,0.021250000223517418,-0.001820000004954636,12.833000183105469
6970.419916848488,1654081.0,-0.006649999879300594,0.02525000087916851,0.000910000002477318,12.682999610900879
6970.420916620411,1654082.0,-0.008089999668300152,0.0063599999994039536,-0.006719999946653843,12.545999526977539
6970.421916392334,1654083.0,-0.009159999899566174,-0.0016299999551847577,-0.00880999956279993,12.789999961853027
6970.422916164257,1654084.0,-0.00872000027447939,-0.005539999809116125,-0.009039999917149544,12.701000213623047
6970.42391593618,1654085.0,-0.007189999800175428,-0.009170000441372395,-0.009990000165998936,12.694000244140625
6970.424915708102,1654086.0,-0.006870000157505274,-0.008170000277459621,-0.004900000058114529,12.72599983215332
6970.425915480026,1654087.0,-0.005210000090301037,-0.012260000221431255,0.002360000042244792,12.682999610900879
6970.426915251948,1654088.0,-0.004399999976158142,-0.007720000110566616,-0.0021800000686198473,12.694999694824219
6970.427915023871,1654089.0,-0.002520000096410513,-0.01761999912559986,0.007360000163316727,12.701000213623047
6970.428914795793,1654090.0,-0.00215999991632998,-0.0015399999683722854,-0.0022299999836832285,12.765999794006348
6970.429914567716,1654091.0,-0.0025599999353289604,0.004269999917596579,-0.005539999809116125,12.722999572753906
6970.430914339639,1654092.0,-0.0037700000684708357,0.01107999961823225,-0.006719999946653843,12.682999610900879
6970.431914111562,1654093.0,-0.004399999976158142,0.01181000005453825,-0.0008200000156648457,12.682999610900879
6970.432913883485,1654094.0,-0.006649999879300594,-0.006719999946653843,-0.006949999835342169,12.682000160217285
6970.433913655407,1654095.0,-0.009519999846816063,0.0059899999760091305,-0.005900000222027302,12.527000427246094
6970.43491342733,1654096.0,-0.011950000189244747,0.012900000438094139,-0.017389999702572823,12.854000091552734
6970.435913199252,1654097.0,-0.011590000241994858,0.0006399999838322401,-0.0059899999760091305,12.656000137329102
6970.436912971176,1654098.0,-0.00925000011920929,0.0062699997797608376,-0.002630000002682209,12.668000221252441
6970.437912743098,1654099.0,-0.007009999826550484,0.007860000245273113,0.006180000025779009,12.668999671936035
6970.438912515021,1654100.0,-0.0052999998442828655,0.0030900000128895044,0.004720000084489584,12.829999923706055
6970.439912286944,1654101.0,-0.003280000062659383,0.005859999917447567,0.004860000219196081,12.652999877929688
6970.440912058866,1654102.0,-0.0023399998899549246,-0.002360000042244792,0.010900000110268593,12.460000038146973
6970.441911830789,1654103.0,-0.0012600000482052565,0.0012700000079348683,0.01906999945640564,12.82699966430664
6970.442911602712,1654104.0,-0.0008999999845400453,-0.009170000441372395,0.002630000002682209,12.692000389099121
6970.443911374635,1654105.0,0.000539999979082495,-0.006630000192672014,-0.000910000002477318,12.640000343322754
6970.444911146557,1654106.0,0.00107999995816499,-0.0036800000816583633,-0.006180000025779009,12.722999572753906
6970.44591091848,1654107.0,0.0014400000218302011,-0.0020000000949949026,0.0,12.621999740600586
6970.446910690403,1654108.0,0.0017099999822676182,0.001449999981559813,-0.008170000277459621,12.770000457763672
6970.447910462326,1654109.0,0.0017999999690800905,0.0015399999683722854,-0.0017300000181421638,12.324999809265137
6970.448910234249,1654110.0,-0.000539999979082495,0.008449999615550041,-0.000910000002477318,12.628000259399414
6970.449910006171,1654111.0,-0.0022499999031424522,0.005489999894052744,-0.007809999864548445,12.607999801635742
6970.450909778094,1654112.0,-0.0028800000436604023,-0.0017300000181421638,-0.003539999946951866,12.810999870300293
6970.451909550016,1654113.0,-0.004040000028908253,-0.011579999700188637,-0.0024999999441206455,12.640000343322754
6970.452909321939,1654114.0,-0.005880000069737434,-0.011900000274181366,-0.0024500000290572643,12.64799976348877
6970.453909093862,1654115.0,-0.005119999870657921,-0.004360000137239695,-0.008310000412166119,12.76200008392334
6970.454908865785,1654116.0,-0.0048500001430511475,-0.008449999615550041,-0.014530000276863575,12.798999786376953
6970.455908637708,1654117.0,-0.005119999870657921,0.010990000329911709,-0.010990000329911709,12.71399974822998
6970.45690840963,1654118.0,-0.004129999782890081,0.013849999755620956,-0.004000000189989805,12.592000007629395
6970.457908181554,1654119.0,-0.0022499999031424522,0.013989999890327454,-0.0022299999836832285,12.592000007629395
6970.458907953476,1654120.0,-0.0008099999977275729,-0.010900000110268593,0.0031799999997019768,12.72599983215332
6970.459907725399,1654121.0,0.0008999999845400453,-0.016759999096393585,-0.004769999999552965,12.583999633789062
6970.460907497321,1654122.0,0.0029200001154094934,-0.013260000385344028,-0.0027199999894946814,12.517999649047852
6970.461907269244,1654123.0,0.005929999984800816,-0.025520000606775284,0.004089999943971634,12.335000038146973
6970.4629070411665,1654124.0,0.005570000037550926,-0.01671000011265278,0.017079999670386314,12.652999877929688
6970.46390681309,1654125.0,0.0052999998442828655,-0.01834999956190586,0.00494999997317791,12.560999870300293
6970.464906585013,1654126.0,0.004989999812096357,-0.000539999979082495,0.00031999999191612005,12.465999603271484
6970.465906356935,1654127.0,0.0035000001080334187,0.009720000438392162,-0.009630000218749046,12.555000305175781
6970.466906128858,1654128.0,0.0014400000218302011,0.0029100000392645597,-0.016529999673366547,12.534000396728516
6970.46790590078,1654129.0,-0.00215999991632998,0.002360000042244792,-0.006630000192672014,12.545999526977539
6970.468905672704,1654130.0,-0.0029200001154094934,0.0031799999997019768,0.0010000000474974513,12.383999824523926
6970.469905444626,1654131.0,-0.0021100000012665987,0.005489999894052744,0.004720000084489584,12.677000045776367
6970.470905216549,1654132.0,-0.00044999999227002263,-0.002950000111013651,-0.0072200000286102295,12.539999961853027
6970.471904988472,1654133.0,-0.00018000000272877514,0.004809999838471413,-0.006949999835342169,12.619000434875488
6970.472904760394,1654134.0,-0.0008999999845400453,0.012260000221431255,-0.00872000027447939,12.692000389099121
6970.473904532317,1654135.0,-0.0016199999954551458,0.006810000166296959,-0.002360000042244792,12.661999702453613
6970.47490430424,1654136.0,-0.0026100000832229853,0.009259999729692936,0.010169999673962593,12.505999565124512
6970.475904076163,1654137.0,-0.0026499999221414328,-0.00875999964773655,0.009259999729692936,12.194999694824219
6970.476903848085,1654138.0,-0.0024300001095980406,-0.015990000218153,0.004089999943971634,12.531000137329102
6970.477903620008,1654139.0,-0.004310000222176313,-0.01775999926030636,0.0028200000524520874,12.442000389099121
6970.4789033919305,1654140.0,-0.0048500001430511475,-0.0020000000949949026,0.00044999999227002263,12.182999610900879
6970.479903163854,1654141.0,-0.0037700000684708357,0.01181000005453825,0.000539999979082495,12.463000297546387
6970.480902935777,1654142.0,-0.003229999914765358,0.011719999834895134,-0.009809999726712704,12.265000343322754
6970.481902707699,1654143.0,-0.0037700000684708357,0.008170000277459621,-0.007079999893903732,12.592000007629395
6970.482902479622,1654144.0,-0.0037700000684708357,0.005630000028759241,-0.01181000005453825,12.456999778747559
6970.483902251544,1654145.0,-0.0022499999031424522,-0.014619999565184116,-0.008539999835193157,12.52400016784668
6970.484902023468,1654146.0,-0.0004900000058114529,-0.02834000065922737,-0.006949999835342169,12.604999542236328
6970.48590179539,1654147.0,-0.0007200000109151006,-0.009170000441372395,-0.000910000002477318,12.552000045776367
6970.486901567313,1654148.0,-0.00107999995816499,-0.018619999289512634,-0.003449999960139394,12.468999862670898
6970.487901339236,1654149.0,-0.001979999942705035,-0.002319999970495701,0.0059899999760091305,12.444999694824219
6970.488901111158,1654150.0,-0.0016199999954551458,0.013399999588727951,-0.005450000055134296,12.555999755859375
6970.489900883082,1654151.0,-0.0026499999221414328,0.04114000126719475,-0.003269999986514449,12.39900016784668
6970.490900655004,1654152.0,-0.0030499999411404133,0.025790000334382057,0.004000000189989805,12.14799976348877
6970.491900426927,1654153.0,-0.002959999954327941,0.010449999943375587,0.015080000273883343,12.442000389099121
6970.492900198849,1654154.0,-0.0024300001095980406,-0.0007300000288523734,0.0024500000290572643,12.423999786376953
6970.493899970772,1654155.0,-0.0027000000700354576,-0.010130000300705433,0.000539999979082495,12.371999740600586
6970.4948997426945,1654156.0,-0.003640000009909272,-0.02247999981045723,-0.0033599999733269215,12.366000175476074
6970.495899514618,1654157.0,-0.0030499999411404133,-0.0221599992364645,-0.006899999920278788,12.378999710083008
6970.496899286541,1654158.0,-0.0013899999903514981,-0.02761000022292137,-0.006719999946653843,12.423999786376953
6970.497899058463,1654159.0,0.0020200000144541264,-0.01761999912559986,-0.004900000058114529,12.359999656677246
6970.498898830386,1654160.0,0.003860000055283308,-0.0007300000288523734,-0.005090000107884407,12.494000434875488
6970.499898602308,1654161.0,0.0037700000684708357,-0.002630000002682209,-0.009259999729692936,12.37600040435791
6970.500898374232,1654162.0,0.004989999812096357,0.000910000002477318,-0.003269999986514449,12.407999992370605
6970.501898146154,1654163.0,0.005799999926239252,0.005090000107884407,0.0015399999683722854,12.48799991607666
6970.502897918077,1654164.0,0.00610999995842576,0.015990000218153,-0.0010900000343099236,12.517999649047852
6970.50389769,1654165.0,0.005929999984800816,0.021800000220537186,-0.005450000055134296,12.017999649047852
6970.504897461922,1654166.0,0.004310000222176313,0.009990000165998936,0.00018000000272877514,12.395999908447266
6970.505897233845,1654167.0,0.001979999942705035,0.0033599999733269215,-0.002630000002682209,12.354000091552734
6970.506897005768,1654168.0,-9.000000136438757e-05,-0.01143999956548214,-0.00418000016361475,12.442000389099121
6970.507896777691,1654169.0,-0.00018000000272877514,-0.005590000189840794,-0.0036299999337643385,12.312000274658203
6970.508896549613,1654170.0,0.0003600000054575503,0.004360000137239695,0.0006799999973736703,12.307999610900879
6970.509896321536,1654171.0,-0.0016199999954551458,-0.002630000002682209,0.003449999960139394,12.279999732971191
6970.510896093459,1654172.0,-0.002959999954327941,-0.0020000000949949026,0.010259999893605709,11.972000122070312
6970.511895865382,1654173.0,-0.005119999870657921,-0.003449999960139394,0.0030900000128895044,12.359999656677246
6970.512895637305,1654174.0,-0.005210000090301037,-0.0021800000686198473,0.0063599999994039536,12.182999610900879
6970.513895409227,1654175.0,-0.0036800000816583633,0.0031799999997019768,0.002360000042244792,11.975000381469727
6970.51489518115,1654176.0,0.000539999979082495,-0.0012700000079348683,-0.003719999920576811,12.26200008392334
6970.515894953072,1654177.0,0.0029200001154094934,0.0017300000181421638,-0.007449999917298555,12.213000297546387
6970.516894724996,1654178.0,0.0016199999954551458,-0.0019099999917671084,0.0002699999895412475,12.331999778747559
6970.517894496918,1654179.0,0.0016199999954551458,-0.00418000016361475,0.0027199999894946814,12.227999687194824
6970.518894268841,1654180.0,0.0020699999295175076,-0.003539999946951866,0.008899999782443047,12.201000213623047
6970.519894040764,1654181.0,0.0028800000436604023,0.004999999888241291,-0.00041000000783242285,12.227999687194824
6970.520893812686,1654182.0,0.004040000028908253,0.006490000057965517,0.0020000000949949026,12.375
6970.52189358461,1654183.0,0.0048500001430511475,-0.00044999999227002263,-0.0033599999733269215,12.163999557495117
6970.522893356532,1654184.0,0.006649999879300594,-0.003909999970346689,0.0020000000949949026,12.027000427246094
6970.523893128455,1654185.0,0.0070500001311302185,0.0025400000158697367,-0.0007300000288523734,12.359999656677246
6970.524892900377,1654186.0,0.00646999990567565,0.0016299999551847577,0.0027199999894946814,12.340999603271484
6970.5258926723,1654187.0,0.004670000169426203,-0.004540000110864639,-0.000910000002477318,12.25
6970.5268924442225,1654188.0,0.003229999914765358,-0.0051299999468028545,-4.999999873689376e-05,12.03499984741211
6970.527892216146,1654189.0,0.004129999782890081,-0.009259999729692936,0.000910000002477318,12.279999732971191
6970.528891988069,1654190.0,0.006560000125318766,-0.0083600003272295,-0.006219999864697456,12.121999740600586
6970.529891759991,1654191.0,0.0101500004529953,-0.007079999893903732,-0.000539999979082495,12.079000473022461
6970.530891531914,1654192.0,0.01221999991685152,0.0033199999015778303,-0.003909999970346689,11.815999984741211
6970.531891303836,1654193.0,0.01348000019788742,0.006180000025779009,-0.007540000136941671,12.107999801635742
6970.53289107576,1654194.0,0.013969999738037586,0.008990000002086163,-0.0010900000343099236,12.230999946594238
6970.533890847682,1654195.0,0.013880000449717045,0.0010900000343099236,-0.003449999960139394,12.079000473022461
6970.534890619605,1654196.0,0.012400000356137753,0.0010000000474974513,-0.008539999835193157,11.800999641418457
6970.535890391528,1654197.0,0.009970000013709068,0.007449999917298555,0.0020000000949949026,12.23799991607666
6970.53689016345,1654198.0,0.005929999984800816,-0.0010400000028312206,0.0063599999994039536,12.279000282287598
6970.537889935373,1654199.0,0.000539999979082495,-0.0010000000474974513,0.005179999861866236,12.168999671936035
6970.538889707296,1654200.0,-0.005880000069737434,-0.004720000084489584,-0.00267999991774559,12.079000473022461
6970.539889479219,1654201.0,-0.007459999993443489,-0.004000000189989805,0.003909999970346689,12.02400016784668
6970.540889251141,1654202.0,-0.003949999809265137,-0.009809999726712704,0.006719999946653843,12.14900016784668
6970.541889023064,1654203.0,-0.0009899999713525176,-0.014170000329613686,0.007720000110566616,12.029999732971191
6970.542888794987,1654204.0,0.0016199999954551458,-0.011900000274181366,0.003269999986514449,11.980999946594238
6970.54388856691,1654205.0,0.0024300001095980406,-0.007180000189691782,0.0028200000524520874,11.822999954223633
6970.544888338833,1654206.0,0.0016599999507889152,0.009809999726712704,-0.003909999970346689,12.038000106811523
6970.545888110755,1654207.0,-0.00107999995816499,0.004040000028908253,-0.0033599999733269215,11.987000465393066
6970.546887882678,1654208.0,-0.005570000037550926,0.0036800000816583633,-0.00535999983549118,11.89900016784668
6970.5478876546,1654209.0,-0.008799999952316284,0.006089999806135893,4.999999873689376e-05,11.944999694824219
6970.548887426524,1654210.0,-0.009159999899566174,-0.000910000002477318,0.004809999838471413,11.960000038146973
6970.549887198446,1654211.0,-0.008179999887943268,-0.004000000189989805,0.001820000004954636,12.032999992370605
6970.550886970369,1654212.0,-0.007639999967068434,-0.0027199999894946814,-0.004540000110864639,11.621000289916992
6970.551886742292,1654213.0,-0.008270000107586384,0.002360000042244792,0.0,11.975000381469727
6970.552886514214,1654214.0,-0.005570000037550926,-0.01181000005453825,0.0030900000128895044,12.029999732971191
6970.553886286138,1654215.0,-0.0053900000639259815,-0.014709999784827232,0.003449999960139394,12.020999908447266
6970.55488605806,1654216.0,-0.005710000172257423,-0.0062699997797608376,0.013439999893307686,11.871000289916992
6970.555885829983,1654217.0,-0.005119999870657921,0.01143999956548214,0.005489999894052744,11.607000350952148
6970.556885601905,1654218.0,-0.0034099998883903027,0.005539999809116125,-0.000859999970998615,11.980999946594238
6970.557885373828,1654219.0,-0.001979999942705035,0.0006399999838322401,-0.007449999917298555,11.920000076293945
6970.5588851457505,1654220.0,0.0003100000030826777,-0.00018000000272877514,-0.006539999973028898,11.831999778747559
6970.559884917674,1654221.0,0.0020699999295175076,0.001449999981559813,-0.00880999956279993,11.852999687194824
6970.560884689597,1654222.0,0.004129999782890081,-0.0012700000079348683,-0.0051299999468028545,12.008999824523926
6970.561884461519,1654223.0,0.007009999826550484,-0.014349999837577343,-0.007449999917298555,11.862000465393066
6970.562884233442,1654224.0,0.00925000011920929,-0.023930000141263008,-0.012719999998807907,12.005999565124512
6970.563884005365,1654225.0,0.010870000347495079,-0.0030900000128895044,-0.00018000000272877514,11.812999725341797
6970.564883777288,1654226.0,0.013930000364780426,0.014800000004470348,-0.004900000058114529,11.630000114440918
6970.56588354921,1654227.0,0.0185100007802248,0.0051299999468028545,-0.00014000000373926014,11.824000358581543
6970.566883321133,1654228.0,0.0218299999833107,-0.004089999943971634,0.00041000000783242285,11.769000053405762
6970.567883093056,1654229.0,0.022509999573230743,0.0006799999973736703,0.003220000071451068,11.946000099182129
6970.568882864978,1654230.0,0.01981000043451786,-0.004040000028908253,0.001500000013038516,11.74899959564209
6970.569882636902,1654231.0,0.01384000014513731,-0.011719999834895134,-0.006990000139921904,11.432000160217285
6970.570882408824,1654232.0,0.007189999800175428,-0.010850000195205212,0.0016299999551847577,11.907999992370605
6970.571882180747,1654233.0,0.004670000169426203,-0.004449999891221523,0.0019099999917671084,11.713000297546387
6970.572881952669,1654234.0,0.005350000225007534,0.008539999835193157,0.0016299999551847577,11.557000160217285
6970.573881724592,1654235.0,0.00773000018671155,0.01181000005453825,-0.004809999838471413,11.6850004196167
6970.574881496515,1654236.0,0.01095999963581562,0.003539999946951866,0.004809999838471413,11.496000289916992
6970.575881268438,1654237.0,0.014689999632537365,0.007449999917298555,0.003809999907389283,11.769000053405762
6970.576881040361,1654238.0,0.01671000011265278,0.01107999961823225,0.009809999726712704,11.675999641418457
6970.577880812283,1654239.0,0.016759999096393585,0.028519999235868454,0.007180000189691782,11.670999526977539
6970.578880584206,1654240.0,0.017160000279545784,0.017349999397993088,-0.00018000000272877514,11.75100040435791
6970.579880356128,1654241.0,0.017160000279545784,0.007540000136941671,0.000539999979082495,11.557000160217285
6970.580880128052,1654242.0,0.01607999950647354,-9.000000136438757e-05,-0.009949999861419201,11.795000076293945
6970.581879899974,1654243.0,0.014999999664723873,-0.01217000000178814,0.0002699999895412475,11.618000030517578
6970.582879671897,1654244.0,0.01384000014513731,-0.01761999912559986,-0.013079999946057796,11.730999946594238
6970.58387944382,1654245.0,0.01217000000178814,-0.02525000087916851,-0.013939999975264072,11.590999603271484
6970.584879215742,1654246.0,0.010739999823272228,-0.017079999670386314,-0.013489999808371067,11.37399959564209
6970.585878987666,1654247.0,0.011140000075101852,-0.01561999972909689,-0.004540000110864639,11.675999641418457
6970.586878759588,1654248.0,0.01257999986410141,-0.00798999983817339,-0.007540000136941671,11.550999641418457
6970.587878531511,1654249.0,0.01384000014513731,0.005859999917447567,0.0003600000054575503,11.480999946594238
6970.588878303433,1654250.0,0.01384000014513731,0.03178999945521355,0.0020000000949949026,11.531000137329102
6970.589878075356,1654251.0,0.01508999988436699,0.016170000657439232,0.01107999961823225,11.545000076293945
6970.5908778472785,1654252.0,0.016529999673366547,0.006990000139921904,0.006310000084340572,11.663999557495117
6970.591877619202,1654253.0,0.017430000007152557,-0.01107999961823225,0.011529999785125256,11.545000076293945
6970.592877391125,1654254.0,0.017430000007152557,-0.025019999593496323,0.010350000113248825,11.493000030517578
6970.593877163047,1654255.0,0.01689000055193901,-0.03796999901533127,-0.000910000002477318,11.626999855041504
6970.59487693497,1654256.0,0.01508999988436699,-0.02855999954044819,-0.003269999986514449,11.506999969482422
6970.595876706893,1654257.0,0.01095999963581562,-0.011629999615252018,-0.004679999779909849,11.347999572753906
6970.596876478816,1654258.0,0.005210000090301037,-0.006680000107735395,0.001180000021122396,11.484000205993652
6970.597876250738,1654259.0,0.0016199999954551458,-0.007269999943673611,-0.00989999994635582,11.446999549865723
6970.598876022661,1654260.0,0.0003600000054575503,0.004629999864846468,-0.005090000107884407,11.496000289916992
6970.599875794584,1654261.0,-0.0008999999845400453,0.008899999782443047,-0.013530000112950802,11.39799976348877
6970.600875566506,1654262.0,-0.0008999999845400453,0.014349999837577343,-0.010850000195205212,11.39799976348877
6970.60187533843,1654263.0,0.0015300000086426735,0.017890000715851784,-0.007269999943673611,11.53600025177002
6970.602875110352,1654264.0,0.0030499999411404133,0.018530000001192093,-0.004360000137239695,11.383000373840332
6970.603874882275,1654265.0,0.004939999897032976,0.036329999566078186,-0.01217000000178814,11.496000289916992
6970.604874654197,1654266.0,0.004490000195801258,0.02370999939739704,-0.006949999835342169,11.336999893188477
6970.60587442612,1654267.0,0.004989999812096357,-0.000539999979082495,-0.004679999779909849,11.36299991607666
6970.606874198043,1654268.0,0.005210000090301037,-0.030339999124407768,0.006490000057965517,11.187999725341797
6970.607873969966,1654269.0,0.006920000072568655,-0.025699999183416367,0.008990000002086163,11.352999687194824
6970.608873741889,1654270.0,0.009340000338852406,-0.023250000551342964,0.004360000137239695,11.293000221252441
6970.609873513811,1654271.0,0.011859999969601631,-0.016759999096393585,-0.0020000000949949026,10.99899959564209
6970.610873285734,1654272.0,0.0142000000923872,-0.005810000002384186,-0.0012700000079348683,11.34000015258789
6970.611873057656,1654273.0,0.016170000657439232,0.006719999946653843,0.014580000191926956,11.267000198364258
6970.61287282958,1654274.0,0.014910000376403332,-0.003809999907389283,0.008670000359416008,11.406999588012695
6970.613872601502,1654275.0,0.012400000356137753,-0.017170000821352005,0.00749000022187829,11.425999641418457
6970.614872373425,1654276.0,0.009340000338852406,-0.01408000010997057,0.00418000016361475,11.223999977111816
6970.615872145348,1654277.0,0.006289999932050705,-0.001180000021122396,0.0013599999947473407,11.364999771118164
6970.61687191727,1654278.0,0.005929999984800816,0.003449999960139394,-0.0025400000158697367,11.187999725341797
6970.617871689194,1654279.0,0.0052999998442828655,0.00686000008136034,-0.005630000028759241,11.3100004196167
6970.618871461116,1654280.0,0.004129999782890081,0.000539999979082495,-0.007899999618530273,11.20300006866455
6970.619871233039,1654281.0,0.003280000062659383,0.000539999979082495,-0.007449999917298555,11.168999671936035
6970.620871004961,1654282.0,0.003100000089034438,0.012350000441074371,-0.0064500002190470695,11.133000373840332
6970.621870776884,1654283.0,0.004900000058114529,0.006579999811947346,-0.0033599999733269215,11.142000198364258
6970.6228705488065,1654284.0,0.0048500001430511475,0.009720000438392162,-0.004089999943971634,11.303999900817871
6970.62387032073,1654285.0,0.005659999791532755,0.005810000002384186,0.007720000110566616,11.10200023651123
6970.624870092653,1654286.0,0.007369999773800373,-0.009170000441372395,0.002360000042244792,11.071999549865723
6970.625869864575,1654287.0,0.00872000027447939,-0.006219999864697456,0.004540000110864639,11.020000457763672
6970.626869636498,1654288.0,0.006289999932050705,-0.004809999838471413,0.003220000071451068,11.09000015258789
6970.627869408421,1654289.0,0.0023399998899549246,-0.0025400000158697367,-0.002360000042244792,10.77299976348877
6970.628869180344,1654290.0,0.003229999914765358,0.005270000081509352,-0.00798999983817339,11.168000221252441
6970.629868952266,1654291.0,0.004129999782890081,0.007720000110566616,-0.01063000038266182,10.78600025177002
6970.630868724189,1654292.0,0.0034099998883903027,0.006089999806135893,-0.0019099999917671084,11.053000450134277
6970.631868496112,1654293.0,0.0031399999279528856,-0.0010400000028312206,-0.0010400000028312206,10.99899959564209
6970.632868268034,1654294.0,0.004310000222176313,-0.0027199999894946814,-0.002630000002682209,11.126999855041504
6970.633868039958,1654295.0,0.0053900000639259815,-0.0007300000288523734,0.001180000021122396,10.982999801635742
6970.63486781188,1654296.0,0.006649999879300594,0.01979999989271164,-0.001230000052601099,10.736000061035156
6970.635867583803,1654297.0,0.006200000178068876,0.04123999923467636,-0.004310000222176313,10.972999572753906
6970.636867355725,1654298.0,0.005659999791532755,0.020980000495910645,-0.0024999999441206455,10.930999755859375
6970.637867127648,1654299.0,0.006289999932050705,-0.004269999917596579,0.000910000002477318,10.944000244140625
6970.638866899571,1654300.0,0.007639999967068434,-0.01107999961823225,-0.008080000057816505,10.840999603271484
6970.639866671494,1654301.0,0.008799999952316284,-0.025750000029802322,-0.000539999979082495,11.069000244140625
6970.640866443417,1654302.0,0.009879999794065952,-0.03723999857902527,-0.005630000028759241,10.895000457763672
6970.641866215339,1654303.0,0.011680000461637974,-0.040869999676942825,-0.0030900000128895044,10.930999755859375
6970.642865987262,1654304.0,0.012760000303387642,-0.03523999825119972,0.0024999999441206455,11.031999588012695
6970.643865759184,1654305.0,0.011859999969601631,-0.023070000112056732,0.00571999978274107,10.973999977111816
6970.644865531108,1654306.0,0.01095999963581562,-0.01744000054895878,0.003539999946951866,10.848999977111816
6970.64586530303,1654307.0,0.010060000233352184,0.010449999943375587,0.00686000008136034,10.645999908447266
6970.646865074953,1654308.0,0.008449999615550041,0.012260000221431255,0.014530000276863575,10.935999870300293
6970.647864846876,1654309.0,0.00646999990567565,0.012260000221431255,0.0083600003272295,10.8149995803833
6970.648864618799,1654310.0,0.004579999949783087,0.009170000441372395,0.0021299999207258224,10.720999717712402
6970.649864390722,1654311.0,0.0037700000684708357,0.008270000107586384,-0.0021800000686198473,10.475000381469727
6970.650864162644,1654312.0,0.0037700000684708357,0.01181000005453825,0.0012700000079348683,10.736000061035156
6970.651863934567,1654313.0,0.003640000009909272,0.008170000277459621,-0.006719999946653843,10.817999839782715
6970.652863706489,1654314.0,0.004129999782890081,0.006539999973028898,0.0003600000054575503,10.559000015258789
6970.653863478412,1654315.0,0.005799999926239252,0.007579999975860119,-0.003000000026077032,10.425000190734863
6970.654863250335,1654316.0,0.008539999835193157,0.007079999893903732,-0.005270000081509352,10.701000213623047
6970.655863022258,1654317.0,0.011549999937415123,0.00571999978274107,-0.0036299999337643385,10.854999542236328
6970.656862794181,1654318.0,0.014910000376403332,-0.0059899999760091305,-0.004000000189989805,10.675000190734863
6970.657862566103,1654319.0,0.01607999950647354,-0.0016299999551847577,-0.003000000026077032,10.543999671936035
6970.658862338026,1654320.0,0.01508999988436699,0.0009500000160187483,-0.004809999838471413,10.706999778747559
6970.659862109949,1654321.0,0.014059999957680702,-0.00018000000272877514,-0.007809999864548445,10.800000190734863
6970.660861881872,1654322.0,0.011950000189244747,-0.00798999983817339,-0.006579999811947346,10.77299976348877
6970.661861653794,1654323.0,0.012040000408887863,-0.0076299998909235,0.003449999960139394,10.32699966430664
6970.662861425717,1654324.0,0.011009999550879002,0.00839999970048666,-0.0022299999836832285,10.635000228881836
6970.66386119764,1654325.0,0.008630000054836273,-0.002630000002682209,0.004629999864846468,10.6899995803833
6970.664860969562,1654326.0,0.006829999852925539,-0.005270000081509352,-0.01071999967098236,10.571000099182129
6970.665860741486,1654327.0,0.004490000195801258,-0.0020000000949949026,-0.007449999917298555,10.545000076293945
6970.666860513408,1654328.0,0.0035000001080334187,0.00018000000272877514,-0.005040000192821026,10.532999992370605
6970.667860285331,1654329.0,0.0035500000230968,-0.000910000002477318,-0.0030900000128895044,10.515999794006348
6970.668860057253,1654330.0,0.0034099998883903027,-0.00535999983549118,-0.005450000055134296,10.555999755859375
6970.669859829176,1654331.0,0.0023399998899549246,-0.000539999979082495,0.004540000110864639,10.503999710083008
6970.670859601099,1654332.0,0.0024300001095980406,-0.00571999978274107,0.007079999893903732,10.663000106811523
6970.671859373022,1654333.0,0.0017099999822676182,-0.003809999907389283,-0.001449999981559813,10.640999794006348
6970.672859144945,1654334.0,0.003590000094845891,0.003449999960139394,-0.005090000107884407,10.581999778747559
6970.673858916867,1654335.0,0.007009999826550484,-0.003590000094845891,0.0017300000181421638,10.442999839782715
6970.67485868879,1654336.0,0.011049999855458736,0.016620000824332237,-0.000539999979082495,10.42199993133545
6970.675858460712,1654337.0,0.012400000356137753,0.004540000110864639,0.009630000218749046,10.57699966430664
6970.676858232636,1654338.0,0.01257999986410141,-0.00018000000272877514,0.0010000000474974513,10.529000282287598
6970.677858004558,1654339.0,0.009340000338852406,-0.01140000019222498,-0.0012700000079348683,10.406000137329102
6970.678857776481,1654340.0,0.0052999998442828655,-0.014170000329613686,-0.0052200001664459705,10.357999801635742
6970.679857548404,1654341.0,0.004220000002533197,-0.006539999973028898,0.000539999979082495,10.394000053405762
6970.680857320327,1654342.0,0.0048500001430511475,-0.003809999907389283,0.00018000000272877514,10.052000045776367
6970.68185709225,1654343.0,0.005439999978989363,-0.011350000277161598,-0.01071999967098236,10.446000099182129
6970.682856864172,1654344.0,0.007280000019818544,0.0221599992364645,-0.013170000165700912,10.416000366210938
6970.683856636095,1654345.0,0.008980000391602516,0.03061000071465969,-0.012079999782145023,10.395999908447266
6970.684856408017,1654346.0,0.010329999960958958,0.024210000410676003,-0.006899999920278788,10.291000366210938
6970.68585617994,1654347.0,0.012889999896287918,0.02143000066280365,-0.003949999809265137,10.3149995803833
6970.686855951863,1654348.0,0.01671000011265278,-0.005489999894052744,0.0020000000949949026,9.984000205993652
6970.687855723786,1654349.0,0.02053000032901764,-0.016170000657439232,-0.000859999970998615,10.381999969482422
6970.688855495709,1654350.0,0.02151999995112419,-0.036240000277757645,0.000910000002477318,10.277999877929688
6970.689855267631,1654351.0,0.020309999585151672,-0.046140000224113464,0.010400000028312206,10.194000244140625
6970.690855039554,1654352.0,0.018689999356865883,-0.040780000388622284,0.0006799999973736703,9.958000183105469
6970.691854811477,1654353.0,0.017160000279545784,-0.0493599995970726,-0.003809999907389283,10.256999969482422
6970.6928545834,1654354.0,0.013120000250637531,-0.016170000657439232,0.008170000277459621,10.187000274658203
6970.693854355322,1654355.0,0.005840000230818987,0.000539999979082495,0.010259999893605709,9.994999885559082
6970.694854127245,1654356.0,-0.0003600000054575503,-0.0019099999917671084,0.00795000046491623,9.937000274658203
6970.695853899168,1654357.0,-0.004670000169426203,0.006810000166296959,0.006810000166296959,9.885000228881836
6970.69685367109,1654358.0,-0.0069599999114871025,0.012260000221431255,-0.0024500000290572643,10.097000122070312
6970.697853443014,1654359.0,-0.008449999615550041,0.016529999673366547,-0.010540000163018703,10.095000267028809
6970.698853214936,1654360.0,-0.008089999668300152,0.021619999781250954,-0.00418000016361475,10.25100040435791
6970.699852986859,1654361.0,-0.00773000018671155,0.017079999670386314,-0.009449999779462814,9.833000183105469
6970.700852758781,1654362.0,-0.0053900000639259815,0.019120000302791595,-0.004360000137239695,9.762999534606934
6970.701852530705,1654363.0,-0.0016199999954551458,0.006539999973028898,-0.008449999615550041,10.052000045776367
6970.702852302627,1654364.0,3.9999998989515007e-05,-0.0010400000028312206,-0.005630000028759241,10.0600004196167
6970.70385207455,1654365.0,0.0020699999295175076,0.009630000218749046,-0.005630000028759241,10.008000373840332
6970.704851846473,1654366.0,0.0035000001080334187,0.004449999891221523,-0.007040000054985285,9.972999572753906
6970.705851618395,1654367.0,0.0052999998442828655,-0.0012700000079348683,-0.008170000277459621,9.946999549865723
6970.706851390318,1654368.0,0.007009999826550484,0.004720000084489584,-0.003449999960139394,9.946000099182129
6970.707851162241,1654369.0,0.00773000018671155,-0.003909999970346689,0.002409999957308173,9.954999923706055
6970.708850934164,1654370.0,0.008489999920129776,-0.0013599999947473407,-0.004540000110864639,9.937999725341797
6970.709850706086,1654371.0,0.008089999668300152,0.001500000013038516,0.006039999891072512,10.034000396728516
6970.710850478009,1654372.0,0.0071000000461936,-0.0003600000054575503,-0.000910000002477318,9.918000221252441
6970.711850249932,1654373.0,0.0048500001430511475,0.000539999979082495,0.0059899999760091305,9.881999969482422
6970.712850021855,1654374.0,0.0027000000700354576,0.00872000027447939,0.005679999943822622,9.881999969482422
6970.713849793778,1654375.0,0.0008999999845400453,0.0059899999760091305,-0.0013599999947473407,9.982000350952148
6970.7148495657,1654376.0,-0.0015300000086426735,-0.0022299999836832285,-0.010940000414848328,9.586000442504883
6970.715849337623,1654377.0,-0.004220000002533197,-0.012810000218451023,-0.003809999907389283,9.942999839782715
6970.716849109545,1654378.0,-0.008449999615550041,-0.01607999950647354,-0.00798999983817339,9.807999610900879
6970.717848881468,1654379.0,-0.00872000027447939,-0.010350000113248825,-0.000539999979082495,9.949000358581543
6970.718848653391,1654380.0,-0.009610000066459179,-0.005810000002384186,0.0016299999551847577,9.911999702453613
6970.719848425314,1654381.0,-0.009340000338852406,0.0006399999838322401,0.010080000385642052,9.84000015258789
6970.720848197237,1654382.0,-0.00803999975323677,0.0030900000128895044,0.006719999946653843,9.744000434875488
6970.721847969159,1654383.0,-0.006829999852925539,-0.0022299999836832285,0.00880999956279993,9.697999954223633
6970.722847741082,1654384.0,-0.00646999990567565,-0.004720000084489584,-0.003000000026077032,9.72700023651123
6970.723847513005,1654385.0,-0.005030000116676092,-0.00880999956279993,0.003269999986514449,9.746999740600586
6970.724847284928,1654386.0,-0.0016199999954551458,-0.0027199999894946814,0.00018000000272877514,9.675999641418457
6970.72584705685,1654387.0,0.0028299998957663774,-0.0030900000128895044,-0.010259999893605709,9.668000221252441
6970.726846828773,1654388.0,0.006560000125318766,0.002360000042244792,-0.0062699997797608376,9.442000389099121
6970.727846600696,1654389.0,0.008449999615550041,-0.003809999907389283,-0.01181000005453825,9.795999526977539
6970.728846372618,1654390.0,0.010239999741315842,0.0010900000343099236,-0.0015899999998509884,9.609999656677246
6970.729846144542,1654391.0,0.01131999958306551,0.0010000000474974513,0.0017300000181421638,9.595000267028809
6970.730845916464,1654392.0,0.011769999749958515,0.01181000005453825,-0.002360000042244792,9.58899974822998
6970.731845688387,1654393.0,0.011009999550879002,0.00571999978274107,-0.001820000004954636,9.630000114440918
6970.732845460309,1654394.0,0.009519999846816063,-0.013260000385344028,-0.0015399999683722854,9.569999694824219
6970.733845232233,1654395.0,0.009159999899566174,-0.01834999956190586,-0.0020000000949949026,9.54699993133545
6970.734845004155,1654396.0,0.007910000160336494,-0.004540000110864639,0.01298999972641468,9.527999877929688
6970.735844776078,1654397.0,0.008129999972879887,-0.005900000222027302,0.011629999615252018,9.552000045776367
6970.736844548001,1654398.0,0.008670000359416008,-0.00418000016361475,0.005900000222027302,9.673999786376953
6970.737844319923,1654399.0,0.009159999899566174,0.006490000057965517,-0.00018000000272877514,9.491000175476074
6970.738844091846,1654400.0,0.008980000391602516,0.0016299999551847577,0.007449999917298555,9.595000267028809
6970.739843863769,1654401.0,0.009750000201165676,0.007309999782592058,-0.005630000028759241,9.435999870300293
6970.740843635692,1654402.0,0.008799999952316284,0.0016799999866634607,-4.999999873689376e-05,9.520999908447266
6970.741843407614,1654403.0,0.007369999773800373,-0.0076299998909235,-0.0033199999015778303,9.427000045776367
6970.742843179537,1654404.0,0.0063299997709691525,-0.0021800000686198473,-0.004449999891221523,9.36299991607666
6970.74384295146,1654405.0,0.0071000000461936,0.00031999999191612005,-0.0016299999551847577,9.383000373840332
6970.744842723383,1654406.0,0.006380000151693821,-0.001180000021122396,-0.001449999981559813,9.173999786376953
6970.745842495306,1654407.0,0.004670000169426203,0.011629999615252018,-0.008270000107586384,9.482000350952148
6970.746842267228,1654408.0,0.0037700000684708357,0.02112000063061714,0.001449999981559813,9.187000274658203
6970.747842039151,1654409.0,0.0023399998899549246,0.026200000196695328,0.0036299999337643385,9.093000411987305
6970.748841811073,1654410.0,0.001979999942705035,0.015709999948740005,0.0007300000288523734,9.343999862670898
6970.749841582996,1654411.0,0.0030499999411404133,0.0002300000051036477,-0.007449999917298555,9.479000091552734
6970.750841354919,1654412.0,0.003590000094845891,-0.01561999972909689,-0.0020000000949949026,9.276000022888184
6970.751841126842,1654413.0,0.002520000096410513,-0.0279300007969141,0.0019099999917671084,9.270999908447266
6970.752840898765,1654414.0,0.0012600000482052565,-0.03677999973297119,0.0030900000128895044,9.28499984741211
6970.753840670687,1654415.0,0.00044999999227002263,-0.03723999857902527,0.0007300000288523734,9.258999824523926
6970.75484044261,1654416.0,-0.0012600000482052565,-0.005539999809116125,0.003449999960139394,9.241000175476074
6970.755840214533,1654417.0,-0.0024300001095980406,0.0019099999917671084,0.0024500000290572643,9.35099983215332
6970.756839986456,1654418.0,-0.0033199999015778303,0.009720000438392162,0.009630000218749046,9.194999694824219
6970.757839758378,1654419.0,-0.007319999858736992,0.012719999998807907,-0.0019099999917671084,9.11299991607666
6970.758839530301,1654420.0,-0.010239999741315842,0.012670000083744526,-0.003809999907389283,9.204000473022461
6970.759839302224,1654421.0,-0.010599999688565731,0.004720000084489584,-0.004540000110864639,8.885000228881836
6970.760839074146,1654422.0,-0.009159999899566174,0.00044999999227002263,-0.00872000027447939,8.871000289916992
6970.76183884607,1654423.0,-0.007459999993443489,0.0010400000028312206,-0.009630000218749046,9.28600025177002
6970.762838617992,1654424.0,-0.004720000084489584,-0.0022700000554323196,-0.001180000021122396,9.079000473022461
6970.763838389915,1654425.0,-0.0026100000832229853,0.0003600000054575503,-0.0051299999468028545,9.067000389099121
6970.764838161837,1654426.0,-0.0012600000482052565,0.0025400000158697367,-0.0036299999337643385,8.892999649047852
6970.765837933761,1654427.0,-0.000539999979082495,-0.002360000042244792,-0.0030900000128895044,8.913999557495117
6970.766837705683,1654428.0,0.0008999999845400453,0.0031799999997019768,-0.000539999979082495,9.038999557495117
6970.767837477606,1654429.0,0.00215999991632998,-0.003269999986514449,0.0028200000524520874,8.977999687194824
6970.768837249529,1654430.0,0.003860000055283308,0.0051299999468028545,-0.004629999864846468,9.142000198364258
6970.769837021451,1654431.0,0.005030000116676092,0.003539999946951866,-0.004900000058114529,8.977999687194824
6970.770836793374,1654432.0,0.004579999949783087,0.031060000881552696,-0.009259999729692936,8.963000297546387
6970.771836565297,1654433.0,0.004040000028908253,0.02742999978363514,-0.007720000110566616,9.045000076293945
6970.77283633722,1654434.0,0.003590000094845891,0.014800000004470348,-0.009990000165998936,9.11400032043457
6970.773836109142,1654435.0,0.004490000195801258,-0.004809999838471413,-0.0030900000128895044,8.928999900817871
6970.774835881065,1654436.0,0.004490000195801258,-0.02525000087916851,0.008990000002086163,8.795000076293945
6970.775835652988,1654437.0,0.004670000169426203,-0.025110000744462013,0.00418000016361475,9.032999992370605
6970.776835424911,1654438.0,0.005929999984800816,-0.027340000495314598,0.004540000110864639,9.045000076293945
6970.777835196834,1654439.0,0.007459999993443489,-0.030519999563694,-0.0021299999207258224,9.027000427246094
6970.778834968756,1654440.0,0.00925000011920929,-0.024890000000596046,0.0012700000079348683,8.960000038146973
6970.779834740679,1654441.0,0.012620000168681145,-0.019440000876784325,0.007540000136941671,8.836000442504883
6970.780834512601,1654442.0,0.014639999717473984,-0.00044999999227002263,-0.0003600000054575503,8.58899974822998
6970.781834284524,1654443.0,0.012040000408887863,-0.0025400000158697367,-0.0016299999551847577,8.906999588012695
6970.782834056447,1654444.0,0.009700000286102295,0.001449999981559813,-0.006719999946653843,8.928999900817871
6970.78383382837,1654445.0,0.0071000000461936,0.003269999986514449,-0.00018000000272877514,8.942000389099121
6970.784833600293,1654446.0,0.004129999782890081,0.005679999943822622,-0.003269999986514449,8.737000465393066
6970.785833372215,1654447.0,0.005030000116676092,0.017799999564886093,0.0010000000474974513,8.904999732971191
6970.786833144139,1654448.0,0.007459999993443489,0.00571999978274107,-0.00418000016361475,8.713000297546387
6970.787832916061,1654449.0,0.010060000233352184,0.004269999917596579,-0.0015399999683722854,8.819999694824219
6970.788832687984,1654450.0,0.013659999705851078,0.007309999782592058,-0.0010900000343099236,8.675000190734863
6970.789832459906,1654451.0,0.016349999234080315,0.007180000189691782,-0.00044999999227002263,8.579999923706055
6970.790832231829,1654452.0,0.019139999523758888,0.008539999835193157,-0.004449999891221523,8.657999992370605
6970.791832003752,1654453.0,0.021649999544024467,-0.0008200000156648457,-0.004269999917596579,8.397000312805176
6970.792831775675,1654454.0,0.02281999960541725,0.004449999891221523,-0.000910000002477318,8.687000274658203
6970.793831547598,1654455.0,0.021740000694990158,0.0030900000128895044,0.004540000110864639,8.496000289916992
6970.79483131952,1654456.0,0.017160000279545784,-0.004129999782890081,0.0012700000079348683,8.413999557495117
6970.795831091443,1654457.0,0.008670000359416008,-0.0020000000949949026,0.000539999979082495,8.371000289916992
6970.796830863365,1654458.0,0.00279000005684793,-0.00418000016361475,-0.005630000028759241,8.668999671936035
6970.797830635289,1654459.0,-0.0022499999031424522,-0.0014100000262260437,0.004089999943971634,8.562999725341797
6970.798830407211,1654460.0,-0.006149999797344208,0.002409999957308173,-0.001449999981559813,8.57699966430664
6970.799830179134,1654461.0,-0.009519999846816063,0.000910000002477318,0.002950000111013651,8.487000465393066
6970.800829951057,1654462.0,-0.009840000420808792,-0.0022700000554323196,0.009630000218749046,8.465999603271484
6970.801829722979,1654463.0,-0.008179999887943268,0.0031799999997019768,0.002630000002682209,8.440999984741211
6970.802829494902,1654464.0,-0.005570000037550926,0.001820000004954636,0.0021800000686198473,8.484000205993652
6970.803829266825,1654465.0,-0.005530000198632479,0.0012700000079348683,-0.0027199999894946814,8.255000114440918
6970.804829038748,1654466.0,-0.004399999976158142,0.012350000441074371,-0.004089999943971634,8.569000244140625
6970.80582881067,1654467.0,-0.0034099998883903027,0.0063599999994039536,-0.007540000136941671,8.444000244140625
6970.806828582593,1654468.0,-0.00279000005684793,-0.002360000042244792,-0.012900000438094139,8.395000457763672
6970.807828354516,1654469.0,-0.0015699999639764428,-0.0064500002190470695,-0.012900000438094139,8.36299991607666
6970.808828126439,1654470.0,0.0007600000244565308,-0.008539999835193157,-0.006899999920278788,8.534000396728516
6970.809827898362,1654471.0,0.003590000094845891,-0.004000000189989805,-0.006219999864697456,8.355999946594238
6970.810827670284,1654472.0,0.008630000054836273,-0.013620000332593918,0.0007300000288523734,8.3100004196167
6970.811827442207,1654473.0,0.011409999802708626,0.0031799999997019768,-0.0019099999917671084,8.223999977111816
6970.812827214129,1654474.0,0.00925000011920929,-0.008270000107586384,9.000000136438757e-05,8.098999977111816
6970.813826986052,1654475.0,0.008449999615550041,-0.01671000011265278,-0.0008200000156648457,8.33899974822998
6970.814826757975,1654476.0,0.006870000157505274,-0.00913000013679266,0.0063599999994039536,8.321000099182129
6970.815826529898,1654477.0,0.006289999932050705,-0.0059899999760091305,0.004410000052303076,8.281999588012695
6970.816826301821,1654478.0,0.0052999998442828655,-0.01834999956190586,0.008170000277459621,8.208999633789062
6970.817826073743,1654479.0,0.004040000028908253,-0.016170000657439232,0.000910000002477318,8.187999725341797
6970.818825845667,1654480.0,0.0034099998883903027,-0.00798999983817339,0.01334999967366457,8.14799976348877
6970.819825617589,1654481.0,0.00279000005684793,-9.000000136438757e-05,0.012350000441074371,7.973999977111816
6970.820825389512,1654482.0,0.0037700000684708357,-0.002589999930933118,0.00913000013679266,8.251999855041504
6970.821825161434,1654483.0,0.004129999782890081,-0.003000000026077032,-0.002360000042244792,8.166999816894531
6970.822824933357,1654484.0,0.004360000137239695,0.005450000055134296,0.0020000000949949026,8.114999771118164
6970.82382470528,1654485.0,0.006649999879300594,0.006089999806135893,-0.000539999979082495,8.121000289916992
6970.824824477203,1654486.0,0.006649999879300594,0.015440000221133232,-0.00044999999227002263,8.04699993133545
6970.825824249126,1654487.0,0.006020000204443932,0.025609999895095825,-0.006719999946653843,8.098999977111816
6970.826824021048,1654488.0,0.006920000072568655,0.015530000440776348,-0.0059899999760091305,7.915999889373779
6970.827823792971,1654489.0,0.006649999879300594,0.01217000000178814,-0.00989999994635582,8.166999816894531
6970.828823564893,1654490.0,0.00610999995842576,-0.0002300000051036477,-0.008949999697506428,7.822999954223633
6970.829823336817,1654491.0,0.00547999981790781,-0.01489999983459711,-0.005770000163465738,7.824999809265137
6970.830823108739,1654492.0,0.005570000037550926,-0.02298000082373619,-0.004809999838471413,7.798999786376953
6970.831822880662,1654493.0,0.005929999984800816,-0.020160000771284103,0.002360000042244792,8.055000305175781
6970.832822652585,1654494.0,0.007009999826550484,0.0002699999895412475,0.000539999979082495,8.029000282287598
6970.833822424507,1654495.0,0.008449999615550041,0.005770000163465738,-0.001820000004954636,8.017999649047852
6970.83482219643,1654496.0,0.010239999741315842,-0.0003600000054575503,-0.0021800000686198473,7.769999980926514
6970.835821968353,1654497.0,0.01131999958306551,0.006039999891072512,0.007449999917298555,7.748000144958496
6970.836821740276,1654498.0,0.009789999574422836,-0.005270000081509352,0.005630000028759241,7.709000110626221
6970.837821512198,1654499.0,0.00646999990567565,-0.00913000013679266,0.005270000081509352,7.991000175476074
6970.838821284121,1654500.0,0.0034099998883903027,0.0010900000343099236,-0.0024500000290572643,7.715000152587891
6970.839821056044,1654501.0,0.0023399998899549246,-0.00018000000272877514,-0.004900000058114529,7.953000068664551
6970.840820827967,1654502.0,0.0011699999449774623,0.008170000277459621,-0.010350000113248825,7.834000110626221
6970.84182059989,1654503.0,-0.001930000027641654,0.01143999956548214,-0.005489999894052744,7.824999809265137
6970.842820371812,1654504.0,-0.005750000011175871,0.004040000028908253,-0.0030900000128895044,7.809000015258789
6970.843820143735,1654505.0,-0.009340000338852406,0.004540000110864639,-0.009850000031292439,7.828000068664551
6970.844819915657,1654506.0,-0.011140000075101852,-0.00041000000783242285,-0.005450000055134296,7.763999938964844
6970.845819687581,1654507.0,-0.010239999741315842,-0.008170000277459621,0.005539999809116125,7.867000102996826
6970.846819459503,1654508.0,-0.006829999852925539,-0.002360000042244792,0.009080000221729279,7.892000198364258
6970.847819231426,1654509.0,-0.0030499999411404133,-0.0016299999551847577,0.004900000058114529,7.8520002365112305
6970.848819003349,1654510.0,3.9999998989515007e-05,-0.013120000250637531,0.0076299998909235,7.798999786376953
6970.849818775271,1654511.0,0.0030499999411404133,0.0016299999551847577,0.006039999891072512,7.513000011444092
6970.850818547195,1654512.0,0.004629999864846468,-0.001820000004954636,0.008449999615550041,7.806000232696533
6970.851818319117,1654513.0,0.00674000009894371,-0.003909999970346689,-0.001449999981559813,7.691999912261963
6970.85281809104,1654514.0,0.00773000018671155,-0.006130000110715628,-0.00798999983817339,7.671999931335449
6970.853817862962,1654515.0,0.007910000160336494,0.004629999864846468,-0.011629999615252018,7.6479997634887695
6970.854817634885,1654516.0,0.006920000072568655,-0.005810000002384186,-0.006630000192672014,7.697999954223633
6970.855817406808,1654517.0,0.005750000011175871,-0.00018000000272877514,-0.0027199999894946814,7.390999794006348
6970.856817178731,1654518.0,0.003949999809265137,-0.004310000222176313,0.000910000002477318,7.684000015258789
6970.857816950654,1654519.0,0.0037700000684708357,0.0036299999337643385,-0.0024500000290572643,7.5929999351501465
6970.858816722576,1654520.0,0.003590000094845891,0.011260000057518482,-0.002360000042244792,7.578000068664551
6970.859816494499,1654521.0,0.003590000094845891,0.012620000168681145,-0.0010400000028312206,7.546999931335449
6970.860816266421,1654522.0,0.0031900000758469105,0.0064500002190470695,-0.010990000329911709,7.6479997634887695
6970.861816038345,1654523.0,0.005570000037550926,0.0031799999997019768,-0.0003600000054575503,7.567999839782715
6970.862815810267,1654524.0,0.007550000213086605,-0.00418000016361475,-0.011350000277161598,7.502999782562256
6970.86381558219,1654525.0,0.007639999967068434,-0.007079999893903732,0.003449999960139394,7.603000164031982
6970.864815354113,1654526.0,0.006380000151693821,-0.015799999237060547,-0.00018000000272877514,7.484000205993652
6970.865815126035,1654527.0,0.005570000037550926,-0.010900000110268593,-0.0007300000288523734,7.465000152587891
6970.866814897958,1654528.0,0.0030499999411404133,-0.011719999834895134,0.0045900000259280205,7.5320000648498535
6970.867814669881,1654529.0,-0.0021100000012665987,-0.014709999784827232,0.0024500000290572643,7.4710001945495605
6970.868814441804,1654530.0,-0.004670000169426203,-0.00839999970048666,-0.00018000000272877514,7.461999893188477
6970.869814213726,1654531.0,-0.003949999809265137,-0.0052200001664459705,0.0007300000288523734,7.190999984741211
6970.870813985649,1654532.0,-0.0016199999954551458,-0.0036299999337643385,-0.00018000000272877514,7.1529998779296875
6970.871813757572,1654533.0,0.00018000000272877514,0.008170000277459621,0.000910000002477318,7.410999774932861
6970.872813529495,1654534.0,-0.0003600000054575503,-0.0015899999998509884,0.00031999999191612005,7.413000106811523
6970.873813301418,1654535.0,-0.0007200000109151006,-0.0030900000128895044,-0.0015399999683722854,7.367000102996826
6970.87481307334,1654536.0,-0.001979999942705035,0.006719999946653843,0.003449999960139394,7.372000217437744
6970.875812845263,1654537.0,-0.002520000096410513,0.003909999970346689,-0.004089999943971634,7.077000141143799
6970.876812617185,1654538.0,-0.00279000005684793,0.006130000110715628,-0.006089999806135893,7.311999797821045
6970.877812389109,1654539.0,-0.0037700000684708357,-0.00044999999227002263,-0.0076299998909235,7.265999794006348
6970.878812161031,1654540.0,-0.004129999782890081,-0.00018000000272877514,-0.0025400000158697367,7.369999885559082
6970.879811932954,1654541.0,-0.0027000000700354576,0.0059899999760091305,-0.006719999946653843,7.244999885559082
6970.880811704877,1654542.0,-0.0007200000109151006,0.022709999233484268,-0.006719999946653843,7.061999797821045
6970.881811476799,1654543.0,0.0008999999845400453,0.01761999912559986,-0.008170000277459621,7.2170000076293945
6970.882811248723,1654544.0,0.00279000005684793,0.010080000385642052,-0.003909999970346689,7.244999885559082
6970.883811020645,1654545.0,0.0020699999295175076,-0.002589999930933118,-0.0012700000079348683,7.309000015258789
6970.884810792568,1654546.0,0.0,-0.006810000166296959,0.004720000084489584,7.198999881744385
6970.88581056449,1654547.0,-0.002469999948516488,-0.02143000066280365,0.005040000192821026,7.111999988555908
6970.886810336413,1654548.0,-0.005080000031739473,-0.0228899996727705,0.005900000222027302,7.275000095367432
6970.8878101083355,1654549.0,-0.010239999741315842,-0.02256999909877777,-0.002360000042244792,7.056000232696533
6970.888809880259,1654550.0,-0.01671000011265278,-0.029020000249147415,-0.00267999991774559,7.03000020980835
6970.889809652182,1654551.0,-0.02223999984562397,-0.013620000332593918,-0.004679999779909849,6.927000045776367
6970.890809424104,1654552.0,-0.027990000322461128,-0.00949000008404255,-0.008899999782443047,7.202000141143799
6970.891809196027,1654553.0,-0.03172000125050545,0.0027199999894946814,-0.0034099998883903027,7.046999931335449
6970.892808967949,1654554.0,-0.03387000039219856,-0.012350000441074371,-0.007540000136941671,6.85099983215332
6970.893808739873,1654555.0,-0.03558000177145004,0.004269999917596579,-0.0021800000686198473,7.073999881744385
6970.894808511795,1654556.0,-0.03733000159263611,0.020980000495910645,0.0016299999551847577,7.004000186920166
6970.895808283718,1654557.0,-0.03971000015735626,0.010259999893605709,0.006719999946653843,6.98199987411499
6970.896808055641,1654558.0,-0.0393499992787838,0.016209999099373817,-0.0025400000158697367,6.756999969482422
6970.897807827563,1654559.0,-0.038989998400211334,0.002950000111013651,0.003539999946951866,6.942999839782715
6970.898807599486,1654560.0,-0.037379998713731766,-0.00044999999227002263,-0.008170000277459621,6.946000099182129
6970.899807371409,1654561.0,-0.03477000072598457,-0.009170000441372395,-0.013079999946057796,7.004000186920166
6970.900807143332,1654562.0,-0.03162999823689461,-0.023070000112056732,-0.009259999729692936,7.0370001792907715
6970.901806915254,1654563.0,-0.030729999765753746,-0.007079999893903732,-0.006130000110715628,6.885000228881836
6970.902806687177,1654564.0,-0.03037000074982643,0.000910000002477318,-0.0025400000158697367,6.908999919891357
6970.9038064591,1654565.0,-0.02947000041604042,0.0076299998909235,-0.00044999999227002263,6.869999885559082
6970.904806231023,1654566.0,-0.02986999973654747,0.007899999618530273,-0.004900000058114529,6.9029998779296875
6970.905806002946,1654567.0,-0.030009999871253967,0.000910000002477318,-0.0019099999917671084,6.823999881744385
6970.906805774868,1654568.0,-0.03109000064432621,-0.004449999891221523,0.01071999967098236,6.763000011444092
6970.907805546791,1654569.0,-0.03215999901294708,-0.003269999986514449,0.009080000221729279,6.6020002365112305
6970.908805318713,1654570.0,-0.03359999880194664,0.0063599999994039536,0.019260000437498093,6.8420000076293945
6970.909805090637,1654571.0,-0.03683999925851822,0.004089999943971634,0.01979999989271164,6.754000186920166
6970.910804862559,1654572.0,-0.042410001158714294,0.0062699997797608376,-0.0007699999841861427,6.710999965667725
6970.911804634482,1654573.0,-0.04690000042319298,0.000539999979082495,-0.009720000438392162,6.689000129699707
6970.912804406405,1654574.0,-0.050360001623630524,-0.0012700000079348683,-0.01752999983727932,6.6529998779296875
6970.913804178327,1654575.0,-0.05192999914288521,0.004900000058114529,-0.013620000332593918,6.676000118255615
6970.914803950251,1654576.0,-0.05062999948859215,-0.006719999946653843,-0.01679999940097332,6.622000217437744
6970.915803722173,1654577.0,-0.05012999847531319,-0.00044999999227002263,-0.005450000055134296,6.754000186920166
6970.916803494096,1654578.0,-0.0471699982881546,0.002360000042244792,-0.01104000024497509,6.610000133514404
6970.917803266018,1654579.0,-0.04295000061392784,-0.004540000110864639,-0.013899999670684338,6.589000225067139
6970.918803037941,1654580.0,-0.0393499992787838,0.00798999983817339,-0.014709999784827232,6.583000183105469
6970.9198028098635,1654581.0,-0.04024999961256981,0.004269999917596579,-0.0018599999602884054,6.60099983215332
6970.920802581787,1654582.0,-0.04205000028014183,-0.005590000189840794,0.003269999986514449,6.50600004196167
6970.92180235371,1654583.0,-0.04187000170350075,0.001449999981559813,0.0024500000290572643,6.627999782562256
6970.922802125632,1654584.0,-0.03971000015735626,-0.0021800000686198473,-0.001180000021122396,6.60099983215332
6970.923801897555,1654585.0,-0.03359999880194664,-0.00795000046491623,0.003269999986514449,6.5980000495910645
6970.924801669478,1654586.0,-0.024979999288916588,-0.01063000038266182,0.016170000657439232,6.572999954223633
6970.925801441401,1654587.0,-0.015629999339580536,-0.004809999838471413,0.010809999890625477,6.519000053405762
6970.926801213323,1654588.0,-0.0071000000461936,0.0029100000392645597,0.001769999973475933,6.458000183105469
6970.927800985246,1654589.0,0.00022000000171829015,0.0020000000949949026,0.0025400000158697367,6.4730000495910645
6970.928800757169,1654590.0,0.005119999870657921,-0.005040000192821026,-0.002360000042244792,6.548999786376953
6970.929800529091,1654591.0,0.00925000011920929,-0.00989999994635582,9.000000136438757e-05,6.502999782562256
6970.930800301015,1654592.0,0.014550000429153442,0.000910000002477318,0.0017300000181421638,6.47599983215332
6970.931800072937,1654593.0,0.019139999523758888,0.003449999960139394,-0.00798999983817339,6.257999897003174
6970.93279984486,1654594.0,0.02363000065088272,0.006089999806135893,0.0006399999838322401,6.51200008392334
6970.933799616782,1654595.0,0.02676999941468239,0.0003600000054575503,-0.006719999946653843,6.38100004196167
6970.934799388705,1654596.0,0.028300000354647636,-0.0006399999838322401,-0.005590000189840794,6.35099983215332
6970.935799160628,1654597.0,0.030640000477433205,-0.006490000057965517,-0.007720000110566616,6.316999912261963
6970.936798932551,1654598.0,0.03562000021338463,-0.002950000111013651,-0.0016299999551847577,6.318999767303467
6970.937798704474,1654599.0,0.04097000136971474,-0.010169999673962593,0.0045900000259280205,6.257999897003174
6970.938798476396,1654600.0,0.04761999845504761,-0.0010000000474974513,-0.0033199999015778303,6.354000091552734
6970.939798248319,1654601.0,0.051569998264312744,0.004900000058114529,-0.0036299999337643385,6.072999954223633
6970.940798020241,1654602.0,0.05485000088810921,0.017980000004172325,-0.004089999943971634,6.099999904632568
6970.941797792165,1654603.0,0.05632999911904335,0.011130000464618206,-0.0029100000392645597,6.263999938964844
6970.942797564087,1654604.0,0.059390000998973846,0.004629999864846468,-0.00535999983549118,6.206999778747559
6970.94379733601,1654605.0,0.06321000307798386,-0.0012700000079348683,0.005309999920427799,6.1579999923706055
6970.944797107933,1654606.0,0.06631000339984894,-0.0010900000343099236,-0.0008200000156648457,6.26800012588501
6970.945796879855,1654607.0,0.06819000095129013,-0.006630000192672014,0.002859999891370535,5.978000164031982
6970.946796651779,1654608.0,0.06846000254154205,-0.01217000000178814,0.001180000021122396,6.164999961853027
6970.947796423701,1654609.0,0.06846000254154205,-0.021250000223517418,0.001820000004954636,6.13700008392334
6970.948796195624,1654610.0,0.06832999736070633,-0.021209999918937683,-0.0020000000949949026,6.145999908447266
6970.949795967546,1654611.0,0.06774000078439713,-0.009630000218749046,-0.00418000016361475,5.89900016784668
6970.950795739469,1654612.0,0.06451000273227692,-0.003590000094845891,-0.008170000277459621,6.151000022888184
6970.9517955113915,1654613.0,0.0574599988758564,-0.011939999647438526,0.004809999838471413,6.099999904632568
6970.952795283315,1654614.0,0.05192999914288521,-0.0020000000949949026,0.003809999907389283,5.914000034332275
6970.953795055238,1654615.0,0.04605000093579292,-0.0033599999733269215,-0.0011399999493733048,6.038000106811523
6970.95479482716,1654616.0,0.040070001035928726,0.0012700000079348683,0.0012700000079348683,6.133999824523926
6970.955794599083,1654617.0,0.03449999913573265,0.008990000002086163,-0.003909999970346689,6.017000198364258
6970.956794371006,1654618.0,0.029829999431967735,0.007079999893903732,0.0021800000686198473,5.942999839782715
6970.957794142929,1654619.0,0.024800000712275505,0.005630000028759241,0.0002300000051036477,5.76800012588501
6970.958793914851,1654620.0,0.01971999928355217,0.012260000221431255,-0.004410000052303076,5.743000030517578
6970.959793686774,1654621.0,0.015049999579787254,0.0063599999994039536,-0.00018000000272877514,5.714000225067139
6970.960793458697,1654622.0,0.010830000042915344,0.005810000002384186,-0.0006799999973736703,5.927000045776367
6970.961793230619,1654623.0,0.007009999826550484,0.006719999946653843,0.003809999907389283,5.927000045776367
6970.962793002543,1654624.0,0.0030499999411404133,-0.006719999946653843,0.003809999907389283,5.828999996185303
6970.963792774465,1654625.0,-0.0008099999977275729,-0.001820000004954636,-0.000910000002477318,5.706999778747559
6970.964792546388,1654626.0,-0.004360000137239695,0.0007300000288523734,-0.006719999946653843,5.718999862670898
6970.96579231831,1654627.0,-0.008089999668300152,-0.007809999864548445,-0.0017300000181421638,5.646999835968018
6970.966792090233,1654628.0,-0.011859999969601631,-0.004769999999552965,0.00044999999227002263,5.914000034332275
6970.967791862156,1654629.0,-0.014550000429153442,0.002360000042244792,-0.001230000052601099,5.828999996185303
6970.968791634079,1654630.0,-0.017069999128580093,-0.0072200000286102295,-0.006810000166296959,5.708000183105469
6970.969791406002,1654631.0,-0.017249999567866325,-0.006539999973028898,-0.005270000081509352,5.572999954223633
6970.970791177924,1654632.0,-0.014910000376403332,0.000539999979082495,-0.001820000004954636,5.547999858856201
6970.971790949847,1654633.0,-0.01343000028282404,0.00018000000272877514,-0.007360000163316727,5.52400016784668
6970.972790721769,1654634.0,-0.0142000000923872,0.0031799999997019768,0.003539999946951866,5.807000160217285
6970.973790493693,1654635.0,-0.014550000429153442,0.003590000094845891,-0.0020000000949949026,5.697999954223633
6970.974790265615,1654636.0,-0.01348000019788742,0.00018000000272877514,0.0020000000949949026,5.609000205993652
6970.975790037538,1654637.0,-0.013120000250637531,4.999999873689376e-05,0.0,5.5920000076293945
6970.976789809461,1654638.0,-0.012400000356137753,0.0062699997797608376,-0.000910000002477318,5.578999996185303
6970.977789581383,1654639.0,-0.011859999969601631,-0.0016299999551847577,0.0016299999551847577,5.563000202178955
6970.978789353307,1654640.0,-0.011590000241994858,-0.0013599999947473407,-0.0034099998883903027,5.728000164031982
6970.979789125229,1654641.0,-0.01221999991685152,-0.004629999864846468,0.0030900000128895044,5.609000205993652
6970.980788897152,1654642.0,-0.0129399998113513,-0.004900000058114529,-0.004769999999552965,5.514999866485596
6970.981788669074,1654643.0,-0.01257999986410141,-0.0030900000128895044,-0.005630000028759241,5.474999904632568
6970.982788440997,1654644.0,-0.011230000294744968,0.0020000000949949026,-0.004269999917596579,5.388999938964844
6970.9837882129195,1654645.0,-0.009429999627172947,0.0019099999917671084,-0.005630000028759241,5.53000020980835
6970.984787984843,1654646.0,-0.00872000027447939,0.003809999907389283,-0.002360000042244792,5.4629998207092285
6970.985787756766,1654647.0,-0.00872000027447939,-0.003809999907389283,0.000590000010561198,5.611999988555908
6970.986787528688,1654648.0,-0.00773000018671155,0.0036299999337643385,0.00018000000272877514,5.313000202178955
6970.987787300611,1654649.0,-0.007819999940693378,-0.008080000057816505,0.004269999917596579,5.511000156402588
6970.988787072534,1654650.0,-0.008630000054836273,-0.010990000329911709,0.0028200000524520874,5.4629998207092285
6970.989786844457,1654651.0,-0.010599999688565731,-0.006539999973028898,0.0015399999683722854,5.456999778747559
6970.990786616379,1654652.0,-0.011680000461637974,-0.006089999806135893,0.01107999961823225,5.234000205993652
6970.991786388302,1654653.0,-0.012760000303387642,0.0024500000290572643,0.0010900000343099236,5.369999885559082
6970.992786160225,1654654.0,-0.012760000303387642,-0.003220000071451068,0.0013599999947473407,5.4079999923706055
6970.993785932147,1654655.0,-0.012040000408887863,0.0030900000128895044,-0.00798999983817339,5.364999771118164
6970.994785704071,1654656.0,-0.010420000180602074,0.004629999864846468,-0.01865999959409237,5.353000164031982
6970.995785475993,1654657.0,-0.008580000139772892,-0.0010000000474974513,-0.00418000016361475,5.422999858856201
6970.996785247916,1654658.0,-0.006649999879300594,-0.009080000221729279,-0.004629999864846468,5.293000221252441
6970.997785019838,1654659.0,-0.0053900000639259815,-9.000000136438757e-05,-0.0015399999683722854,5.311999797821045
6970.998784791761,1654660.0,-0.0037299999967217445,0.0033599999733269215,-0.002630000002682209,5.392000198364258
6970.999784563684,1654661.0,-0.0022499999031424522,0.004000000189989805,0.0,5.2220001220703125
6971.000784335607,1654662.0,-0.00018000000272877514,-0.00044999999227002263,0.0022299999836832285,5.170000076293945
6971.00178410753,1654663.0,-0.0002699999895412475,-0.000910000002477318,-0.0027199999894946814,5.243000030517578
6971.002783879452,1654664.0,-0.001979999942705035,0.00031999999191612005,0.006810000166296959,5.230999946594238
6971.003783651375,1654665.0,0.0009399999980814755,0.000910000002477318,0.004540000110864639,5.0980000495910645
6971.004783423297,1654666.0,0.0028800000436604023,0.00018000000272877514,0.0059899999760091305,5.188000202178955
6971.005783195221,1654667.0,0.0007200000109151006,-0.0019499999471008778,-9.000000136438757e-05,5.160999774932861
6971.006782967143,1654668.0,-0.0026499999221414328,0.004040000028908253,-0.0063599999994039536,5.255000114440918
6971.007782739066,1654669.0,-0.007189999800175428,-0.0028200000524520874,-0.012529999949038029,4.9679999351501465
6971.008782510989,1654670.0,-0.010870000347495079,0.0010000000474974513,-0.007540000136941671,5.047999858856201
6971.009782282912,1654671.0,-0.011950000189244747,0.0016299999551847577,-0.003719999920576811,5.176000118255615
6971.010782054835,1654672.0,-0.012400000356137753,0.0020000000949949026,-0.004449999891221523,5.013000011444092
6971.011781826757,1654673.0,-0.011140000075101852,-0.0059899999760091305,-0.005630000028759241,4.986999988555908
6971.01278159868,1654674.0,-0.009700000286102295,-0.01217000000178814,-0.0010900000343099236,4.961999893188477
6971.013781370602,1654675.0,-0.008940000087022781,0.0010000000474974513,-0.0030900000128895044,5.120999813079834
6971.014781142525,1654676.0,-0.008799999952316284,-9.000000136438757e-05,-0.000539999979082495,5.026000022888184
6971.015780914448,1654677.0,-0.008089999668300152,0.007079999893903732,0.01107999961823225,4.901000022888184
6971.016780686371,1654678.0,-0.009069999679923058,0.005450000055134296,0.003449999960139394,4.802999973297119
6971.017780458294,1654679.0,-0.008179999887943268,0.0017300000181421638,-0.0016299999551847577,4.973999977111816
6971.018780230216,1654680.0,-0.0047599999234080315,-0.002360000042244792,-0.0030900000128895044,4.951000213623047
6971.019780002139,1654681.0,-0.002520000096410513,-0.000539999979082495,0.0022299999836832285,4.855000019073486
6971.020779774062,1654682.0,0.0003600000054575503,0.005859999917447567,-0.0017300000181421638,4.959000110626221
6971.021779545985,1654683.0,-0.000539999979082495,-0.0010400000028312206,-0.005900000222027302,4.913000106811523
6971.022779317907,1654684.0,-0.00107999995816499,-0.007269999943673611,-0.001820000004954636,4.88100004196167
6971.02377908983,1654685.0,-0.00215999991632998,-0.014310000464320183,0.0016299999551847577,4.883999824523926
6971.024778861753,1654686.0,-0.004720000084489584,-0.020160000771284103,0.006719999946653843,4.938000202178955
6971.025778633675,1654687.0,-0.0071000000461936,-0.023070000112056732,-0.0030900000128895044,4.835999965667725
6971.026778405599,1654688.0,-0.009879999794065952,-0.01906999945640564,0.004269999917596579,4.688000202178955
6971.027778177521,1654689.0,-0.014379999600350857,0.0013599999947473407,0.0033199999015778303,4.906000137329102
6971.028777949444,1654690.0,-0.01779000088572502,0.02298000082373619,0.007269999943673611,4.783999919891357
6971.029777721366,1654691.0,-0.020840000361204147,0.01998000033199787,-0.007809999864548445,4.697999954223633
6971.030777493289,1654692.0,-0.021740000694990158,0.013530000112950802,-0.015030000358819962,4.776000022888184
6971.031777265212,1654693.0,-0.02111000008881092,0.01143999956548214,-0.017799999564886093,4.638999938964844
6971.032777037135,1654694.0,-0.01841999962925911,-0.013079999946057796,-0.011939999647438526,4.828000068664551
6971.033776809058,1654695.0,-0.011500000022351742,-0.015259999781847,0.006130000110715628,4.556000232696533
6971.03477658098,1654696.0,-0.0035000001080334187,-0.008170000277459621,0.007720000110566616,4.684000015258789
6971.035776352903,1654697.0,0.00107999995816499,0.005900000222027302,0.009809999726712704,4.675000190734863
6971.036776124825,1654698.0,0.004220000002533197,0.00418000016361475,0.01107999961823225,4.757999897003174
6971.037775896749,1654699.0,0.004720000084489584,-0.0009500000160187483,0.004540000110864639,4.638999938964844
6971.038775668671,1654700.0,0.0035000001080334187,-0.01071999967098236,0.010400000028312206,4.540999889373779
6971.039775440594,1654701.0,0.004129999782890081,-0.002360000042244792,-0.00418000016361475,4.5960001945495605
6971.040775212517,1654702.0,0.0035000001080334187,-0.005810000002384186,-0.002630000002682209,4.574999809265137
6971.04177498444,1654703.0,0.00018000000272877514,0.000539999979082495,-0.0012700000079348683,4.572000026702881
6971.042774756363,1654704.0,-0.0016199999954551458,-0.002360000042244792,0.0017300000181421638,4.448999881744385
6971.043774528285,1654705.0,-0.004129999782890081,0.00571999978274107,-0.004540000110864639,4.598999977111816
6971.044774300208,1654706.0,-0.006200000178068876,0.00798999983817339,-0.01143999956548214,4.519999980926514
6971.04577407213,1654707.0,-0.006200000178068876,0.009080000221729279,-0.006630000192672014,4.607999801635742
6971.046773844053,1654708.0,-0.005530000198632479,0.0029100000392645597,-0.0010900000343099236,4.559000015258789
6971.047773615976,1654709.0,-0.007910000160336494,-0.0016299999551847577,-0.000539999979082495,4.459000110626221
6971.048773387899,1654710.0,-0.012400000356137753,-0.00018000000272877514,-0.006539999973028898,4.473999977111816
6971.049773159822,1654711.0,-0.015809999778866768,0.0017300000181421638,-0.004769999999552965,4.3460001945495605
6971.050772931744,1654712.0,-0.022369999438524246,-0.0008200000156648457,-0.008170000277459621,4.5229997634887695
6971.051772703667,1654713.0,-0.029109999537467957,0.023070000112056732,-0.003809999907389283,4.333000183105469
6971.05277247559,1654714.0,-0.029920000582933426,0.021980000659823418,-0.0010900000343099236,4.285999774932861
6971.053772247513,1654715.0,-0.027629999443888664,0.01689000055193901,0.002630000002682209,4.260000228881836
6971.054772019435,1654716.0,-0.02363000065088272,0.003949999809265137,-0.008270000107586384,4.431000232696533
6971.055771791358,1654717.0,-0.01841999962925911,-0.01066999975591898,-0.005900000222027302,4.3460001945495605
6971.056771563281,1654718.0,-0.012760000303387642,-0.015799999237060547,0.006180000025779009,4.208000183105469
6971.057771335203,1654719.0,-0.0071000000461936,-0.021390000358223915,0.015169999562203884,4.331999778747559
6971.058771107127,1654720.0,-0.007009999826550484,-0.029750000685453415,0.00535999983549118,4.2829999923706055
6971.059770879049,1654721.0,-0.0071000000461936,-0.03215000033378601,0.0006799999973736703,4.269000053405762
6971.060770650972,1654722.0,-0.007280000019818544,-0.019209999591112137,0.002090000081807375,4.131999969482422
6971.061770422894,1654723.0,-0.008179999887943268,-0.0027199999894946814,0.0016799999866634607,4.260000228881836
6971.062770194818,1654724.0,-0.0083600003272295,-0.008170000277459621,0.0012700000079348683,4.230000019073486
6971.06376996674,1654725.0,-0.009700000286102295,0.0012700000079348683,0.0021800000686198473,4.265999794006348
6971.064769738663,1654726.0,-0.012040000408887863,0.023800000548362732,0.000910000002477318,4.290999889373779
6971.065769510586,1654727.0,-0.014469999819993973,0.036970000714063644,0.003539999946951866,4.190000057220459
6971.066769282508,1654728.0,-0.016620000824332237,0.029249999672174454,-0.002360000042244792,4.138000011444092
6971.067769054431,1654729.0,-0.015809999778866768,0.007899999618530273,-0.007079999893903732,3.9609999656677246
6971.068768826354,1654730.0,-0.011230000294744968,-0.009170000441372395,-0.0016299999551847577,4.181000232696533
6971.069768598277,1654731.0,-0.00215999991632998,-0.022520000115036964,-0.004720000084489584,4.169000148773193
6971.070768370199,1654732.0,0.00872000027447939,-0.028519999235868454,0.0002699999895412475,4.140999794006348
6971.071768142122,1654733.0,0.01348000019788742,-0.03596999868750572,0.00044999999227002263,3.992000102996826
6971.072767914045,1654734.0,0.016130000352859497,-0.029020000249147415,0.009630000218749046,4.139999866485596
6971.073767685968,1654735.0,0.01779000088572502,-0.013399999588727951,0.008449999615550041,4.052999973297119
6971.074767457891,1654736.0,0.019139999523758888,0.004720000084489584,0.004269999917596579,4.089000225067139
6971.075767229813,1654737.0,0.01841999962925911,0.013989999890327454,0.005090000107884407,4.006999969482422
6971.076767001736,1654738.0,0.019950000569224358,0.003449999960139394,-0.000910000002477318,3.940999984741211
6971.077766773658,1654739.0,0.022280000150203705,0.0051299999468028545,-0.009809999726712704,3.802000045776367
6971.078766545581,1654740.0,0.021379999816417694,0.018890000879764557,-0.013899999670684338,3.9670000076293945
6971.079766317504,1654741.0,0.01923000067472458,0.004089999943971634,-0.006089999806135893,3.9489998817443848
6971.080766089427,1654742.0,0.018689999356865883,0.005630000028759241,-0.0083600003272295,3.8350000381469727
6971.08176586135,1654743.0,0.017430000007152557,0.007400000002235174,-0.0076299998909235,3.809999942779541
6971.082765633272,1654744.0,0.015410000458359718,0.01143999956548214,-0.00913000013679266,3.759999990463257
6971.083765405195,1654745.0,0.01348000019788742,0.015490000136196613,-0.007079999893903732,3.875999927520752
6971.084765177118,1654746.0,0.009610000066459179,0.006949999835342169,-0.004720000084489584,3.683000087738037
6971.085764949041,1654747.0,0.0028800000436604023,0.0033199999015778303,0.004999999888241291,3.8329999446868896
6971.086764720963,1654748.0,-0.002959999954327941,0.0063599999994039536,0.000910000002477318,3.6679999828338623
6971.087764492886,1654749.0,-0.005080000031739473,0.0063599999994039536,-0.0003600000054575503,3.8299999237060547
6971.088764264809,1654750.0,-0.0037700000684708357,0.016209999099373817,-0.004040000028908253,3.7899999618530273
6971.089764036731,1654751.0,-0.00107999995816499,0.010169999673962593,-0.0017300000181421638,3.7780001163482666
6971.090763808655,1654752.0,-0.0003600000054575503,0.0031799999997019768,-0.000539999979082495,3.756999969482422
6971.091763580577,1654753.0,0.0014400000218302011,-0.01217000000178814,0.009449999779462814,3.5829999446868896
6971.0927633525,1654754.0,0.003590000094845891,-0.030339999124407768,0.005040000192821026,3.7309999465942383
6971.093763124422,1654755.0,0.0023799999617040157,-0.04763999953866005,-0.0020000000949949026,3.7109999656677246
6971.094762896346,1654756.0,0.000539999979082495,-0.04487000033259392,-0.003220000071451068,3.700000047683716
6971.095762668268,1654757.0,-0.0004900000058114529,-0.03305999934673309,0.003449999960139394,3.609999895095825
6971.096762440191,1654758.0,-0.0027000000700354576,-0.004999999888241291,0.0002300000051036477,3.697000026702881
6971.097762212114,1654759.0,-0.0069599999114871025,-0.0002699999895412475,-0.0017300000181421638,3.6700000762939453
6971.098761984036,1654760.0,-0.011049999855458736,0.005040000192821026,-0.005450000055134296,3.634999990463257
6971.099761755959,1654761.0,-0.0185100007802248,0.017480000853538513,-0.008899999782443047,3.615999937057495
6971.100761527882,1654762.0,-0.025699999183416367,0.007269999943673611,-0.011989999562501907,3.6010000705718994
6971.101761299805,1654763.0,-0.03305999934673309,0.014170000329613686,-0.002360000042244792,3.4149999618530273
6971.102761071727,1654764.0,-0.040070001035928726,0.003909999970346689,-0.007400000002235174,3.5429999828338623
6971.10376084365,1654765.0,-0.0428600013256073,0.008670000359416008,-0.004040000028908253,3.558000087738037
6971.104760615573,1654766.0,-0.040789999067783356,0.0003600000054575503,-0.005539999809116125,3.621000051498413
6971.105760387496,1654767.0,-0.03531000018119812,0.0019099999917671084,-0.0051299999468028545,3.561000108718872
6971.106760159419,1654768.0,-0.029020000249147415,0.007449999917298555,-0.006539999973028898,3.38700008392334
6971.107759931341,1654769.0,-0.027720000594854355,0.0003600000054575503,0.0010900000343099236,3.571000099182129
6971.108759703264,1654770.0,-0.02694999985396862,0.0027199999894946814,-0.0027199999894946814,3.4760000705718994
6971.109759475186,1654771.0,-0.024390000849962234,-0.002630000002682209,-0.005270000081509352,3.3450000286102295
6971.110759247109,1654772.0,-0.02022000029683113,0.00875999964773655,-0.005179999861866236,3.3310000896453857
6971.111759019032,1654773.0,-0.0142000000923872,0.004449999891221523,-0.006310000084340572,3.2730000019073486
6971.112758790955,1654774.0,-0.005570000037550926,0.0010900000343099236,-0.003449999960139394,3.4000000953674316
6971.113758562878,1654775.0,0.0009899999713525176,-0.004629999864846468,0.00686000008136034,3.2709999084472656
6971.1147583348,1654776.0,0.007819999940693378,-0.004540000110864639,0.007180000189691782,3.438999891281128
6971.115758106723,1654777.0,0.014689999632537365,0.0033599999733269215,0.004040000028908253,3.2100000381469727
6971.116757878646,1654778.0,0.01931999996304512,0.00875999964773655,0.0059899999760091305,3.183000087738037
6971.117757650569,1654779.0,0.023900000378489494,0.009630000218749046,-0.003719999920576811,3.194999933242798
6971.118757422491,1654780.0,0.0257399994879961,0.007899999618530273,-0.010350000113248825,3.3259999752044678
6971.119757194414,1654781.0,0.027310000732541084,0.0020000000949949026,0.010809999890625477,3.26200008392334
6971.120756966337,1654782.0,0.027130000293254852,-0.006810000166296959,0.002360000042244792,3.2809998989105225
6971.121756738259,1654783.0,0.025919999927282333,-0.010080000385642052,-0.002360000042244792,3.2899999618530273
6971.122756510183,1654784.0,0.023900000378489494,-0.01063000038266182,-0.008539999835193157,3.191999912261963
6971.123756282105,1654785.0,0.02215000055730343,0.003809999907389283,-0.006180000025779009,3.119999885559082
6971.124756054028,1654786.0,0.020309999585151672,0.021980000659823418,-0.010540000163018703,3.240999937057495
6971.12575582595,1654787.0,0.01779000088572502,0.004900000058114529,-0.007269999943673611,3.1429998874664307
6971.126755597874,1654788.0,0.018330000340938568,-9.000000136438757e-05,-0.012900000438094139,3.2170000076293945
6971.127755369796,1654789.0,0.019950000569224358,-0.02012000046670437,-0.010080000385642052,3.180999994277954
6971.128755141719,1654790.0,0.01891000010073185,-0.0342399999499321,-0.0020000000949949026,3.122999906539917
6971.129754913642,1654791.0,0.01689000055193901,-0.024250000715255737,0.01217000000178814,3.0269999504089355
6971.130754685564,1654792.0,0.01590000092983246,-0.02071000076830387,-0.003449999960139394,3.121999979019165
6971.131754457487,1654793.0,0.016529999673366547,-0.01826000027358532,0.003220000071451068,2.984999895095825
6971.13275422941,1654794.0,0.015629999339580536,-0.02434000000357628,0.0036800000816583633,3.1040000915527344
6971.133754001333,1654795.0,0.0142000000923872,-0.01143999956548214,0.01607999950647354,2.936000108718872
6971.134753773255,1654796.0,0.0142000000923872,0.0010900000343099236,0.009809999726712704,2.9110000133514404
6971.135753545178,1654797.0,0.011549999937415123,-0.001180000021122396,0.003000000026077032,3.0409998893737793
6971.136753317101,1654798.0,0.009519999846816063,0.01143999956548214,-0.0027199999894946814,2.9240000247955322
6971.137753089024,1654799.0,0.007369999773800373,0.013810000382363796,0.004999999888241291,3.114000082015991
6971.138752860947,1654800.0,0.00610999995842576,0.016620000824332237,0.0059899999760091305,3.003999948501587
6971.139752632869,1654801.0,0.005929999984800816,0.007809999864548445,0.0063599999994039536,3.0980000495910645
6971.140752404792,1654802.0,0.0034600000362843275,0.008449999615550041,0.0003600000054575503,3.052000045776367
6971.141752176714,1654803.0,-0.0016199999954551458,0.013670000247657299,-0.004809999838471413,2.989000082015991
6971.142751948637,1654804.0,-0.006020000204443932,0.004900000058114529,-0.00418000016361475,2.9240000247955322
6971.14375172056,1654805.0,-0.007910000160336494,-0.0019099999917671084,-0.009080000221729279,2.809000015258789
6971.144751492483,1654806.0,-0.007639999967068434,-0.000539999979082495,-0.003590000094845891,2.98799991607666
6971.145751264406,1654807.0,-0.005210000090301037,-0.011350000277161598,-0.000910000002477318,2.984999895095825
6971.146751036328,1654808.0,-0.0017099999822676182,-0.005179999861866236,0.003220000071451068,2.9719998836517334
6971.147750808252,1654809.0,-0.0003600000054575503,0.004360000137239695,0.0016299999551847577,2.9509999752044678
6971.148750580174,1654810.0,0.0012600000482052565,0.005539999809116125,-0.007809999864548445,2.8410000801086426
6971.149750352097,1654811.0,0.002739999908953905,-0.00014000000373926014,-0.00018000000272877514,2.7360000610351562
6971.150750124019,1654812.0,0.005210000090301037,0.002859999891370535,-0.0051299999468028545,2.8259999752044678
6971.151749895942,1654813.0,0.006289999932050705,0.0027199999894946814,-0.007809999864548445,2.805000066757202
6971.152749667865,1654814.0,0.006920000072568655,0.005810000002384186,-0.004809999838471413,2.7850000858306885
6971.153749439788,1654815.0,0.0083600003272295,0.004269999917596579,-0.006810000166296959,2.802000045776367
6971.154749211711,1654816.0,0.009789999574422836,0.01217000000178814,-0.0021800000686198473,2.5969998836517334
6971.155748983633,1654817.0,0.010239999741315842,-0.001769999973475933,-0.00839999970048666,2.691999912261963
6971.156748755556,1654818.0,0.011409999802708626,-0.0027199999894946814,0.004720000084489584,2.7219998836517334
6971.157748527478,1654819.0,0.01217000000178814,0.00203999993391335,-9.000000136438757e-05,2.7109999656677246
6971.158748299402,1654820.0,0.01131999958306551,0.00018000000272877514,-0.004720000084489584,2.686000108718872
6971.159748071324,1654821.0,0.009569999761879444,-0.004900000058114529,0.0006799999973736703,2.7709999084472656
6971.160747843247,1654822.0,0.009069999679923058,-0.0002699999895412475,-0.0024500000290572643,2.678999900817871
6971.16174761517,1654823.0,0.008630000054836273,-0.009990000165998936,0.01063000038266182,2.5820000171661377
6971.162747387092,1654824.0,0.008270000107586384,-0.013849999755620956,0.003539999946951866,2.6489999294281006
6971.163747159015,1654825.0,0.008539999835193157,-0.008899999782443047,-0.0033599999733269215,2.628000020980835
6971.164746930938,1654826.0,0.00872000027447939,-0.002360000042244792,-0.001449999981559813,2.5989999771118164
6971.165746702861,1654827.0,0.009159999899566174,0.0007300000288523734,0.008630000054836273,2.6549999713897705
6971.166746474783,1654828.0,0.009700000286102295,-0.000539999979082495,0.0030900000128895044,2.5910000801086426
6971.167746246706,1654829.0,0.010329999960958958,-0.0022700000554323196,0.006719999946653843,2.4630000591278076
6971.168746018629,1654830.0,0.01131999958306551,-0.006899999920278788,0.0064500002190470695,2.553999900817871
6971.169745790552,1654831.0,0.011680000461637974,-0.011579999700188637,0.00803999975323677,2.5269999504089355
6971.170745562475,1654832.0,0.010649999603629112,0.008670000359416008,-0.003590000094845891,2.5250000953674316
6971.171745334397,1654833.0,0.009519999846816063,0.006039999891072512,-0.012129999697208405,2.4719998836517334
6971.17274510632,1654834.0,0.008980000391602516,-0.0003600000054575503,-0.008539999835193157,2.4839999675750732
6971.173744878242,1654835.0,0.007459999993443489,0.0021800000686198473,-0.006630000192672014,2.312999963760376
6971.174744650165,1654836.0,0.007189999800175428,-0.0008200000156648457,-0.0059899999760091305,2.4509999752044678
6971.175744422088,1654837.0,0.00646999990567565,0.0030900000128895044,-0.0031300000846385956,2.447999954223633
6971.176744194011,1654838.0,0.005929999984800816,0.0031799999997019768,-0.0022299999836832285,2.427999973297119
6971.177743965934,1654839.0,0.006829999852925539,0.00989999994635582,-0.003590000094845891,2.3010001182556152
6971.178743737856,1654840.0,0.008310000412166119,0.01744000054895878,0.009630000218749046,2.4119999408721924
6971.17974350978,1654841.0,0.008980000391602516,-0.0012700000079348683,-0.000539999979082495,2.2219998836517334
6971.180743281702,1654842.0,0.010060000233352184,-0.01107999961823225,-0.004360000137239695,2.380000114440918
6971.181743053625,1654843.0,0.012670000083744526,-0.02442999929189682,-0.006949999835342169,2.194000005722046
6971.182742825547,1654844.0,0.014019999653100967,-0.038509998470544815,-0.003000000026077032,2.181999921798706
6971.18374259747,1654845.0,0.017430000007152557,-0.03446999937295914,-4.999999873689376e-05,2.3959999084472656
6971.184742369393,1654846.0,0.019859999418258667,-0.019260000437498093,0.00014000000373926014,2.2920000553131104
6971.185742141316,1654847.0,0.020169999450445175,0.0020000000949949026,-0.005900000222027302,2.1730000972747803
6971.186741913239,1654848.0,0.017969999462366104,0.01711999997496605,-0.006810000166296959,2.1449999809265137
6971.187741685161,1654849.0,0.016349999234080315,0.010080000385642052,-0.001820000004954636,2.121000051498413
6971.188741457084,1654850.0,0.015540000051259995,0.005630000028759241,-0.005810000002384186,2.1089999675750732
6971.189741229006,1654851.0,0.01779000088572502,0.010350000113248825,0.0027199999894946814,2.303999900817871
6971.19074100093,1654852.0,0.019770000129938126,0.00872000027447939,-0.007180000189691782,2.240000009536743
6971.191740772852,1654853.0,0.022460000589489937,-0.0010000000474974513,0.0029100000392645597,2.260999917984009
6971.192740544775,1654854.0,0.024620000272989273,0.006719999946653843,0.007720000110566616,2.252000093460083
6971.193740316698,1654855.0,0.02655000053346157,-0.003809999907389283,0.004000000189989805,2.249000072479248
6971.19474008862,1654856.0,0.02776000089943409,-0.0030900000128895044,0.001180000021122396,2.2279999256134033
6971.195739860543,1654857.0,0.02606000006198883,-0.000539999979082495,-0.005810000002384186,2.1670000553131104
6971.196739632466,1654858.0,0.0243500005453825,0.0030900000128895044,0.0059899999760091305,2.1610000133514404
6971.197739404389,1654859.0,0.019950000569224358,0.000910000002477318,-0.007079999893903732,1.9709999561309814
6971.198739176311,1654860.0,0.011549999937415123,0.004720000084489584,-0.0022700000554323196,1.9589999914169312
6971.199738948234,1654861.0,0.005030000116676092,-0.000539999979082495,-0.0030900000128895044,1.9520000219345093
6971.200738720157,1654862.0,0.0037700000684708357,-0.0021299999207258224,-0.008899999782443047,2.059999942779541
6971.20173849208,1654863.0,0.005710000172257423,0.009809999726712704,0.0003600000054575503,1.9259999990463257
6971.202738264003,1654864.0,0.007009999826550484,-4.999999873689376e-05,0.000539999979082495,2.115000009536743
6971.203738035925,1654865.0,0.00773000018671155,-0.007449999917298555,0.004900000058114529,1.9119999408721924
6971.204737807848,1654866.0,0.007280000019818544,-0.0044999998062849045,0.009630000218749046,1.88100004196167
6971.20573757977,1654867.0,0.008489999920129776,-0.008489999920129776,0.013079999946057796,1.878000020980835
6971.206737351694,1654868.0,0.010420000180602074,-0.008539999835193157,0.0036800000816583633,1.9739999771118164
6971.207737123616,1654869.0,0.011719999834895134,0.0028200000524520874,0.009630000218749046,1.8329999446868896
6971.208736895539,1654870.0,0.010780000127851963,-0.002360000042244792,-0.004449999891221523,2.0
6971.209736667462,1654871.0,0.009069999679923058,-0.000859999970998615,-0.006899999920278788,1.809999942779541
6971.210736439384,1654872.0,0.008449999615550041,0.0063599999994039536,-0.003909999970346689,1.809999942779541
6971.211736211308,1654873.0,0.007819999940693378,0.011169999837875366,-0.0030900000128895044,1.8040000200271606
6971.21273598323,1654874.0,0.0083600003272295,0.004900000058114529,-0.009259999729692936,1.8919999599456787
6971.213735755153,1654875.0,0.009610000066459179,-0.00418000016361475,-0.0007300000288523734,1.7549999952316284
6971.214735527075,1654876.0,0.009340000338852406,-0.0062699997797608376,0.010900000110268593,1.9470000267028809
6971.215735298998,1654877.0,0.010239999741315842,-0.0059899999760091305,0.0027699999045580626,1.7330000400543213
6971.216735070921,1654878.0,0.010239999741315842,-0.009630000218749046,0.0012700000079348683,1.7269999980926514
6971.217734842844,1654879.0,0.008449999615550041,-0.011350000277161598,-0.0012700000079348683,1.715000033378601
6971.218734614767,1654880.0,0.004540000110864639,-0.005900000222027302,-0.007809999864548445,1.8009999990463257
6971.219734386689,1654881.0,-0.0012600000482052565,0.0007300000288523734,-0.003809999907389283,1.6660000085830688
6971.220734158612,1654882.0,-0.0034099998883903027,-0.002950000111013651,-0.006219999864697456,1.8550000190734863
6971.221733930534,1654883.0,-0.004129999782890081,-0.0015399999683722854,0.0007699999841861427,1.6779999732971191
6971.222733702458,1654884.0,-0.003949999809265137,0.007079999893903732,-0.005450000055134296,1.6419999599456787
6971.22373347438,1654885.0,-0.0026100000832229853,0.00839999970048666,-0.003449999960139394,1.6299999952316284
6971.224733246303,1654886.0,-0.0011699999449774623,0.004629999864846468,-0.0020000000949949026,1.7970000505447388
6971.225733018226,1654887.0,-0.00044999999227002263,-0.0012700000079348683,0.007079999893903732,1.7059999704360962
6971.226732790148,1654888.0,-0.0008999999845400453,-0.004809999838471413,0.000539999979082495,1.5779999494552612
6971.227732562071,1654889.0,-0.0008999999845400453,0.003449999960139394,-0.005630000028759241,1.569000005722046
6971.228732333994,1654890.0,-0.0011699999449774623,0.014399999752640724,-0.0063599999994039536,1.6779999732971191
6971.229732105917,1654891.0,-0.0018899999558925629,0.0031799999997019768,-0.003719999920576811,1.6540000438690186
6971.230731877839,1654892.0,-0.0016199999954551458,9.000000136438757e-05,-0.0005000000237487257,1.4950000047683716
6971.231731649762,1654893.0,-0.00279000005684793,-0.007400000002235174,0.001500000013038516,1.7039999961853027
6971.2327314216855,1654894.0,-0.003229999914765358,-0.017260000109672546,-0.0025400000158697367,1.6109999418258667
6971.233731193608,1654895.0,-0.0030499999411404133,-0.012350000441074371,-0.0022299999836832285,1.6169999837875366
6971.234730965531,1654896.0,-0.003949999809265137,-0.00880999956279993,-0.003269999986514449,1.5880000591278076
6971.235730737453,1654897.0,-0.004809999838471413,-0.008630000054836273,0.0,1.6449999809265137
6971.236730509376,1654898.0,-0.005030000116676092,-0.01143999956548214,-0.0007300000288523734,1.5529999732971191
6971.237730281298,1654899.0,-0.005439999978989363,0.003539999946951866,0.004809999838471413,1.430999994277954
6971.238730053222,1654900.0,-0.005119999870657921,0.008899999782443047,-0.000539999979082495,1.5379999876022339
6971.239729825144,1654901.0,-0.004490000195801258,0.002360000042244792,-0.004769999999552965,1.5440000295639038
6971.240729597067,1654902.0,-0.005030000116676092,-0.005539999809116125,-0.004900000058114529,1.555999994277954
6971.24172936899,1654903.0,-0.00547999981790781,0.0006799999973736703,-0.005950000137090683,1.3980000019073486
6971.242729140912,1654904.0,-0.005929999984800816,0.002950000111013651,-0.004540000110864639,1.5199999809265137
6971.243728912836,1654905.0,-0.006289999932050705,0.0064500002190470695,0.007269999943673611,1.3339999914169312
6971.244728684758,1654906.0,-0.006870000157505274,0.0028200000524520874,0.002360000042244792,1.4859999418258667
6971.245728456681,1654907.0,-0.007639999967068434,0.0016299999551847577,0.0021299999207258224,1.4950000047683716
6971.246728228603,1654908.0,-0.007189999800175428,-0.003590000094845891,-0.00018000000272877514,1.5010000467300415
6971.247728000526,1654909.0,-0.006649999879300594,-0.001500000013038516,-0.005630000028759241,1.2760000228881836
6971.248727772449,1654910.0,-0.007499999832361937,0.008170000277459621,-0.0015399999683722854,1.4220000505447388
6971.249727544372,1654911.0,-0.006289999932050705,-0.0015399999683722854,-0.008270000107586384,1.2450000047683716
6971.250727316295,1654912.0,-0.006560000125318766,-0.0036800000816583633,-0.002589999930933118,1.3730000257492065
6971.251727088217,1654913.0,-0.007009999826550484,0.0064500002190470695,0.0016299999551847577,1.375
6971.25272686014,1654914.0,-0.006289999932050705,0.011900000274181366,-0.002589999930933118,1.375
6971.253726632062,1654915.0,-0.006289999932050705,0.013260000385344028,-0.010219999589025974,1.1950000524520874
6971.254726403986,1654916.0,-0.006920000072568655,0.01221999991685152,-0.005630000028759241,1.3819999694824219
6971.255726175908,1654917.0,-0.007369999773800373,0.003860000055283308,-0.01143999956548214,1.2879999876022339
6971.256725947831,1654918.0,-0.006920000072568655,-0.00880999956279993,0.001180000021122396,1.3279999494552612
6971.257725719754,1654919.0,-0.005659999791532755,-0.02143000066280365,0.0031799999997019768,1.3200000524520874
6971.258725491676,1654920.0,-0.004490000195801258,-0.023070000112056732,0.0036800000816583633,1.315000057220459
6971.259725263599,1654921.0,-0.003860000055283308,-0.03342000022530556,-0.000539999979082495,1.1169999837875366
6971.260725035522,1654922.0,-0.003590000094845891,-0.021069999784231186,0.0016299999551847577,1.2999999523162842
6971.261724807445,1654923.0,-0.0030499999411404133,0.006899999920278788,-0.0033199999015778303,1.2100000381469727
6971.262724579367,1654924.0,-0.006560000125318766,0.017260000109672546,0.0027699999045580626,1.281999945640564
6971.26372435129,1654925.0,-0.012760000303387642,0.011260000057518482,0.004089999943971634,1.2480000257492065
6971.264724123213,1654926.0,-0.019139999523758888,0.0012700000079348683,0.004360000137239695,1.0829999446868896
6971.265723895136,1654927.0,-0.023180000483989716,0.006719999946653843,-0.0021800000686198473,1.1779999732971191
6971.266723667059,1654928.0,-0.023180000483989716,0.0003600000054575503,-0.00031999999191612005,1.0219999551773071
6971.267723438981,1654929.0,-0.01860000006854534,-0.003269999986514449,-0.0030900000128895044,1.0850000381469727
6971.268723210904,1654930.0,-0.0147299999371171,-0.011260000057518482,-0.0030900000128895044,0.9950000047683716
6971.269722982826,1654931.0,-0.009879999794065952,-0.000539999979082495,-0.0020000000949949026,0.9739999771118164
6971.27072275475,1654932.0,-0.005750000011175871,0.006130000110715628,-0.0024999999441206455,0.9700000286102295
6971.271722526672,1654933.0,-0.0034099998883903027,0.006719999946653843,0.0015399999683722854,1.1660000085830688
6971.272722298595,1654934.0,-0.0015300000086426735,-0.0015399999683722854,-0.0008200000156648457,1.0679999589920044
6971.273722070518,1654935.0,0.0,0.00418000016361475,-0.00535999983549118,0.9279999732971191
6971.27472184244,1654936.0,-0.0017099999822676182,0.021980000659823418,-0.004720000084489584,0.9139999747276306
6971.275721614364,1654937.0,-0.0026100000832229853,0.03579000011086464,-0.001769999973475933,1.0329999923706055
6971.276721386286,1654938.0,-0.004399999976158142,0.019260000437498093,-0.004809999838471413,1.0190000534057617
6971.277721158209,1654939.0,-0.005570000037550926,-0.0027199999894946814,0.0045900000259280205,0.8939999938011169
6971.278720930131,1654940.0,-0.005929999984800816,-0.01107999961823225,0.006719999946653843,1.065000057220459
6971.279720702054,1654941.0,-0.005840000230818987,-0.026340000331401825,-0.006810000166296959,0.8479999899864197
6971.2807204739765,1654942.0,-0.0028299998957663774,-0.028109999373555183,-0.009170000441372395,0.9800000190734863
6971.2817202459,1654943.0,-0.0009899999713525176,-0.032519999891519547,-0.004900000058114529,0.9459999799728394
6971.282720017823,1654944.0,-9.000000136438757e-05,-0.02225000038743019,0.0003600000054575503,0.984000027179718
6971.283719789745,1654945.0,-0.00018000000272877514,-0.012260000221431255,-0.00418000016361475,0.7929999828338623
6971.284719561668,1654946.0,-0.0012600000482052565,-0.00535999983549118,-0.008899999782443047,0.8579999804496765
6971.285719333591,1654947.0,-0.0034099998883903027,-0.0005000000237487257,-0.0030900000128895044,0.9120000004768372
6971.286719105514,1654948.0,-0.005570000037550926,-0.007449999917298555,-0.0030900000128895044,0.9020000100135803
6971.287718877436,1654949.0,-0.006560000125318766,0.006180000025779009,0.000539999979082495,0.890999972820282
6971.288718649359,1654950.0,-0.00610999995842576,0.023070000112056732,0.002409999957308173,0.9020000100135803
6971.289718421282,1654951.0,-0.005570000037550926,0.012079999782145023,0.004269999917596579,0.7099999785423279
6971.290718193204,1654952.0,-0.005570000037550926,0.004900000058114529,0.0010000000474974513,0.6899999976158142
6971.291717965128,1654953.0,-0.00674000009894371,0.0062699997797608376,0.012260000221431255,0.8330000042915344
6971.29271773705,1654954.0,-0.008179999887943268,4.999999873689376e-05,0.0064500002190470695,0.8180000185966492
6971.293717508973,1654955.0,-0.009159999899566174,0.0030900000128895044,0.0029100000392645597,0.796999990940094
6971.294717280895,1654956.0,-0.009879999794065952,-0.0010900000343099236,-0.004410000052303076,0.8510000109672546
6971.295717052818,1654957.0,-0.009340000338852406,-0.0014100000262260437,0.0028200000524520874,0.7580000162124634
6971.296716824741,1654958.0,-0.008940000087022781,0.0012700000079348683,-0.006719999946653843,0.6290000081062317
6971.297716596664,1654959.0,-0.008089999668300152,0.001449999981559813,0.001449999981559813,0.7509999871253967
6971.298716368587,1654960.0,-0.007499999832361937,0.0015399999683722854,-0.00018000000272877514,0.7289999723434448
6971.299716140509,1654961.0,-0.007189999800175428,-0.004900000058114529,-0.004129999782890081,0.718999981880188
6971.300715912432,1654962.0,-0.007139999885112047,0.0006799999973736703,-0.007079999893903732,0.5799999833106995
