LSL_Time,PLUX_P2_nSeq,PLUX_P2_ECG0,PLUX_P2_EMG1,PLUX_P2_EMG2,PLUX_P2_RIP3
6481.005566592028,1164555.0,0.011900000274181366,0.004679999779909849,-0.004000000189989805,18.447999954223633
6481.006566363951,1164556.0,0.017650000751018524,0.000539999979082495,0.0030900000128895044,18.41699981689453
6481.007566135874,1164557.0,0.021740000694990158,0.0029100000392645597,-0.004540000110864639,18.55299949645996
6481.008565907797,1164558.0,0.02102000080049038,-0.0030900000128895044,-0.000910000002477318,18.47800064086914
6481.009565679719,1164559.0,0.018279999494552612,0.004540000110864639,0.004089999943971634,18.586999893188477
6481.010565451642,1164560.0,0.015270000323653221,-0.0059899999760091305,-0.003809999907389283,18.316999435424805
6481.0115652235645,1164561.0,0.011900000274181366,-0.0016299999551847577,0.0016799999866634607,18.389999389648438
6481.012564995488,1164562.0,0.007369999773800373,-0.000910000002477318,-0.004000000189989805,18.358999252319336
6481.013564767411,1164563.0,0.0018400000408291817,-0.0063599999994039536,0.003449999960139394,18.586999893188477
6481.014564539333,1164564.0,-0.0017099999822676182,0.0059899999760091305,0.000539999979082495,18.743999481201172
6481.015564311256,1164565.0,-0.0008099999977275729,-0.005450000055134296,-0.004089999943971634,18.67099952697754
6481.016564083178,1164566.0,0.000539999979082495,-0.005900000222027302,0.001820000004954636,18.798999786376953
6481.017563855102,1164567.0,-0.0003100000030826777,-0.006719999946653843,-0.006180000025779009,18.854000091552734
6481.018563627024,1164568.0,-0.0008999999845400453,-0.0020000000949949026,-0.001820000004954636,18.878000259399414
6481.019563398947,1164569.0,0.0012600000482052565,-0.002589999930933118,-0.0059899999760091305,18.724000930786133
6481.0205631708695,1164570.0,0.001979999942705035,-0.0034099998883903027,-0.004629999864846468,18.906999588012695
6481.021562942792,1164571.0,0.00107999995816499,0.005270000081509352,-0.003000000026077032,18.634000778198242
6481.022562714716,1164572.0,0.004579999949783087,0.0027199999894946814,9.000000136438757e-05,18.952999114990234
6481.023562486638,1164573.0,0.00773000018671155,0.0013599999947473407,0.0030900000128895044,18.951000213623047
6481.024562258561,1164574.0,0.010599999688565731,0.002859999891370535,-0.0063599999994039536,19.006000518798828
6481.025562030483,1164575.0,0.007639999967068434,-0.002360000042244792,0.0031799999997019768,19.135000228881836
6481.026561802406,1164576.0,0.002520000096410513,0.0006799999973736703,0.003539999946951866,19.041000366210938
6481.0275615743285,1164577.0,0.000539999979082495,-0.0033599999733269215,0.005810000002384186,19.00200080871582
6481.028561346252,1164578.0,-0.0012600000482052565,-0.0027199999894946814,-0.004540000110864639,18.951000213623047
6481.029561118175,1164579.0,-0.0026100000832229853,0.000539999979082495,-0.0013599999947473407,19.03700065612793
6481.030560890097,1164580.0,-0.003229999914765358,0.0017300000181421638,0.002360000042244792,19.089000701904297
6481.03156066202,1164581.0,-0.0016199999954551458,-0.005590000189840794,-0.0006399999838322401,19.27199935913086
6481.032560433942,1164582.0,0.000539999979082495,0.0010900000343099236,0.0013599999947473407,19.048999786376953
6481.033560205866,1164583.0,0.00107999995816499,-0.0013599999947473407,-0.00418000016361475,19.402999877929688
6481.034559977788,1164584.0,0.0003100000030826777,-0.006990000139921904,0.0019099999917671084,19.459999084472656
6481.035559749711,1164585.0,-0.002199999988079071,-0.005630000028759241,-0.0016299999551847577,19.506999969482422
6481.0365595216335,1164586.0,-0.0048500001430511475,-0.004129999782890081,-0.0062699997797608376,19.53700065612793
6481.037559293556,1164587.0,-0.006560000125318766,-0.000539999979082495,-0.007079999893903732,19.427000045776367
6481.03855906548,1164588.0,-0.011859999969601631,-0.004449999891221523,-0.0062699997797608376,19.49799919128418
6481.039558837402,1164589.0,-0.015540000051259995,0.000539999979082495,-0.0015399999683722854,19.48200035095215
6481.040558609325,1164590.0,-0.013120000250637531,-0.0002699999895412475,-0.003809999907389283,19.524999618530273
6481.041558381247,1164591.0,-0.008539999835193157,-0.003909999970346689,-0.0051299999468028545,19.55299949645996
6481.04255815317,1164592.0,-0.0048500001430511475,-0.0033599999733269215,0.004269999917596579,19.56800079345703
6481.0435579250925,1164593.0,-0.0034099998883903027,-0.0010900000343099236,0.002950000111013651,19.652999877929688
6481.044557697016,1164594.0,-0.00107999995816499,0.0031799999997019768,0.003809999907389283,19.687000274658203
6481.045557468939,1164595.0,0.005030000116676092,0.002360000042244792,-0.004310000222176313,19.77199935913086
6481.046557240861,1164596.0,0.009519999846816063,0.001449999981559813,0.000910000002477318,19.797000885009766
6481.047557012784,1164597.0,0.011859999969601631,0.0006799999973736703,0.0027199999894946814,19.8700008392334
6481.048556784706,1164598.0,0.015629999339580536,0.002360000042244792,-0.0015899999998509884,19.7450008392334
6481.04955655663,1164599.0,0.015270000323653221,-0.002630000002682209,-0.004449999891221523,19.87299919128418
6481.050556328552,1164600.0,0.015270000323653221,-9.000000136438757e-05,-0.006680000107735395,19.60099983215332
6481.051556100475,1164601.0,0.01679999940097332,-9.000000136438757e-05,0.0033599999733269215,19.891000747680664
6481.0525558723975,1164602.0,0.018149999901652336,0.002090000081807375,0.002950000111013651,19.891000747680664
6481.05355564432,1164603.0,0.017430000007152557,0.003909999970346689,-0.005539999809116125,19.94499969482422
6481.054555416244,1164604.0,0.01671000011265278,0.0036299999337643385,0.002950000111013651,20.135000228881836
6481.055555188166,1164605.0,0.012849999591708183,-0.0007300000288523734,0.00044999999227002263,20.01300048828125
6481.056554960089,1164606.0,0.006649999879300594,0.003590000094845891,-0.004129999782890081,20.111000061035156
6481.057554732011,1164607.0,0.0007200000109151006,-0.00267999991774559,0.005270000081509352,19.849000930786133
6481.058554503934,1164608.0,-0.007369999773800373,0.003809999907389283,-0.003809999907389283,19.937000274658203
6481.0595542758565,1164609.0,-0.010830000042915344,0.0025400000158697367,-0.003719999920576811,19.92799949645996
6481.06055404778,1164610.0,-0.011640000157058239,-0.003909999970346689,-0.003719999920576811,20.232999801635742
6481.061553819703,1164611.0,-0.00965999998152256,-0.0010900000343099236,-0.0010900000343099236,19.801000595092773
6481.062553591625,1164612.0,-0.005750000011175871,-0.006630000192672014,-0.0020000000949949026,20.367000579833984
6481.063553363548,1164613.0,0.0008999999845400453,-0.004269999917596579,-0.004129999782890081,20.218000411987305
6481.06455313547,1164614.0,0.005210000090301037,-0.0063599999994039536,0.004360000137239695,20.19700050354004
6481.065552907394,1164615.0,0.0031900000758469105,-0.000910000002477318,0.0003600000054575503,20.200000762939453
6481.066552679316,1164616.0,0.000539999979082495,-0.0030900000128895044,-0.0016299999551847577,20.41900062561035
6481.067552451239,1164617.0,0.0030499999411404133,0.0021299999207258224,-0.0015399999683722854,19.996999740600586
6481.0685522231615,1164618.0,0.007499999832361937,-0.0012700000079348683,-0.0017300000181421638,20.558000564575195
6481.069551995084,1164619.0,0.010379999876022339,-0.000539999979082495,0.004089999943971634,20.579999923706055
6481.070551767008,1164620.0,0.009429999627172947,-0.0016299999551847577,-0.0015399999683722854,20.625
6481.07155153893,1164621.0,0.00930000003427267,-0.004720000084489584,-0.005179999861866236,20.648000717163086
6481.072551310853,1164622.0,0.009340000338852406,0.000910000002477318,-0.0063599999994039536,20.540000915527344
6481.073551082775,1164623.0,0.008089999668300152,-0.0030900000128895044,-0.004449999891221523,20.479999542236328
6481.074550854698,1164624.0,0.005210000090301037,0.0018599999602884054,-0.0010000000474974513,20.75200080871582
6481.075550626621,1164625.0,0.004220000002533197,0.0025400000158697367,-0.005270000081509352,20.798999786376953
6481.076550398544,1164626.0,0.0035000001080334187,0.004809999838471413,0.0021299999207258224,20.83099937438965
6481.077550170467,1164627.0,0.006020000204443932,0.0021299999207258224,-0.003220000071451068,20.833999633789062
6481.078549942389,1164628.0,0.008849999867379665,-0.004809999838471413,-0.0030900000128895044,20.716999053955078
6481.079549714312,1164629.0,0.01131999958306551,0.0025400000158697367,0.00571999978274107,20.67300033569336
6481.080549486234,1164630.0,0.010649999603629112,-0.005630000028759241,0.0010900000343099236,20.83099937438965
6481.081549258158,1164631.0,0.008089999668300152,-0.007079999893903732,0.0003600000054575503,20.864999771118164
6481.08254903008,1164632.0,0.009069999679923058,-0.004720000084489584,-0.0011399999493733048,20.905000686645508
6481.083548802003,1164633.0,0.008980000391602516,-0.006130000110715628,0.0028200000524520874,21.027999877929688
6481.0845485739255,1164634.0,0.008089999668300152,0.0022299999836832285,0.003809999907389283,20.929000854492188
6481.085548345848,1164635.0,0.005750000011175871,-0.0030900000128895044,0.0007300000288523734,20.965999603271484
6481.086548117772,1164636.0,0.0034099998883903027,0.005900000222027302,-0.003449999960139394,20.96299934387207
6481.087547889694,1164637.0,0.003590000094845891,0.0011399999493733048,0.0030900000128895044,21.01099967956543
6481.088547661617,1164638.0,0.0048500001430511475,0.0020000000949949026,-0.001180000021122396,21.035999298095703
6481.089547433539,1164639.0,0.005570000037550926,0.0027199999894946814,0.0012700000079348683,21.197999954223633
6481.090547205462,1164640.0,0.0048500001430511475,-0.001180000021122396,-0.0031799999997019768,21.1200008392334
6481.0915469773845,1164641.0,0.0030499999411404133,0.0033599999733269215,-0.005450000055134296,21.184999465942383
6481.092546749308,1164642.0,0.0017099999822676182,-0.003809999907389283,-0.000539999979082495,21.152000427246094
6481.093546521231,1164643.0,0.0008999999845400453,-0.006630000192672014,-0.003809999907389283,21.18199920654297
6481.094546293153,1164644.0,0.0006300000241026282,-0.004449999891221523,0.0031300000846385956,21.209999084472656
6481.095546065076,1164645.0,-0.0014400000218302011,-0.005770000163465738,-0.0025400000158697367,21.291000366210938
6481.096545836998,1164646.0,-0.004040000028908253,0.0059899999760091305,0.00018000000272877514,21.104000091552734
6481.097545608922,1164647.0,-0.0027000000700354576,-0.006719999946653843,0.004410000052303076,21.410999298095703
6481.098545380844,1164648.0,-0.0008999999845400453,-0.004129999782890081,-0.0007699999841861427,21.350000381469727
6481.099545152767,1164649.0,0.0008999999845400453,-0.0037700000684708357,-9.000000136438757e-05,21.350000381469727
6481.1005449246895,1164650.0,0.005659999791532755,-0.002360000042244792,-0.003220000071451068,21.32900047302246
6481.101544696612,1164651.0,0.007369999773800373,-0.00044999999227002263,0.0012700000079348683,21.410999298095703
6481.102544468536,1164652.0,0.006829999852925539,-0.0059899999760091305,0.0010900000343099236,21.259000778198242
6481.103544240458,1164653.0,0.008449999615550041,0.003909999970346689,0.0016799999866634607,21.613000869750977
6481.104544012381,1164654.0,0.009970000013709068,0.0002699999895412475,-0.005270000081509352,21.520999908447266
6481.105543784303,1164655.0,0.010110000148415565,0.0036299999337643385,-0.0027199999894946814,21.600000381469727
6481.106543556226,1164656.0,0.010239999741315842,0.006490000057965517,0.003860000055283308,21.613000869750977
6481.107543328149,1164657.0,0.009789999574422836,-0.0036800000816583633,0.00018000000272877514,21.558000564575195
6481.108543100072,1164658.0,0.008580000139772892,0.003449999960139394,-0.0022700000554323196,21.613000869750977
6481.109542871995,1164659.0,0.008799999952316284,-0.009720000438392162,-0.0036800000816583633,21.709999084472656
6481.110542643917,1164660.0,0.009610000066459179,-0.004360000137239695,0.005630000028759241,21.79599952697754
6481.11154241584,1164661.0,0.00872000027447939,-0.003449999960139394,-0.0010000000474974513,21.777000427246094
6481.112542187762,1164662.0,0.008539999835193157,0.0024500000290572643,-0.0033599999733269215,21.81399917602539
6481.113541959686,1164663.0,0.008449999615550041,-0.0020000000949949026,-0.004089999943971634,21.288999557495117
6481.114541731608,1164664.0,0.007369999773800373,-0.0034099998883903027,-0.00418000016361475,21.85700035095215
6481.115541503531,1164665.0,0.00610999995842576,0.000539999979082495,-0.006539999973028898,21.836999893188477
6481.1165412754535,1164666.0,0.0053900000639259815,0.005090000107884407,0.0016799999866634607,21.871999740600586
6481.117541047376,1164667.0,0.00646999990567565,-0.001820000004954636,0.004540000110864639,21.91200065612793
6481.1185408193,1164668.0,0.007910000160336494,-0.0022700000554323196,-0.0029100000392645597,21.941999435424805
6481.119540591222,1164669.0,0.010239999741315842,0.0012700000079348683,0.0016299999551847577,21.9060001373291
6481.120540363145,1164670.0,0.011009999550879002,-0.0024500000290572643,0.0028200000524520874,22.01099967956543
6481.121540135067,1164671.0,0.011500000022351742,0.0027199999894946814,0.002090000081807375,21.959999084472656
6481.12253990699,1164672.0,0.013159999623894691,0.0020000000949949026,-0.0029100000392645597,22.003000259399414
6481.123539678913,1164673.0,0.017650000751018524,0.004360000137239695,-0.005450000055134296,22.006000518798828
6481.124539450836,1164674.0,0.018959999084472656,0.003909999970346689,0.004540000110864639,22.077999114990234
6481.125539222759,1164675.0,0.020309999585151672,-0.004449999891221523,0.0029100000392645597,21.881000518798828
6481.126538994681,1164676.0,0.021069999784231186,0.0036299999337643385,-0.002319999970495701,22.18000030517578
6481.127538766604,1164677.0,0.021740000694990158,-0.00875999964773655,-0.005810000002384186,22.131000518798828
6481.128538538526,1164678.0,0.021609999239444733,-0.005400000140070915,-0.004089999943971634,22.260000228881836
6481.12953831045,1164679.0,0.01931999996304512,-0.0003600000054575503,0.0002300000051036477,22.28700065612793
6481.130538082372,1164680.0,0.01860000006854534,-0.004540000110864639,-0.0021800000686198473,22.16200065612793
6481.131537854295,1164681.0,0.019449999555945396,0.0020000000949949026,0.0010900000343099236,22.29599952697754
6481.1325376262175,1164682.0,0.01779000088572502,-0.010350000113248825,0.0031799999997019768,21.89299964904785
6481.13353739814,1164683.0,0.013120000250637531,0.001180000021122396,-0.002360000042244792,22.35700035095215
6481.134537170064,1164684.0,0.010420000180602074,0.002360000042244792,-0.0006399999838322401,22.381999969482422
6481.135536941986,1164685.0,0.009159999899566174,-0.002360000042244792,-0.005179999861866236,22.413999557495117
6481.136536713909,1164686.0,0.006920000072568655,0.0014100000262260437,0.0030900000128895044,22.388999938964844
6481.137536485831,1164687.0,0.00610999995842576,-0.006180000025779009,0.000539999979082495,22.398000717163086
6481.138536257754,1164688.0,0.006829999852925539,0.0059899999760091305,0.002360000042244792,22.18899917602539
6481.139536029677,1164689.0,0.00773000018671155,-0.0059899999760091305,-0.006539999973028898,22.409000396728516
6481.1405358016,1164690.0,0.007369999773800373,9.000000136438757e-05,-0.0017300000181421638,22.42099952697754
6481.141535573523,1164691.0,0.007910000160336494,0.0016299999551847577,0.007449999917298555,22.43000030517578
6481.142535345445,1164692.0,0.007009999826550484,-0.004000000189989805,-0.004000000189989805,22.604000091552734
6481.143535117368,1164693.0,0.006829999852925539,0.004629999864846468,-0.0022700000554323196,22.540000915527344
6481.14453488929,1164694.0,0.008179999887943268,-0.004360000137239695,-0.002630000002682209,22.70199966430664
6481.145534661214,1164695.0,0.010239999741315842,-0.002950000111013651,0.000910000002477318,22.641000747680664
6481.146534433136,1164696.0,0.012129999697208405,-0.00418000016361475,-0.0015399999683722854,22.73900032043457
6481.147534205059,1164697.0,0.014820000156760216,-0.004540000110864639,-0.0022299999836832285,22.74799919128418
6481.1485339769815,1164698.0,0.01720999926328659,-0.00018000000272877514,-0.0013200000394135714,22.454999923706055
6481.149533748904,1164699.0,0.021199999377131462,-0.005630000028759241,0.0028200000524520874,22.777999877929688
6481.150533520828,1164700.0,0.022460000589489937,0.004449999891221523,0.003449999960139394,22.69099998474121
6481.15153329275,1164701.0,0.024620000272989273,0.0030900000128895044,-0.008539999835193157,22.70199966430664
6481.152533064673,1164702.0,0.026319999247789383,0.0010400000028312206,-0.004769999999552965,22.729000091552734
6481.153532836595,1164703.0,0.027219999581575394,-0.003220000071451068,0.0017300000181421638,22.760000228881836
6481.154532608518,1164704.0,0.024709999561309814,0.0024999999441206455,-0.002319999970495701,22.90999984741211
6481.155532380441,1164705.0,0.020390000194311142,-0.004629999864846468,-0.004269999917596579,22.764999389648438
6481.156532152364,1164706.0,0.01940999925136566,-0.000910000002477318,-0.0059899999760091305,22.881999969482422
6481.157531924287,1164707.0,0.01923000067472458,-0.0007300000288523734,-0.0005000000237487257,22.899999618530273
6481.158531696209,1164708.0,0.016489999368786812,0.004629999864846468,0.002630000002682209,22.957000732421875
6481.159531468132,1164709.0,0.013120000250637531,0.004629999864846468,-0.0029100000392645597,22.954999923706055
6481.160531240055,1164710.0,0.012849999591708183,-0.004720000084489584,-0.002950000111013651,22.94300079345703
6481.161531011978,1164711.0,0.013120000250637531,-0.00418000016361475,-0.001180000021122396,22.461000442504883
6481.1625307839,1164712.0,0.011900000274181366,-0.0010000000474974513,0.0033599999733269215,23.08300018310547
6481.163530555823,1164713.0,0.011549999937415123,-0.00418000016361475,-0.0012700000079348683,23.11400032043457
6481.1645303277455,1164714.0,0.013389999978244305,-0.004269999917596579,-0.00535999983549118,23.070999145507812
6481.165530099668,1164715.0,0.0147299999371171,-0.008630000054836273,-0.0017300000181421638,23.16900062561035
6481.166529871592,1164716.0,0.015720000490546227,0.004809999838471413,-0.004679999779909849,23.065000534057617
6481.167529643514,1164717.0,0.016529999673366547,-0.005590000189840794,-0.0019099999917671084,23.145000457763672
6481.168529415437,1164718.0,0.019139999523758888,0.00418000016361475,-0.004040000028908253,23.04400062561035
6481.169529187359,1164719.0,0.020479999482631683,0.001449999981559813,-0.0037700000684708357,23.07699966430664
6481.170528959282,1164720.0,0.01923000067472458,-0.001449999981559813,0.0020000000949949026,23.101999282836914
6481.171528731205,1164721.0,0.01962999999523163,-0.0002699999895412475,-0.005539999809116125,23.174999237060547
6481.172528503128,1164722.0,0.016759999096393585,-0.0059899999760091305,0.0021800000686198473,22.99799919128418
6481.173528275051,1164723.0,0.011459999717772007,-0.0010000000474974513,0.0020000000949949026,23.322999954223633
6481.174528046973,1164724.0,0.008940000087022781,0.0036299999337643385,-0.003909999970346689,23.082000732421875
6481.175527818896,1164725.0,0.008089999668300152,-9.000000136438757e-05,0.0,23.13800048828125
6481.176527590818,1164726.0,0.008089999668300152,0.0024500000290572643,-0.0019099999917671084,23.15999984741211
6481.177527362742,1164727.0,0.0088900001719594,0.004040000028908253,-0.0063599999994039536,23.250999450683594
6481.178527134664,1164728.0,0.011680000461637974,-0.004089999943971634,-0.004089999943971634,23.41900062561035
6481.179526906587,1164729.0,0.01679999940097332,0.0059899999760091305,-0.0024500000290572643,23.297000885009766
6481.1805266785095,1164730.0,0.02102000080049038,-0.003809999907389283,0.0016799999866634607,23.461999893188477
6481.181526450432,1164731.0,0.024890000000596046,-0.0012700000079348683,-0.000539999979082495,23.492000579833984
6481.182526222356,1164732.0,0.026149999350309372,0.004540000110864639,-0.004769999999552965,23.507999420166016
6481.183525994278,1164733.0,0.027489999309182167,-0.004089999943971634,0.003000000026077032,23.211999893188477
6481.184525766201,1164734.0,0.027310000732541084,-0.00044999999227002263,0.0017300000181421638,23.55299949645996
6481.185525538123,1164735.0,0.026639999821782112,-0.004900000058114529,0.0033199999015778303,23.39900016784668
6481.186525310046,1164736.0,0.02425999939441681,-0.004449999891221523,-0.0020000000949949026,23.488000869750977
6481.187525081969,1164737.0,0.019139999523758888,-0.00535999983549118,0.000910000002477318,23.517000198364258
6481.188524853892,1164738.0,0.014550000429153442,-0.001449999981559813,0.0002300000051036477,23.56599998474121
6481.189524625815,1164739.0,0.014019999653100967,0.0006399999838322401,-0.004089999943971634,23.45599937438965
6481.190524397737,1164740.0,0.017160000279545784,-0.004540000110864639,-0.001180000021122396,23.6299991607666
6481.19152416966,1164741.0,0.01923000067472458,0.003809999907389283,-0.00535999983549118,23.55299949645996
6481.192523941583,1164742.0,0.020390000194311142,0.0028200000524520874,0.0021299999207258224,23.541000366210938
6481.193523713506,1164743.0,0.019589999690651894,0.0016299999551847577,-0.0016299999551847577,23.559999465942383
6481.194523485428,1164744.0,0.01940999925136566,0.0010000000474974513,-0.005810000002384186,23.59000015258789
6481.195523257351,1164745.0,0.021379999816417694,-0.00018000000272877514,-0.0036299999337643385,23.667999267578125
6481.1965230292735,1164746.0,0.023900000378489494,-0.001180000021122396,-0.0021800000686198473,23.64299964904785
6481.197522801196,1164747.0,0.0243500005453825,-0.00018000000272877514,0.0027199999894946814,23.496999740600586
6481.19852257312,1164748.0,0.023000000044703484,0.0063599999994039536,-0.004809999838471413,23.357999801635742
6481.199522345042,1164749.0,0.02273000031709671,0.0030900000128895044,-0.002360000042244792,23.357999801635742
6481.200522116965,1164750.0,0.02425999939441681,-0.00044999999227002263,0.001820000004954636,23.597999572753906
6481.201521888887,1164751.0,0.025919999927282333,-0.007360000163316727,0.0027199999894946814,23.773000717163086
6481.20252166081,1164752.0,0.02597000077366829,-0.000910000002477318,-0.003449999960139394,23.523000717163086
6481.203521432733,1164753.0,0.024620000272989273,-0.0027199999894946814,-0.004000000189989805,23.882999420166016
6481.204521204656,1164754.0,0.023180000483989716,-0.004129999782890081,-0.002360000042244792,23.915000915527344
6481.205520976579,1164755.0,0.022099999710917473,-0.0010900000343099236,0.0017300000181421638,23.926000595092773
6481.206520748501,1164756.0,0.019139999523758888,-0.0010900000343099236,-0.003949999809265137,23.95599937438965
6481.207520520424,1164757.0,0.017430000007152557,-0.0024500000290572643,-0.006990000139921904,23.809999465942383
6481.208520292347,1164758.0,0.01769999973475933,-0.004269999917596579,-0.0028200000524520874,23.950000762939453
6481.20952006427,1164759.0,0.018149999901652336,0.001180000021122396,0.000910000002477318,23.82200050354004
6481.210519836192,1164760.0,0.0185100007802248,-0.005040000192821026,-0.004900000058114529,23.84600067138672
6481.211519608115,1164761.0,0.018959999084472656,-0.0071299998089671135,-0.005630000028759241,23.437999725341797
6481.2125193800375,1164762.0,0.019269999116659164,-0.0021800000686198473,0.004900000058114529,23.8799991607666
6481.21351915196,1164763.0,0.020800000056624413,0.006719999946653843,0.0029100000392645597,23.96500015258789
6481.214518923884,1164764.0,0.022059999406337738,-0.0051299999468028545,0.0002699999895412475,23.94700050354004
6481.215518695806,1164765.0,0.02191999927163124,0.0010900000343099236,-0.005270000081509352,23.95599937438965
6481.216518467729,1164766.0,0.021740000694990158,0.004310000222176313,0.0020000000949949026,23.993000030517578
6481.217518239651,1164767.0,0.021789999678730965,0.0030900000128895044,-0.0030900000128895044,24.0049991607666
6481.218518011574,1164768.0,0.023669999092817307,0.0017300000181421638,0.0022700000554323196,23.517000198364258
6481.219517783497,1164769.0,0.023269999772310257,-0.0021800000686198473,-0.004679999779909849,24.159000396728516
6481.22051755542,1164770.0,0.023269999772310257,0.0030900000128895044,-0.0029100000392645597,24.030000686645508
6481.221517327343,1164771.0,0.02425999939441681,-0.0030900000128895044,0.004310000222176313,24.059999465942383
6481.222517099265,1164772.0,0.02363000065088272,0.0,-0.005900000222027302,24.079999923706055
6481.223516871188,1164773.0,0.023719999939203262,0.005630000028759241,-0.00031999999191612005,24.077999114990234
6481.224516643111,1164774.0,0.0243500005453825,-0.0036299999337643385,-0.007079999893903732,24.222000122070312
6481.225516415034,1164775.0,0.023229999467730522,0.002950000111013651,-0.004449999891221523,24.054000854492188
6481.226516186956,1164776.0,0.022369999438524246,-0.006490000057965517,0.006719999946653843,24.12700080871582
6481.227515958879,1164777.0,0.02111000008881092,-0.006310000084340572,-0.0025400000158697367,24.142000198364258
6481.2285157308015,1164778.0,0.02201000042259693,-0.006719999946653843,0.0013599999947473407,24.138999938964844
6481.229515502724,1164779.0,0.02232999913394451,-0.000910000002477318,-0.003449999960139394,24.12700080871582
6481.230515274648,1164780.0,0.02507000043988228,-0.0010400000028312206,0.0031799999997019768,24.301000595092773
6481.23151504657,1164781.0,0.022099999710917473,-0.0063599999994039536,0.0016299999551847577,24.132999420166016
6481.232514818493,1164782.0,0.019500000402331352,-0.001449999981559813,-0.002630000002682209,24.176000595092773
6481.233514590415,1164783.0,0.01891000010073185,0.002360000042244792,-0.0012700000079348683,23.950000762939453
6481.234514362338,1164784.0,0.018869999796152115,-0.001820000004954636,-0.0016299999551847577,24.04199981689453
6481.235514134261,1164785.0,0.019950000569224358,-0.001180000021122396,0.0020000000949949026,24.030000686645508
6481.236513906184,1164786.0,0.021560000255703926,0.001180000021122396,-0.002630000002682209,24.37700080871582
6481.237513678107,1164787.0,0.021740000694990158,-0.0031799999997019768,-0.004089999943971634,24.216999053955078
6481.238513450029,1164788.0,0.022910000756382942,-0.00044999999227002263,-0.00418000016361475,24.29800033569336
6481.239513221952,1164789.0,0.023360000923275948,0.005630000028759241,0.0024500000290572643,24.239999771118164
6481.240512993875,1164790.0,0.02425999939441681,0.004629999864846468,0.0031799999997019768,24.288999557495117
6481.241512765798,1164791.0,0.024709999561309814,0.0024500000290572643,-0.004809999838471413,24.334999084472656
6481.24251253772,1164792.0,0.02525000087916851,-0.006630000192672014,-0.005270000081509352,24.367000579833984
6481.243512309643,1164793.0,0.02515999972820282,0.003449999960139394,-0.003719999920576811,23.856000900268555
6481.2445120815655,1164794.0,0.023900000378489494,-0.0029100000392645597,0.0016299999551847577,24.476999282836914
6481.245511853489,1164795.0,0.020840000361204147,-0.007079999893903732,-0.009399999864399433,24.486000061035156
6481.246511625412,1164796.0,0.0200399998575449,-0.0012700000079348683,0.001180000021122396,24.49799919128418
6481.247511397334,1164797.0,0.019449999555945396,-0.004000000189989805,0.0016299999551847577,24.459999084472656
6481.248511169257,1164798.0,0.018959999084472656,0.0007300000288523734,0.0024999999441206455,24.374000549316406
6481.249510941179,1164799.0,0.02053000032901764,-0.001230000052601099,-0.0002699999895412475,24.332000732421875
6481.250510713102,1164800.0,0.02102000080049038,0.002360000042244792,0.00018000000272877514,24.426000595092773
6481.251510485025,1164801.0,0.02201000042259693,0.005900000222027302,0.0010000000474974513,24.472000122070312
6481.252510256948,1164802.0,0.021740000694990158,0.000539999979082495,-0.004269999917596579,24.483999252319336
6481.253510028871,1164803.0,0.021469999104738235,-0.0030900000128895044,0.0010900000343099236,24.554000854492188
6481.254509800793,1164804.0,0.021379999816417694,-0.000910000002477318,0.0013599999947473407,24.43199920654297
6481.255509572716,1164805.0,0.020659999921917915,-0.003449999960139394,-0.004629999864846468,24.285999298095703
6481.256509344639,1164806.0,0.020479999482631683,-0.00044999999227002263,-0.003449999960139394,24.493000030517578
6481.257509116562,1164807.0,0.0218299999833107,0.0007300000288523734,0.0031799999997019768,24.51799964904785
6481.258508888484,1164808.0,0.024620000272989273,-0.0015899999998509884,0.0,24.566999435424805
6481.259508660407,1164809.0,0.026590000838041306,0.002090000081807375,-0.0012700000079348683,24.55699920654297
6481.2605084323295,1164810.0,0.027219999581575394,-0.005090000107884407,-0.0006399999838322401,24.506000518798828
6481.261508204253,1164811.0,0.027580000460147858,0.0012700000079348683,-0.0021800000686198473,24.23699951171875
6481.262507976176,1164812.0,0.025919999927282333,-0.005900000222027302,-0.0028200000524520874,24.54199981689453
6481.263507748098,1164813.0,0.02507000043988228,-0.006719999946653843,-0.005040000192821026,24.614999771118164
6481.264507520021,1164814.0,0.023900000378489494,-0.003269999986514449,0.006719999946653843,24.66699981689453
6481.265507291943,1164815.0,0.0243500005453825,-0.0002699999895412475,-0.00018000000272877514,24.347000122070312
6481.266507063866,1164816.0,0.023269999772310257,-0.004900000058114529,-0.0027199999894946814,24.677000045776367
6481.267506835789,1164817.0,0.021740000694990158,0.0002699999895412475,-0.0019099999917671084,24.554000854492188
6481.268506607712,1164818.0,0.020659999921917915,-0.007899999618530273,-0.0012700000079348683,24.70400047302246
6481.269506379635,1164819.0,0.0200399998575449,-0.003719999920576811,-0.004360000137239695,24.68400001525879
6481.270506151557,1164820.0,0.0185100007802248,-0.004900000058114529,0.0010900000343099236,24.663999557495117
6481.27150592348,1164821.0,0.01590000092983246,0.003949999809265137,-0.005810000002384186,24.57900047302246
6481.272505695403,1164822.0,0.01508999988436699,-0.004809999838471413,-0.004449999891221523,24.631999969482422
6481.273505467326,1164823.0,0.015270000323653221,0.0029100000392645597,-0.002950000111013651,24.701000213623047
6481.274505239248,1164824.0,0.016529999673366547,-0.004769999999552965,0.00571999978274107,24.707000732421875
6481.275505011171,1164825.0,0.016349999234080315,-0.003449999960139394,-0.0036299999337643385,24.69300079345703
6481.2765047830935,1164826.0,0.016440000385046005,-0.0017300000181421638,0.0024500000290572643,24.641000747680664
6481.277504555017,1164827.0,0.016259999945759773,-0.006180000025779009,-0.004000000189989805,24.6200008392334
6481.27850432694,1164828.0,0.015809999778866768,-0.001769999973475933,-0.004000000189989805,24.510000228881836
6481.279504098862,1164829.0,0.015449999831616879,0.0007300000288523734,-0.004310000222176313,24.777000427246094
6481.280503870785,1164830.0,0.014639999717473984,0.004540000110864639,0.0010900000343099236,24.783000946044922
6481.281503642707,1164831.0,0.015270000323653221,0.003539999946951866,0.0017300000181421638,24.788999557495117
6481.28250341463,1164832.0,0.0147299999371171,-0.0016299999551847577,-0.00418000016361475,24.798999786376953
6481.283503186553,1164833.0,0.014550000429153442,-0.001180000021122396,0.000539999979082495,24.658000946044922
6481.284502958476,1164834.0,0.013159999623894691,0.0016299999551847577,0.0021299999207258224,24.597000122070312
6481.285502730399,1164835.0,0.012400000356137753,-0.004360000137239695,0.0016299999551847577,24.81399917602539
6481.286502502321,1164836.0,0.013120000250637531,-0.004089999943971634,-0.005770000163465738,24.816999435424805
6481.287502274244,1164837.0,0.014550000429153442,-0.003719999920576811,0.0029100000392645597,24.802000045776367
6481.288502046167,1164838.0,0.015270000323653221,-0.0027199999894946814,0.002090000081807375,24.7189998626709
6481.28950181809,1164839.0,0.015809999778866768,0.0030900000128895044,0.00418000016361475,24.738000869750977
6481.290501590012,1164840.0,0.01607999950647354,0.0021800000686198473,0.002859999891370535,24.677000045776367
6481.291501361935,1164841.0,0.016349999234080315,-0.0010900000343099236,0.0017300000181421638,24.840999603271484
6481.2925011338575,1164842.0,0.017069999128580093,-9.000000136438757e-05,-0.0015899999998509884,24.854000091552734
6481.293500905781,1164843.0,0.015540000051259995,0.00418000016361475,-0.005900000222027302,24.816999435424805
6481.294500677704,1164844.0,0.013120000250637531,-0.003449999960139394,0.0006399999838322401,24.7189998626709
6481.295500449626,1164845.0,0.012439999729394913,0.0006399999838322401,-0.000539999979082495,24.798999786376953
6481.296500221549,1164846.0,0.012040000408887863,-0.004089999943971634,0.0006399999838322401,24.725000381469727
6481.297499993471,1164847.0,0.012040000408887863,9.000000136438757e-05,-0.005900000222027302,24.851999282836914
6481.298499765395,1164848.0,0.013159999623894691,-0.0012700000079348683,0.0021299999207258224,24.871999740600586
6481.299499537317,1164849.0,0.014550000429153442,0.005090000107884407,0.002589999930933118,24.895999908447266
6481.30049930924,1164850.0,0.014820000156760216,-0.00041000000783242285,-0.004629999864846468,24.8439998626709
6481.301499081163,1164851.0,0.016259999945759773,-0.004540000110864639,-0.004720000084489584,24.75
6481.302498853085,1164852.0,0.017340000718832016,0.0007300000288523734,-0.003809999907389283,24.66699981689453
6481.303498625008,1164853.0,0.017340000718832016,-0.0020000000949949026,0.00418000016361475,24.732999801635742
6481.304498396931,1164854.0,0.01931999996304512,0.0027199999894946814,-0.004900000058114529,24.715999603271484
6481.305498168854,1164855.0,0.020570000633597374,0.006130000110715628,-0.004900000058114529,24.731000900268555
6481.306497940776,1164856.0,0.020080000162124634,-0.004540000110864639,-0.003449999960139394,24.895999908447266
6481.307497712699,1164857.0,0.020479999482631683,9.000000136438757e-05,0.000910000002477318,24.767000198364258
6481.3084974846215,1164858.0,0.020479999482631683,-0.005179999861866236,-0.001500000013038516,24.875999450683594
6481.309497256545,1164859.0,0.019950000569224358,-0.0033599999733269215,-0.00044999999227002263,24.367000579833984
6481.310497028468,1164860.0,0.019680000841617584,-0.0010400000028312206,0.003809999907389283,24.533000946044922
6481.31149680039,1164861.0,0.018689999356865883,-0.007180000189691782,-0.006130000110715628,24.54199981689453
6481.312496572313,1164862.0,0.018689999356865883,0.000539999979082495,0.002360000042244792,24.85700035095215
6481.313496344235,1164863.0,0.0185100007802248,-0.004000000189989805,0.003949999809265137,24.77899932861328
6481.314496116158,1164864.0,0.01779000088572502,0.001820000004954636,0.006810000166296959,24.8439998626709
6481.315495888081,1164865.0,0.016349999234080315,0.000910000002477318,-0.004000000189989805,24.326000213623047
6481.316495660004,1164866.0,0.015990000218153,0.003590000094845891,-0.005400000140070915,24.384000778198242
6481.317495431927,1164867.0,0.016529999673366547,0.006539999973028898,-0.0016299999551847577,24.5939998626709
6481.318495203849,1164868.0,0.015990000218153,-0.006579999811947346,-0.0034099998883903027,24.888999938964844
6481.319494975772,1164869.0,0.01671000011265278,0.0031799999997019768,-0.00418000016361475,24.77400016784668
6481.320494747695,1164870.0,0.017559999600052834,-0.004360000137239695,-0.004679999779909849,24.77400016784668
6481.321494519618,1164871.0,0.018279999494552612,-0.001180000021122396,0.002090000081807375,24.322999954223633
6481.32249429154,1164872.0,0.016259999945759773,-0.004089999943971634,0.00018000000272877514,24.77400016784668
6481.323494063463,1164873.0,0.014379999600350857,-0.005270000081509352,-0.0051299999468028545,24.780000686645508
6481.3244938353855,1164874.0,0.013659999705851078,0.0008200000156648457,-0.006219999864697456,24.933000564575195
6481.325493607309,1164875.0,0.01348000019788742,-0.000539999979082495,-0.005810000002384186,24.79199981689453
6481.326493379232,1164876.0,0.01384000014513731,-0.0010000000474974513,-0.004360000137239695,24.670000076293945
6481.327493151154,1164877.0,0.016349999234080315,-0.004360000137239695,-0.005900000222027302,24.566999435424805
6481.328492923077,1164878.0,0.018330000340938568,0.004900000058114529,0.0007699999841861427,24.631000518798828
6481.329492694999,1164879.0,0.017470000311732292,0.0045900000259280205,0.0018599999602884054,24.71299934387207
6481.330492466923,1164880.0,0.016440000385046005,-0.0033599999733269215,0.006130000110715628,24.871999740600586
6481.331492238845,1164881.0,0.018239999189972878,0.0022299999836832285,0.003809999907389283,24.798999786376953
6481.332492010768,1164882.0,0.019050000235438347,-0.0019499999471008778,0.0020000000949949026,24.92099952697754
6481.3334917826905,1164883.0,0.02022000029683113,-0.006089999806135893,0.004040000028908253,24.933000564575195
6481.334491554613,1164884.0,0.022460000589489937,-0.0033599999733269215,-0.002859999891370535,24.900999069213867
6481.335491326536,1164885.0,0.021290000528097153,-0.0016299999551847577,0.0011399999493733048,24.753000259399414
6481.336491098459,1164886.0,0.018330000340938568,-0.007449999917298555,-0.000910000002477318,24.933000564575195
6481.337490870382,1164887.0,0.018370000645518303,0.003860000055283308,-0.002630000002682209,24.76799964904785
6481.338490642304,1164888.0,0.020570000633597374,-0.005489999894052744,-0.007770000025629997,24.924999237060547
6481.339490414227,1164889.0,0.019050000235438347,-0.00418000016361475,-0.000859999970998615,24.895999908447266
6481.3404901861495,1164890.0,0.017430000007152557,0.0002699999895412475,0.0016299999551847577,24.884000778198242
6481.341489958073,1164891.0,0.017069999128580093,-0.007449999917298555,-0.006990000139921904,24.663999557495117
6481.342489729996,1164892.0,0.01689000055193901,0.003269999986514449,-0.00571999978274107,24.860000610351562
6481.343489501918,1164893.0,0.015320000238716602,-0.006089999806135893,-0.004449999891221523,24.780000686645508
6481.344489273841,1164894.0,0.0142000000923872,-0.00031999999191612005,-0.0030900000128895044,24.865999221801758
6481.345489045763,1164895.0,0.01343000028282404,0.00044999999227002263,-0.0020000000949949026,24.895999908447266
6481.346488817687,1164896.0,0.012400000356137753,-0.0010900000343099236,0.0031300000846385956,24.915000915527344
6481.347488589609,1164897.0,0.0101500004529953,0.006719999946653843,-0.003449999960139394,24.70400047302246
6481.348488361532,1164898.0,0.01095999963581562,-0.0033599999733269215,-0.0012700000079348683,24.871999740600586
6481.3494881334545,1164899.0,0.01131999958306551,-0.0006799999973736703,-0.003719999920576811,24.77400016784668
6481.350487905377,1164900.0,0.010060000233352184,-0.004540000110864639,0.001449999981559813,24.81100082397461
6481.3514876773,1164901.0,0.010599999688565731,-0.004900000058114529,-0.0030400000978261232,24.863000869750977
6481.352487449223,1164902.0,0.011859999969601631,-0.003809999907389283,-0.0064500002190470695,24.875
6481.353487221146,1164903.0,0.013570000417530537,-0.000859999970998615,-0.003719999920576811,24.652000427246094
6481.354486993068,1164904.0,0.016259999945759773,-0.005090000107884407,-0.0012700000079348683,24.849000930786133
6481.355486764991,1164905.0,0.016979999840259552,-0.000539999979082495,-0.001500000013038516,24.75
6481.3564865369135,1164906.0,0.01671000011265278,0.0029100000392645597,-0.000539999979082495,24.761999130249023
6481.357486308837,1164907.0,0.01671000011265278,0.004720000084489584,0.003449999960139394,24.743999481201172
6481.35848608076,1164908.0,0.01607999950647354,0.0024999999441206455,-0.0022299999836832285,24.764999389648438
6481.359485852682,1164909.0,0.015270000323653221,-0.001820000004954636,0.003539999946951866,24.608999252319336
6481.360485624605,1164910.0,0.014419999904930592,-0.003000000026077032,0.0010900000343099236,24.860000610351562
6481.361485396527,1164911.0,0.013209999538958073,-0.0028200000524520874,0.0020000000949949026,24.701000213623047
6481.362485168451,1164912.0,0.01384000014513731,-0.004360000137239695,0.0029100000392645597,24.76799964904785
6481.363484940373,1164913.0,0.0142000000923872,-0.0063599999994039536,-0.004540000110864639,24.863000869750977
6481.364484712296,1164914.0,0.01384000014513731,-0.0034099998883903027,0.0010000000474974513,24.840999603271484
6481.3654844842185,1164915.0,0.013340000063180923,0.0003600000054575503,-0.004449999891221523,24.670000076293945
6481.366484256141,1164916.0,0.012760000303387642,-0.003449999960139394,-0.004900000058114529,24.634000778198242
6481.367484028064,1164917.0,0.012129999697208405,-9.000000136438757e-05,-0.006719999946653843,24.761999130249023
6481.368483799987,1164918.0,0.01221999991685152,0.00018000000272877514,-0.0010900000343099236,24.785999298095703
6481.36948357191,1164919.0,0.01384000014513731,-9.000000136438757e-05,0.0025400000158697367,24.816999435424805
6481.370483343832,1164920.0,0.014550000429153442,0.0016799999866634607,-0.003000000026077032,24.82900047302246
6481.371483115755,1164921.0,0.015629999339580536,-0.006539999973028898,-0.000539999979082495,24.645999908447266
6481.3724828876775,1164922.0,0.0147299999371171,0.004809999838471413,-0.005270000081509352,24.621999740600586
6481.373482659601,1164923.0,0.01508999988436699,-0.004360000137239695,0.0021800000686198473,24.77400016784668
6481.374482431524,1164924.0,0.015359999611973763,-0.003269999986514449,-0.0008200000156648457,24.798999786376953
6481.375482203446,1164925.0,0.0142000000923872,-0.005450000055134296,0.001820000004954636,24.788999557495117
6481.376481975369,1164926.0,0.012129999697208405,-0.006310000084340572,-0.003449999960139394,24.639999389648438
6481.377481747291,1164927.0,0.010689999908208847,0.0027199999894946814,0.00018000000272877514,24.75
6481.378481519215,1164928.0,0.010599999688565731,-0.0012700000079348683,0.002589999930933118,24.631999969482422
6481.379481291137,1164929.0,0.009519999846816063,0.003449999960139394,0.0021800000686198473,24.738000869750977
6481.38048106306,1164930.0,0.009519999846816063,0.0024999999441206455,-0.0012700000079348683,24.677000045776367
6481.3814808349825,1164931.0,0.010470000095665455,0.000539999979082495,-0.007079999893903732,24.634000778198242
6481.382480606905,1164932.0,0.010239999741315842,0.0013599999947473407,0.0031799999997019768,24.483999252319336
6481.383480378829,1164933.0,0.009879999794065952,-0.0029100000392645597,0.001449999981559813,24.677000045776367
6481.384480150751,1164934.0,0.008980000391602516,0.004269999917596579,0.00018000000272877514,24.207000732421875
6481.385479922674,1164935.0,0.009519999846816063,-0.004410000052303076,-0.004000000189989805,24.57900047302246
6481.386479694596,1164936.0,0.008270000107586384,-0.0012700000079348683,-0.0002699999895412475,24.582000732421875
6481.387479466519,1164937.0,0.008799999952316284,0.005270000081509352,0.0016299999551847577,24.576000213623047
6481.3884792384415,1164938.0,0.010060000233352184,-0.006180000025779009,-0.0062699997797608376,24.72800064086914
6481.389479010365,1164939.0,0.011230000294744968,0.003000000026077032,-0.0020000000949949026,24.54199981689453
6481.390478782288,1164940.0,0.011950000189244747,-0.006719999946653843,-0.006899999920278788,24.631000518798828
6481.39147855421,1164941.0,0.012040000408887863,-0.0007300000288523734,0.002360000042244792,24.554000854492188
6481.392478326133,1164942.0,0.013030000030994415,-0.0027199999894946814,-0.003539999946951866,24.54199981689453
6481.393478098055,1164943.0,0.01348000019788742,-0.002360000042244792,-0.0063599999994039536,24.250999450683594
6481.394477869979,1164944.0,0.012760000303387642,-0.0015399999683722854,-0.003000000026077032,24.56999969482422
6481.395477641901,1164945.0,0.012889999896287918,-0.0021800000686198473,0.0015399999683722854,23.993000030517578
6481.396477413824,1164946.0,0.014379999600350857,-0.000910000002477318,0.0020000000949949026,24.631000518798828
6481.3974771857465,1164947.0,0.014469999819993973,0.0013599999947473407,-0.004449999891221523,24.576000213623047
6481.398476957669,1164948.0,0.014639999717473984,-0.0018599999602884054,0.0013599999947473407,24.582000732421875
6481.399476729593,1164949.0,0.014379999600350857,-0.005090000107884407,0.0011399999493733048,24.590999603271484
6481.400476501515,1164950.0,0.01348000019788742,0.0030900000128895044,-0.0036299999337643385,24.47800064086914
6481.401476273438,1164951.0,0.0142000000923872,-0.004720000084489584,-0.004900000058114529,24.590999603271484
6481.40247604536,1164952.0,0.014820000156760216,0.0031799999997019768,-0.0033199999015778303,24.413000106811523
6481.403475817283,1164953.0,0.014550000429153442,0.0025400000158697367,0.004540000110864639,24.434999465942383
6481.4044755892055,1164954.0,0.013120000250637531,0.0019099999917671084,-0.004809999838471413,24.43199920654297
6481.405475361129,1164955.0,0.01217000000178814,0.005270000081509352,-0.0020000000949949026,24.429000854492188
6481.406475133052,1164956.0,0.011950000189244747,-0.003909999970346689,-0.0051299999468028545,24.481000900268555
6481.407474904974,1164957.0,0.01221999991685152,0.00031999999191612005,-0.004540000110864639,24.408000946044922
6481.408474676897,1164958.0,0.013120000250637531,-0.004900000058114529,-0.0007300000288523734,24.309999465942383
6481.409474448819,1164959.0,0.012439999729394913,-0.000859999970998615,-0.0027199999894946814,23.937999725341797
6481.410474220743,1164960.0,0.012849999591708183,-0.0031799999997019768,-0.00018000000272877514,24.358999252319336
6481.411473992665,1164961.0,0.011680000461637974,-0.005630000028759241,-0.0011399999493733048,24.347999572753906
6481.412473764588,1164962.0,0.01095999963581562,0.000910000002477318,0.00535999983549118,24.48900032043457
6481.4134735365105,1164963.0,0.011680000461637974,-0.0021800000686198473,0.0024500000290572643,24.334999084472656
6481.414473308433,1164964.0,0.011230000294744968,-0.0005000000237487257,0.0019099999917671084,24.386999130249023
6481.415473080357,1164965.0,0.011719999834895134,0.000910000002477318,-0.0031799999997019768,24.39900016784668
6481.416472852279,1164966.0,0.012760000303387642,-0.0015399999683722854,-0.003449999960139394,24.408000946044922
6481.417472624202,1164967.0,0.0129399998113513,0.0030900000128895044,0.0011399999493733048,24.347000122070312
6481.418472396124,1164968.0,0.013659999705851078,-0.004360000137239695,0.00041000000783242285,24.322999954223633
6481.419472168047,1164969.0,0.015270000323653221,0.0006399999838322401,-0.003719999920576811,24.020000457763672
6481.4204719399695,1164970.0,0.015990000218153,0.0010400000028312206,-0.0036299999337643385,24.322999954223633
6481.421471711893,1164971.0,0.016529999673366547,0.003809999907389283,-0.004449999891221523,24.35300064086914
6481.422471483816,1164972.0,0.0185100007802248,0.0059899999760091305,0.002360000042244792,24.39900016784668
6481.423471255738,1164973.0,0.01819000020623207,0.006180000025779009,-0.004040000028908253,24.358999252319336
6481.424471027661,1164974.0,0.018869999796152115,-0.0076299998909235,-0.004629999864846468,24.26099967956543
6481.425470799583,1164975.0,0.018330000340938568,-0.003449999960139394,-0.0030900000128895044,24.243000030517578
6481.426470571507,1164976.0,0.018239999189972878,-0.004540000110864639,0.0030900000128895044,24.354999542236328
6481.427470343429,1164977.0,0.018330000340938568,-0.005900000222027302,-0.0010400000028312206,24.347000122070312
6481.428470115352,1164978.0,0.01860000006854534,-0.004769999999552965,-0.005270000081509352,24.334999084472656
6481.4294698872745,1164979.0,0.0200399998575449,-0.006899999920278788,0.005270000081509352,24.059999465942383
6481.430469659197,1164980.0,0.02092999964952469,0.00018000000272877514,0.0012700000079348683,24.27400016784668
6481.431469431121,1164981.0,0.01860000006854534,-0.000539999979082495,-0.00018000000272877514,24.158000946044922
6481.432469203043,1164982.0,0.01761000044643879,0.0027199999894946814,-0.007449999917298555,24.204999923706055
6481.433468974966,1164983.0,0.01607999950647354,0.006130000110715628,-0.00044999999227002263,24.18400001525879
6481.434468746888,1164984.0,0.015180000104010105,0.0002699999895412475,0.004089999943971634,24.163999557495117
6481.435468518811,1164985.0,0.01384000014513731,0.0045900000259280205,-0.0033599999733269215,24.152000427246094
6481.436468290734,1164986.0,0.01384000014513731,-0.0013599999947473407,-0.0027199999894946814,24.163999557495117
6481.437468062657,1164987.0,0.015270000323653221,-0.0020000000949949026,-0.003809999907389283,23.621000289916992
6481.43846783458,1164988.0,0.015629999339580536,-0.005489999894052744,0.000910000002477318,24.07200050354004
6481.439467606502,1164989.0,0.015990000218153,-0.004860000219196081,-0.0020000000949949026,24.04800033569336
6481.440467378425,1164990.0,0.016349999234080315,-0.0030900000128895044,0.000910000002477318,24.04199981689453
6481.441467150347,1164991.0,0.016170000657439232,-0.00535999983549118,-0.005590000189840794,24.152000427246094
6481.442466922271,1164992.0,0.016489999368786812,0.004999999888241291,-0.0030400000978261232,23.98699951171875
6481.443466694193,1164993.0,0.016580000519752502,-0.0025400000158697367,-0.007040000054985285,24.0049991607666
6481.444466466116,1164994.0,0.017249999567866325,-0.001449999981559813,0.00418000016361475,23.672000885009766
6481.4454662380385,1164995.0,0.017249999567866325,-0.005630000028759241,0.000910000002477318,23.638999938964844
6481.446466009961,1164996.0,0.017880000174045563,-0.005179999861866236,-0.0020000000949949026,23.809999465942383
6481.447465781885,1164997.0,0.01720999926328659,0.003809999907389283,-9.000000136438757e-05,24.023000717163086
6481.448465553807,1164998.0,0.015990000218153,-0.005810000002384186,-0.0036299999337643385,23.920000076293945
6481.44946532573,1164999.0,0.016170000657439232,0.0030900000128895044,-0.0064500002190470695,23.993000030517578
6481.450465097652,1165000.0,0.018869999796152115,0.000539999979082495,-0.0007300000288523734,23.858999252319336
6481.451464869575,1165001.0,0.0218299999833107,0.0022299999836832285,0.004000000189989805,23.825000762939453
6481.4524646414975,1165002.0,0.0185100007802248,0.0012700000079348683,-0.003449999960139394,23.858999252319336
6481.453464413421,1165003.0,0.015180000104010105,-0.00418000016361475,-0.006490000057965517,23.900999069213867
6481.454464185344,1165004.0,0.012980000115931034,0.0030900000128895044,-0.002360000042244792,23.51799964904785
6481.455463957266,1165005.0,0.011769999749958515,-0.002950000111013651,0.0010900000343099236,23.983999252319336
6481.456463729189,1165006.0,0.01384000014513731,-0.004000000189989805,-0.005179999861866236,23.948999404907227
6481.457463501111,1165007.0,0.014290000312030315,-0.002859999891370535,-0.001449999981559813,23.915000915527344
6481.458463273035,1165008.0,0.013030000030994415,0.0030900000128895044,0.0002300000051036477,23.944000244140625
6481.459463044957,1165009.0,0.014379999600350857,-0.005270000081509352,0.005810000002384186,23.78700065612793
6481.46046281688,1165010.0,0.014379999600350857,0.0030900000128895044,0.005630000028759241,23.898000717163086
6481.4614625888025,1165011.0,0.014779999852180481,-0.006219999864697456,0.004269999917596579,23.73699951171875
6481.462462360725,1165012.0,0.0147299999371171,-0.006719999946653843,-0.0030900000128895044,23.729999542236328
6481.463462132649,1165013.0,0.014109999872744083,0.003449999960139394,-0.0006799999973736703,23.711999893188477
6481.464461904571,1165014.0,0.013700000010430813,0.007860000245273113,0.0025400000158697367,23.749000549316406
6481.465461676494,1165015.0,0.013120000250637531,-0.003809999907389283,0.000910000002477318,23.253999710083008
6481.466461448416,1165016.0,0.01257999986410141,0.0007699999841861427,0.000910000002477318,23.788000106811523
6481.467461220339,1165017.0,0.012529999949038029,-0.0029100000392645597,0.00018000000272877514,23.648000717163086
6481.468460992262,1165018.0,0.011680000461637974,-0.004900000058114529,0.00418000016361475,23.632999420166016
6481.469460764185,1165019.0,0.011009999550879002,-0.004900000058114529,-0.006990000139921904,23.614999771118164
6481.470460536108,1165020.0,0.010060000233352184,-0.0034099998883903027,0.000910000002477318,23.726999282836914
6481.47146030803,1165021.0,0.010420000180602074,0.001449999981559813,0.0025400000158697367,23.59600067138672
6481.472460079953,1165022.0,0.010599999688565731,-0.0010900000343099236,0.0014100000262260437,23.413000106811523
6481.473459851875,1165023.0,0.010420000180602074,0.003000000026077032,0.001180000021122396,23.593000411987305
6481.474459623799,1165024.0,0.009479999542236328,0.0024500000290572643,-0.00041000000783242285,23.601999282836914
6481.475459395721,1165025.0,0.011189999990165234,-0.000910000002477318,-0.004089999943971634,23.66900062561035
6481.476459167644,1165026.0,0.012760000303387642,-0.005090000107884407,-0.00018000000272877514,23.46299934387207
6481.4774589395665,1165027.0,0.0142000000923872,0.0027199999894946814,0.0006399999838322401,23.645000457763672
6481.478458711489,1165028.0,0.013570000417530537,-0.006089999806135893,0.0021800000686198473,23.479999542236328
6481.479458483413,1165029.0,0.012760000303387642,-0.004449999891221523,-0.0027199999894946814,23.531999588012695
6481.480458255335,1165030.0,0.012129999697208405,-0.00418000016361475,0.0030900000128895044,23.507999420166016
6481.481458027258,1165031.0,0.011680000461637974,-0.003000000026077032,-0.0015399999683722854,23.45599937438965
6481.48245779918,1165032.0,0.011500000022351742,-9.000000136438757e-05,0.0028200000524520874,23.54400062561035
6481.483457571103,1165033.0,0.0129399998113513,-0.004720000084489584,0.0029100000392645597,23.430999755859375
6481.484457343026,1165034.0,0.012849999591708183,0.0027199999894946814,0.00031999999191612005,23.336999893188477
6481.485457114949,1165035.0,0.011049999855458736,0.005630000028759241,-0.0022700000554323196,22.8700008392334
6481.486456886872,1165036.0,0.00925000011920929,0.00031999999191612005,-0.004860000219196081,23.361000061035156
6481.487456658794,1165037.0,0.008129999972879887,-0.001180000021122396,0.0015399999683722854,23.343000411987305
6481.488456430717,1165038.0,0.008799999952316284,-0.004540000110864639,9.000000136438757e-05,23.47100067138672
6481.489456202639,1165039.0,0.00795000046491623,0.0024999999441206455,0.0002300000051036477,23.34000015258789
6481.490455974563,1165040.0,0.007280000019818544,0.0007300000288523734,-0.003449999960139394,23.131000518798828
6481.491455746485,1165041.0,0.007459999993443489,0.0006799999973736703,-0.0005000000237487257,22.791000366210938
6481.492455518408,1165042.0,0.008220000192523003,-0.0025400000158697367,-0.001820000004954636,23.250999450683594
6481.4934552903305,1165043.0,0.008089999668300152,-0.004269999917596579,-0.00018000000272877514,23.224000930786133
6481.494455062253,1165044.0,0.008580000139772892,0.004000000189989805,-0.005630000028759241,23.322999954223633
6481.495454834177,1165045.0,0.007860000245273113,-0.0020000000949949026,-0.004809999838471413,23.208999633789062
6481.496454606099,1165046.0,0.007819999940693378,-0.0019099999917671084,-0.005810000002384186,23.163000106811523
6481.497454378022,1165047.0,0.007860000245273113,0.001500000013038516,0.003590000094845891,23.163000106811523
6481.498454149944,1165048.0,0.007280000019818544,0.002360000042244792,0.002630000002682209,23.125999450683594
6481.499453921867,1165049.0,0.008179999887943268,0.0,-0.0027199999894946814,23.104999542236328
6481.50045369379,1165050.0,0.008089999668300152,-0.0022299999836832285,-0.0051299999468028545,23.218000411987305
6481.501453465713,1165051.0,0.007369999773800373,0.003449999960139394,-0.0051299999468028545,23.128999710083008
6481.502453237636,1165052.0,0.006829999852925539,-0.0028200000524520874,-0.0012700000079348683,23.187000274658203
6481.503453009558,1165053.0,0.006020000204443932,-0.001449999981559813,-0.005630000028759241,23.15399932861328
6481.504452781481,1165054.0,0.0052999998442828655,-0.000859999970998615,0.0010900000343099236,23.166000366210938
6481.505452553403,1165055.0,0.0034600000362843275,-0.0016299999551847577,-0.000539999979082495,23.041000366210938
6481.506452325327,1165056.0,0.0016199999954551458,0.0017300000181421638,0.0009500000160187483,23.104999542236328
6481.507452097249,1165057.0,0.0006300000241026282,-0.00418000016361475,0.003809999907389283,23.02899932861328
6481.508451869172,1165058.0,-0.00018000000272877514,0.006719999946653843,0.0012700000079348683,23.09000015258789
6481.5094516410945,1165059.0,-0.00107999995816499,0.00018000000272877514,4.999999873689376e-05,23.07699966430664
6481.510451413017,1165060.0,-0.00215999991632998,0.00418000016361475,-0.004360000137239695,23.06800079345703
6481.511451184941,1165061.0,-0.0030499999411404133,0.0015399999683722854,-0.000539999979082495,23.05299949645996
6481.512450956863,1165062.0,-0.005570000037550926,0.0002699999895412475,0.006579999811947346,22.930999755859375
6481.513450728786,1165063.0,-0.007910000160336494,-0.007079999893903732,0.005489999894052744,22.68400001525879
6481.514450500708,1165064.0,-0.010239999741315842,0.000910000002477318,-0.0010400000028312206,22.89900016784668
6481.515450272631,1165065.0,-0.013299999758601189,-0.00018000000272877514,-0.0010000000474974513,22.864999771118164
6481.516450044554,1165066.0,-0.017969999462366104,-0.007269999943673611,-0.0063599999994039536,22.836000442504883
6481.517449816477,1165067.0,-0.023000000044703484,-0.00041000000783242285,0.002360000042244792,22.97100067138672
6481.5184495884,1165068.0,-0.02425999939441681,-0.005630000028759241,0.000539999979082495,22.774999618530273
6481.519449360322,1165069.0,-0.024890000000596046,-0.000539999979082495,0.0022299999836832285,22.799999237060547
6481.520449132245,1165070.0,-0.02515999972820282,0.0017300000181421638,-0.005270000081509352,22.774999618530273
6481.521448904168,1165071.0,-0.024979999288916588,0.001180000021122396,-0.004720000084489584,22.764999389648438
6481.522448676091,1165072.0,-0.026410000398755074,0.000539999979082495,-9.000000136438757e-05,22.29599952697754
6481.523448448013,1165073.0,-0.028209999203681946,0.001500000013038516,-0.00571999978274107,22.80299949645996
6481.524448219936,1165074.0,-0.029109999537467957,0.001820000004954636,-0.0022700000554323196,22.652999877929688
6481.5254479918585,1165075.0,-0.030549999326467514,-0.004310000222176313,-0.004809999838471413,22.784000396728516
6481.526447763781,1165076.0,-0.03009999915957451,-0.005539999809116125,0.001500000013038516,22.555999755859375
6481.527447535705,1165077.0,-0.031039999797940254,-0.0027199999894946814,-0.005539999809116125,22.5310001373291
6481.528447307627,1165078.0,-0.03109000064432621,-0.006719999946653843,-0.003449999960139394,22.52199935913086
6481.52944707955,1165079.0,-0.029020000249147415,-0.00044999999227002263,-0.0010900000343099236,22.586000442504883
6481.530446851472,1165080.0,-0.026319999247789383,-0.001500000013038516,0.0013599999947473407,22.565000534057617
6481.531446623395,1165081.0,-0.027580000460147858,-0.003449999960139394,0.005179999861866236,22.542999267578125
6481.532446395318,1165082.0,-0.029020000249147415,-0.0036800000816583633,-0.004449999891221523,22.524999618530273
6481.533446167241,1165083.0,-0.032249998301267624,-0.004040000028908253,-0.005270000081509352,22.485000610351562
6481.534445939164,1165084.0,-0.03711000084877014,-0.004900000058114529,-0.0002699999895412475,22.466999053955078
6481.535445711086,1165085.0,-0.04016000032424927,0.0020000000949949026,0.0030900000128895044,22.604000091552734
6481.536445483009,1165086.0,-0.04187000170350075,-0.0059899999760091305,-0.0015399999683722854,22.479000091552734
6481.537445254931,1165087.0,-0.047529999166727066,0.0006399999838322401,-0.0027199999894946814,22.570999145507812
6481.538445026855,1165088.0,-0.0530100017786026,-0.002630000002682209,0.005630000028759241,22.565000534057617
6481.539444798777,1165089.0,-0.05646999925374985,-0.005450000055134296,-0.0017300000181421638,22.540000915527344
6481.5404445707,1165090.0,-0.058490000665187836,-0.003000000026077032,-0.0006399999838322401,22.454999923706055
6481.5414443426225,1165091.0,-0.05875999853014946,0.004000000189989805,0.003000000026077032,21.89900016784668
6481.542444114545,1165092.0,-0.05961000174283981,-0.005630000028759241,-0.000910000002477318,22.458999633789062
6481.543443886469,1165093.0,-0.06432999670505524,0.0028200000524520874,-0.00018000000272877514,21.959999084472656
6481.544443658391,1165094.0,-0.07187999784946442,0.000910000002477318,-0.00014000000373926014,22.06399917602539
6481.545443430314,1165095.0,-0.07887999713420868,-0.0010900000343099236,-0.003000000026077032,22.18600082397461
6481.546443202236,1165096.0,-0.08462999761104584,0.003809999907389283,-0.004540000110864639,22.132999420166016
6481.547442974159,1165097.0,-0.08904000371694565,-0.004269999917596579,-0.0002699999895412475,22.371000289916992
6481.548442746082,1165098.0,-0.09232000261545181,-0.001180000021122396,-0.002360000042244792,22.18600082397461
6481.549442518005,1165099.0,-0.09227000176906586,-0.008449999615550041,-0.003000000026077032,22.329999923706055
6481.550442289928,1165100.0,-0.08859000355005264,-0.002360000042244792,-0.004000000189989805,22.323999404907227
6481.55144206185,1165101.0,-0.07955999672412872,0.004269999917596579,-0.00018000000272877514,22.277999877929688
6481.552441833773,1165102.0,-0.06917999684810638,-0.004000000189989805,-0.004000000189989805,22.204999923706055
6481.553441605696,1165103.0,-0.06145000085234642,-0.00041000000783242285,-0.004089999943971634,22.107999801635742
6481.554441377619,1165104.0,-0.0545400008559227,-0.0059899999760091305,-0.004089999943971634,21.959999084472656
6481.555441149541,1165105.0,-0.04357999935746193,0.0020000000949949026,0.0020000000949949026,22.06399917602539
6481.556440921464,1165106.0,-0.030009999871253967,0.00018000000272877514,-0.003269999986514449,22.014999389648438
6481.5574406933865,1165107.0,-0.016259999945759773,-0.0010000000474974513,-0.004720000084489584,22.006000518798828
6481.558440465309,1165108.0,0.0017099999822676182,0.003269999986514449,0.002360000042244792,22.128000259399414
6481.559440237233,1165109.0,0.020349999889731407,-0.006180000025779009,0.003719999920576811,21.996999740600586
6481.560440009155,1165110.0,0.03692999854683876,-0.0012700000079348683,-0.00031999999191612005,22.10099983215332
6481.561439781078,1165111.0,0.04761999845504761,0.0017300000181421638,-0.004860000219196081,21.988000869750977
6481.562439553,1165112.0,0.05310000106692314,0.0013599999947473407,-0.0027199999894946814,21.972999572753906
6481.563439324923,1165113.0,0.0588500015437603,-0.000539999979082495,0.0012700000079348683,21.990999221801758
6481.564439096846,1165114.0,0.06652999669313431,0.003860000055283308,-0.0027199999894946814,21.514999389648438
6481.565438868769,1165115.0,0.07294999808073044,-0.003000000026077032,-0.0062699997797608376,21.972999572753906
6481.566438640692,1165116.0,0.07709000259637833,0.0010000000474974513,-0.0002300000051036477,21.832000732421875
6481.567438412614,1165117.0,0.07852999866008759,0.002409999957308173,0.0016299999551847577,21.785999298095703
6481.568438184537,1165118.0,0.07767000049352646,0.001449999981559813,0.002090000081807375,21.783000946044922
6481.56943795646,1165119.0,0.0763700008392334,-0.000539999979082495,-0.000539999979082495,21.785999298095703
6481.570437728383,1165120.0,0.07694999873638153,-0.001449999981559813,0.0020000000949949026,21.785999298095703
6481.571437500305,1165121.0,0.07906000316143036,-0.005630000028759241,0.0012700000079348683,21.558000564575195
6481.572437272228,1165122.0,0.08257000148296356,0.003809999907389283,0.0011399999493733048,21.81999969482422
6481.5734370441505,1165123.0,0.0837400034070015,0.0013599999947473407,0.0019099999917671084,21.822999954223633
6481.574436816073,1165124.0,0.08462999761104584,0.0036800000816583633,-0.0024500000290572643,21.79400062561035
6481.575436587997,1165125.0,0.08481000363826752,0.0059899999760091305,0.0024999999441206455,21.770999908447266
6481.576436359919,1165126.0,0.08355999737977982,0.000910000002477318,-0.00686000008136034,21.270999908447266
6481.577436131842,1165127.0,0.08014000207185745,-0.0008200000156648457,-0.003809999907389283,21.746999740600586
6481.578435903764,1165128.0,0.0752900019288063,-0.0027199999894946814,-0.0033599999733269215,21.533000946044922
6481.579435675687,1165129.0,0.06881999969482422,0.002360000042244792,-0.006219999864697456,21.527000427246094
6481.58043544761,1165130.0,0.06199000030755997,0.0016299999551847577,0.004269999917596579,21.489999771118164
6481.581435219533,1165131.0,0.05570000037550926,0.002360000042244792,0.002950000111013651,21.486000061035156
6481.582434991456,1165132.0,0.05012999847531319,-0.0030900000128895044,0.0010000000474974513,21.583999633789062
6481.583434763378,1165133.0,0.045820001512765884,0.0027199999894946814,-0.0011399999493733048,21.441999435424805
6481.584434535301,1165134.0,0.040699999779462814,-0.008170000277459621,-0.0020000000949949026,21.420000076293945
6481.585434307224,1165135.0,0.0350399985909462,-0.0013599999947473407,0.0025400000158697367,21.441999435424805
6481.586434079147,1165136.0,0.030640000477433205,0.006039999891072512,-0.000910000002477318,21.51799964904785
6481.587433851069,1165137.0,0.02622999995946884,0.0028200000524520874,-0.005859999917447567,21.503000259399414
6481.588433622992,1165138.0,0.022099999710917473,-0.003449999960139394,-0.0028200000524520874,21.323999404907227
6481.5894333949145,1165139.0,0.01779000088572502,0.00018000000272877514,-0.003000000026077032,21.266000747680664
6481.590433166837,1165140.0,0.0129399998113513,-0.005539999809116125,0.003809999907389283,21.30699920654297
6481.591432938761,1165141.0,0.007459999993443489,-0.004040000028908253,-0.004540000110864639,21.270999908447266
6481.592432710683,1165142.0,0.004129999782890081,-0.00880999956279993,-0.004269999917596579,21.249000549316406
6481.593432482606,1165143.0,0.0014400000218302011,-0.0036800000816583633,0.006180000025779009,21.29800033569336
6481.594432254528,1165144.0,-0.0008999999845400453,0.0036299999337643385,0.0020000000949949026,20.83099937438965
6481.595432026451,1165145.0,-0.0017099999822676182,-0.003449999960139394,0.0031799999997019768,21.309999465942383
6481.596431798374,1165146.0,-0.001979999942705035,0.0017300000181421638,-0.000910000002477318,20.8439998626709
6481.597431570297,1165147.0,-0.0033199999015778303,0.004999999888241291,0.0021800000686198473,20.850000381469727
6481.59843134222,1165148.0,-0.003949999809265137,0.0013200000394135714,0.0017300000181421638,20.847000122070312
6481.599431114142,1165149.0,-0.004129999782890081,0.0010400000028312206,-0.007079999893903732,21.10099983215332
6481.600430886065,1165150.0,-0.0036800000816583633,-0.003719999920576811,-0.0059899999760091305,21.209999084472656
6481.601430657988,1165151.0,-0.0027000000700354576,0.001449999981559813,-0.0030900000128895044,21.033000946044922
6481.602430429911,1165152.0,-0.0028299998957663774,-0.0027199999894946814,0.0016799999866634607,21.155000686645508
6481.603430201833,1165153.0,-0.0036800000816583633,0.00018000000272877514,-0.0021299999207258224,21.14900016784668
6481.604429973756,1165154.0,-0.003949999809265137,0.005270000081509352,-0.005630000028759241,21.100000381469727
6481.6054297456785,1165155.0,-0.003949999809265137,-0.003449999960139394,0.004269999917596579,20.8799991607666
6481.606429517602,1165156.0,-0.004129999782890081,-0.000539999979082495,-4.999999873689376e-05,20.996000289916992
6481.607429289525,1165157.0,-0.004040000028908253,-0.003000000026077032,0.0028200000524520874,20.895000457763672
6481.608429061447,1165158.0,-0.0052999998442828655,-0.004269999917596579,-0.003909999970346689,20.92300033569336
6481.60942883337,1165159.0,-0.005750000011175871,-0.005810000002384186,-0.0010000000474974513,20.91699981689453
6481.610428605292,1165160.0,-0.005750000011175871,-0.004269999917596579,-0.0033599999733269215,20.913999557495117
6481.611428377215,1165161.0,-0.004670000169426203,0.0030900000128895044,0.001820000004954636,20.785999298095703
6481.612428149138,1165162.0,-0.003590000094845891,-0.004449999891221523,0.0029100000392645597,20.83099937438965
6481.613427921061,1165163.0,-0.0034099998883903027,9.000000136438757e-05,-0.002630000002682209,20.541000366210938
6481.614427692984,1165164.0,-0.003590000094845891,0.0010900000343099236,0.0015399999683722854,20.739999771118164
6481.615427464906,1165165.0,-0.0034099998883903027,-0.0019499999471008778,-0.0020000000949949026,20.69700050354004
6481.616427236829,1165166.0,-0.004129999782890081,0.0003600000054575503,0.002090000081807375,20.67300033569336
6481.617427008752,1165167.0,-0.004490000195801258,-0.002360000042244792,0.000539999979082495,20.763999938964844
6481.618426780675,1165168.0,-0.004129999782890081,0.0030900000128895044,-0.0029100000392645597,20.69700050354004
6481.619426552597,1165169.0,-0.002959999954327941,-0.0059899999760091305,-0.0002699999895412475,20.624000549316406
6481.62042632452,1165170.0,-0.001979999942705035,-0.005270000081509352,-0.0027199999894946814,20.586999893188477
6481.6214260964425,1165171.0,-0.0028800000436604023,-0.0030900000128895044,-0.0036800000816583633,20.558000564575195
6481.622425868366,1165172.0,-0.0022499999031424522,-0.004900000058114529,-0.00018000000272877514,20.551000595092773
6481.623425640289,1165173.0,-0.0015300000086426735,0.0029100000392645597,-0.0024500000290572643,20.517000198364258
6481.624425412211,1165174.0,-0.0023399998899549246,-0.002950000111013651,-0.003220000071451068,20.55699920654297
6481.625425184134,1165175.0,-0.0014400000218302011,0.0036800000816583633,-0.005630000028759241,20.117000579833984
6481.626424956056,1165176.0,-0.0009899999713525176,0.000910000002477318,0.0007699999841861427,20.038000106811523
6481.627424727979,1165177.0,-0.0003600000054575503,0.00018000000272877514,0.0033599999733269215,20.020000457763672
6481.628424499902,1165178.0,0.0002699999895412475,-0.003000000026077032,-0.007449999917298555,20.400999069213867
6481.629424271825,1165179.0,0.0003600000054575503,-0.004900000058114529,-0.005179999861866236,20.46500015258789
6481.630424043748,1165180.0,0.0006699999794363976,-0.0021299999207258224,-0.005810000002384186,20.368999481201172
6481.63142381567,1165181.0,0.0006300000241026282,-0.000910000002477318,0.0013599999947473407,20.3799991607666
6481.632423587593,1165182.0,0.0006699999794363976,0.003269999986514449,-0.0014100000262260437,20.333999633789062
6481.633423359516,1165183.0,-0.00018000000272877514,0.002090000081807375,0.0021299999207258224,20.33099937438965
6481.634423131439,1165184.0,-9.000000136438757e-05,0.004089999943971634,-0.0033199999015778303,20.163000106811523
6481.635422903361,1165185.0,0.00018000000272877514,-0.004769999999552965,-0.0006799999973736703,20.367000579833984
6481.636422675284,1165186.0,0.0,4.999999873689376e-05,0.004089999943971634,20.232999801635742
6481.6374224472065,1165187.0,-0.0012600000482052565,-0.0034099998883903027,-0.001449999981559813,20.343000411987305
6481.63842221913,1165188.0,-0.0014400000218302011,0.0020000000949949026,0.0002699999895412475,20.2450008392334
6481.639421991053,1165189.0,-0.0016199999954551458,-0.004809999838471413,-0.005040000192821026,20.19700050354004
6481.640421762975,1165190.0,-0.000539999979082495,-0.005539999809116125,0.0029100000392645597,20.27400016784668
6481.641421534898,1165191.0,-0.0015300000086426735,-0.0017300000181421638,-0.0007699999841861427,20.077999114990234
6481.64242130682,1165192.0,-0.0017999999690800905,-0.005090000107884407,0.0015399999683722854,20.12299919128418
6481.643421078743,1165193.0,-0.0016199999954551458,-0.004310000222176313,-0.006990000139921904,19.701000213623047
6481.644420850666,1165194.0,-0.002520000096410513,-0.0029100000392645597,-0.003590000094845891,19.854999542236328
6481.645420622589,1165195.0,-0.004129999782890081,-0.002090000081807375,0.0020000000949949026,19.87299919128418
6481.646420394512,1165196.0,-0.006920000072568655,-0.005630000028759241,-0.0019099999917671084,19.986000061035156
6481.647420166434,1165197.0,-0.00773000018671155,0.004900000058114529,-0.00418000016361475,19.98900032043457
6481.648419938357,1165198.0,-0.008270000107586384,-0.0013599999947473407,-0.002360000042244792,19.96500015258789
6481.64941971028,1165199.0,-0.008799999952316284,-9.000000136438757e-05,-0.001180000021122396,20.025999069213867
6481.650419482203,1165200.0,-0.009519999846816063,0.0,0.003809999907389283,19.99799919128418
6481.651419254125,1165201.0,-0.009879999794065952,0.0012700000079348683,-0.0025400000158697367,19.968000411987305
6481.652419026048,1165202.0,-0.009429999627172947,0.002360000042244792,0.0020000000949949026,19.48200035095215
6481.6534187979705,1165203.0,-0.007369999773800373,-0.004679999779909849,0.0016299999551847577,19.95800018310547
6481.654418569894,1165204.0,-0.00610999995842576,0.005450000055134296,0.0027199999894946814,19.788000106811523
6481.655418341817,1165205.0,-0.004129999782890081,0.0010000000474974513,-0.005630000028759241,19.74799919128418
6481.656418113739,1165206.0,-0.0028800000436604023,0.0029100000392645597,-0.003449999960139394,19.719999313354492
6481.657417885662,1165207.0,-0.0022899999748915434,0.0027199999894946814,0.004000000189989805,19.695999145507812
6481.658417657584,1165208.0,-0.0027000000700354576,-0.005270000081509352,0.0002699999895412475,19.820999145507812
6481.659417429508,1165209.0,-0.0013899999903514981,0.0025400000158697367,0.0012700000079348683,19.68400001525879
6481.66041720143,1165210.0,0.0008999999845400453,-0.00418000016361475,-0.003949999809265137,19.732999801635742
6481.661416973353,1165211.0,0.004670000169426203,-0.003909999970346689,0.00018000000272877514,19.64699935913086
6481.662416745276,1165212.0,0.005570000037550926,-0.00418000016361475,-0.003719999920576811,19.649999618530273
6481.663416517198,1165213.0,0.004129999782890081,0.0027199999894946814,-0.005090000107884407,19.659000396728516
6481.664416289121,1165214.0,0.0031399999279528856,-0.005270000081509352,-0.004809999838471413,19.53700065612793
6481.665416061044,1165215.0,0.0020699999295175076,0.0010000000474974513,-0.0029100000392645597,19.55299949645996
6481.666415832967,1165216.0,0.0023399998899549246,-0.0025400000158697367,-0.003000000026077032,19.524999618530273
6481.667415604889,1165217.0,0.0016199999954551458,-0.004000000189989805,0.000539999979082495,19.48900032043457
6481.668415376812,1165218.0,0.0012600000482052565,-0.005270000081509352,0.001449999981559813,19.45199966430664
6481.6694151487345,1165219.0,0.0007200000109151006,-0.006899999920278788,0.003449999960139394,19.4060001373291
6481.670414920658,1165220.0,0.0002699999895412475,0.005489999894052744,0.0025400000158697367,19.371000289916992
6481.671414692581,1165221.0,-0.000539999979082495,-0.006719999946653843,0.001769999973475933,19.354000091552734
6481.672414464503,1165222.0,0.000539999979082495,-0.0022700000554323196,-0.0021800000686198473,19.360000610351562
6481.673414236426,1165223.0,-0.0008099999977275729,-0.00044999999227002263,0.005179999861866236,19.32699966430664
6481.674414008348,1165224.0,-0.001979999942705035,-0.003590000094845891,-0.00535999983549118,19.288999557495117
6481.675413780271,1165225.0,-0.0031399999279528856,-0.0015399999683722854,0.0013200000394135714,19.086000442504883
6481.676413552194,1165226.0,-0.0027000000700354576,-0.0024500000290572643,-0.004540000110864639,19.393999099731445
6481.677413324117,1165227.0,-0.0023399998899549246,0.0025400000158697367,-0.006990000139921904,19.211000442504883
6481.67841309604,1165228.0,-0.0016199999954551458,0.0031799999997019768,-0.0007699999841861427,19.312000274658203
6481.679412867962,1165229.0,-0.0026100000832229853,0.005270000081509352,0.0009500000160187483,19.235000610351562
6481.680412639885,1165230.0,-0.0036800000816583633,-0.000539999979082495,0.00044999999227002263,19.135000228881836
6481.681412411808,1165231.0,-0.0047599999234080315,0.002630000002682209,-0.0036299999337643385,19.22100067138672
6481.682412183731,1165232.0,-0.004490000195801258,-0.007809999864548445,-0.001449999981559813,18.7810001373291
6481.683411955653,1165233.0,-0.005840000230818987,0.004900000058114529,0.004540000110864639,19.219999313354492
6481.684411727576,1165234.0,-0.005030000116676092,-0.006180000025779009,-0.005810000002384186,18.881000518798828
6481.6854114994985,1165235.0,-0.004490000195801258,-0.0016299999551847577,0.000910000002477318,18.91900062561035
6481.686411271422,1165236.0,-0.004310000222176313,0.004000000189989805,-0.0012700000079348683,18.927000045776367
6481.687411043345,1165237.0,-0.0035500000230968,-0.001180000021122396,-9.000000136438757e-05,18.613000869750977
6481.688410815267,1165238.0,-0.004670000169426203,-0.0020000000949949026,-0.0022299999836832285,19.079999923706055
6481.68941058719,1165239.0,-0.005080000031739473,-0.002859999891370535,-0.003809999907389283,18.93899917602539
6481.690410359112,1165240.0,-0.0048500001430511475,-0.0033199999015778303,-0.001230000052601099,18.93899917602539
6481.691410131036,1165241.0,-0.0037700000684708357,-0.004449999891221523,-0.0024500000290572643,18.902999877929688
6481.692409902958,1165242.0,-0.0028800000436604023,-0.004540000110864639,-0.000910000002477318,18.884000778198242
6481.693409674881,1165243.0,-0.00215999991632998,-0.007079999893903732,-0.006949999835342169,18.902999877929688
6481.694409446804,1165244.0,-0.0027000000700354576,0.002360000042244792,-0.00031999999191612005,18.76799964904785
6481.695409218726,1165245.0,-0.0014400000218302011,-0.003809999907389283,0.004809999838471413,18.79599952697754
6481.696408990649,1165246.0,-0.001979999942705035,-0.0033599999733269215,-0.0062699997797608376,18.584999084472656
6481.697408762572,1165247.0,-0.0048500001430511475,-0.005590000189840794,-9.000000136438757e-05,18.55500030517578
6481.698408534495,1165248.0,-0.00674000009894371,-0.0027199999894946814,-0.0003600000054575503,18.54199981689453
6481.699408306417,1165249.0,-0.004670000169426203,-0.004360000137239695,0.000539999979082495,18.674999237060547
6481.70040807834,1165250.0,-0.0047599999234080315,0.0020000000949949026,0.000910000002477318,18.32900047302246
6481.7014078502625,1165251.0,-0.004629999864846468,-0.002360000042244792,0.0010000000474974513,18.743999481201172
6481.702407622186,1165252.0,-0.004040000028908253,-0.0015899999998509884,0.003590000094845891,18.709999084472656
6481.703407394109,1165253.0,-0.0048500001430511475,-0.0029100000392645597,-0.004040000028908253,18.683000564575195
6481.704407166031,1165254.0,-0.004129999782890081,-0.005900000222027302,-0.004629999864846468,18.652000427246094
6481.705406937954,1165255.0,-0.004040000028908253,-0.0003600000054575503,-0.0021299999207258224,18.55299949645996
6481.706406709876,1165256.0,-0.003590000094845891,-0.0024500000290572643,-0.002589999930933118,18.615999221801758
6481.7074064818,1165257.0,-0.002959999954327941,0.002360000042244792,0.000910000002477318,18.457000732421875
6481.708406253722,1165258.0,-0.0027000000700354576,0.0016299999551847577,-0.001769999973475933,18.427000045776367
6481.709406025645,1165259.0,-0.0017500000540167093,-0.005179999861866236,0.00031999999191612005,18.389999389648438
6481.710405797568,1165260.0,-0.0008099999977275729,-0.0033599999733269215,0.001769999973475933,18.378000259399414
6481.71140556949,1165261.0,-0.0013500000350177288,0.0007699999841861427,0.0020000000949949026,18.40399932861328
6481.712405341413,1165262.0,-0.0026100000832229853,-0.004679999779909849,-0.000539999979082495,18.31999969482422
6481.713405113336,1165263.0,-0.0028299998957663774,-0.0016299999551847577,-0.001820000004954636,18.32900047302246
6481.714404885259,1165264.0,-0.0025599999353289604,-0.002360000042244792,0.002859999891370535,18.402000427246094
6481.715404657181,1165265.0,-0.00215999991632998,-0.004129999782890081,0.000910000002477318,18.389999389648438
6481.716404429104,1165266.0,-0.0030499999411404133,0.0016299999551847577,-0.006490000057965517,18.395999908447266
6481.7174042010265,1165267.0,-0.0027000000700354576,-0.0006399999838322401,-0.000910000002477318,18.21299934387207
6481.71840397295,1165268.0,-0.0021100000012665987,-0.001449999981559813,0.0029100000392645597,18.197999954223633
6481.719403744873,1165269.0,-0.0023399998899549246,-0.005539999809116125,0.0012700000079348683,18.149999618530273
6481.720403516795,1165270.0,-0.0026499999221414328,-0.003449999960139394,-9.000000136438757e-05,18.124000549316406
6481.721403288718,1165271.0,-0.0027000000700354576,-0.005630000028759241,-0.003809999907389283,18.124000549316406
6481.72240306064,1165272.0,-0.0026100000832229853,-0.008539999835193157,0.004629999864846468,18.06599998474121
6481.723402832564,1165273.0,-0.0031399999279528856,0.000910000002477318,-0.001449999981559813,17.87700080871582
6481.724402604486,1165274.0,-0.003949999809265137,-0.007449999917298555,-0.0024999999441206455,18.134000778198242
6481.725402376409,1165275.0,-0.003229999914765358,-0.0051299999468028545,-0.004310000222176313,17.950000762939453
6481.7264021483315,1165276.0,-0.0022499999031424522,-0.004540000110864639,-0.0059899999760091305,17.913999557495117
6481.727401920254,1165277.0,-0.0023399998899549246,-0.006899999920278788,-0.0019099999917671084,17.8799991607666
6481.728401692177,1165278.0,-0.004089999943971634,-0.0036299999337643385,-0.003719999920576811,17.96299934387207
6481.7294014641,1165279.0,-0.005210000090301037,0.005270000081509352,-0.003000000026077032,17.950000762939453
6481.730401236023,1165280.0,-0.0053900000639259815,-0.00018000000272877514,0.0028200000524520874,17.892000198364258
6481.731401007945,1165281.0,-0.005119999870657921,-0.0011399999493733048,0.0,17.983999252319336
6481.732400779868,1165282.0,-0.004129999782890081,-0.0059899999760091305,0.004540000110864639,17.97599983215332
6481.7334005517905,1165283.0,-0.004579999949783087,-0.003449999960139394,-0.002090000081807375,17.937999725341797
6481.734400323714,1165284.0,-0.003590000094845891,-0.006089999806135893,0.002360000042244792,17.809999465942383
6481.735400095637,1165285.0,-0.0030499999411404133,0.003809999907389283,-0.00418000016361475,17.722000122070312
6481.736399867559,1165286.0,-0.002959999954327941,-0.004360000137239695,-0.0028200000524520874,17.743000030517578
6481.737399639482,1165287.0,-0.00215999991632998,-0.005900000222027302,-0.0002699999895412475,17.523000717163086
6481.738399411404,1165288.0,-0.0012600000482052565,-0.0027199999894946814,0.003000000026077032,17.635000228881836
6481.739399183328,1165289.0,-0.0012600000482052565,-0.0010900000343099236,0.002090000081807375,17.68199920654297
6481.74039895525,1165290.0,-0.00215999991632998,-0.003719999920576811,-0.0016299999551847577,17.632999420166016
6481.741398727173,1165291.0,-0.0026100000832229853,0.0006399999838322401,0.0022299999836832285,17.608999252319336
6481.7423984990955,1165292.0,-0.0028800000436604023,-0.0016299999551847577,-0.0028200000524520874,17.569000244140625
6481.743398271018,1165293.0,-0.001979999942705035,-0.005040000192821026,0.003269999986514449,17.593000411987305
6481.744398042942,1165294.0,-0.0012600000482052565,-0.0059899999760091305,-0.0022299999836832285,17.506000518798828
6481.745397814864,1165295.0,-0.0009899999713525176,-0.000910000002477318,-0.0019499999471008778,17.474000930786133
6481.746397586787,1165296.0,-0.0014400000218302011,-0.0051299999468028545,-0.00018000000272877514,17.5049991607666
6481.747397358709,1165297.0,-0.0014799999771639705,-0.00031999999191612005,0.0010400000028312206,17.417999267578125
6481.748397130632,1165298.0,-0.0008999999845400453,-0.0024999999441206455,0.0013599999947473407,17.368999481201172
6481.7493969025545,1165299.0,-0.0017099999822676182,-0.004809999838471413,-0.003000000026077032,17.392000198364258
6481.750396674478,1165300.0,-0.00215999991632998,-0.000910000002477318,-0.0062699997797608376,17.461999893188477
6481.751396446401,1165301.0,-0.004129999782890081,0.0012700000079348683,-0.0044999998062849045,17.48699951171875
6481.752396218323,1165302.0,-0.0053900000639259815,-0.0027199999894946814,-0.004900000058114529,17.364999771118164
6481.753395990246,1165303.0,-0.005119999870657921,-0.004449999891221523,-0.003719999920576811,17.371999740600586
6481.754395762168,1165304.0,-0.005210000090301037,-0.00041000000783242285,0.0031799999997019768,17.229999542236328
6481.755395534092,1165305.0,-0.005570000037550926,0.004269999917596579,-0.006899999920278788,17.218000411987305
6481.756395306014,1165306.0,-0.005929999984800816,-0.003449999960139394,-0.0010900000343099236,17.211999893188477
6481.757395077937,1165307.0,-0.006289999932050705,-0.004089999943971634,0.000910000002477318,17.19700050354004
6481.7583948498595,1165308.0,-0.0064199999906122684,0.0002699999895412475,0.0012700000079348683,17.19700050354004
6481.759394621782,1165309.0,-0.0064199999906122684,-0.004629999864846468,0.001449999981559813,17.1200008392334
6481.760394393706,1165310.0,-0.00674000009894371,-0.0008200000156648457,-0.004720000084489584,17.150999069213867
6481.761394165628,1165311.0,-0.006649999879300594,0.0007300000288523734,-0.002360000042244792,17.229999542236328
6481.762393937551,1165312.0,-0.005929999984800816,-0.006180000025779009,0.003269999986514449,17.194000244140625
6481.763393709473,1165313.0,-0.0037700000684708357,-0.004540000110864639,-0.0019499999471008778,17.09600067138672
6481.764393481396,1165314.0,-0.004040000028908253,0.0010400000028312206,-0.004540000110864639,16.974000930786133
6481.7653932533185,1165315.0,-0.0030499999411404133,-0.0021299999207258224,-0.0007699999841861427,16.948999404907227
6481.766393025242,1165316.0,-0.0013899999903514981,0.0010900000343099236,0.00018000000272877514,16.99799919128418
6481.767392797165,1165317.0,-0.0017999999690800905,0.0009500000160187483,0.003590000094845891,16.624000549316406
6481.768392569087,1165318.0,-0.0018899999558925629,-0.005859999917447567,0.0010900000343099236,16.69300079345703
6481.76939234101,1165319.0,-0.0021100000012665987,-0.000539999979082495,0.000539999979082495,16.857999801635742
6481.770392112932,1165320.0,-0.001979999942705035,-0.005539999809116125,-0.007079999893903732,16.750999450683594
6481.771391884856,1165321.0,-0.0012600000482052565,0.0020000000949949026,-0.00418000016361475,16.920000076293945
6481.772391656778,1165322.0,-0.0009899999713525176,0.0021299999207258224,9.000000136438757e-05,16.81800079345703
6481.773391428701,1165323.0,-0.0013500000350177288,0.003269999986514449,-0.0029100000392645597,16.791000366210938
6481.7743912006235,1165324.0,-0.0016199999954551458,0.0021800000686198473,-0.003449999960139394,16.760000228881836
6481.775390972546,1165325.0,-0.002520000096410513,0.0030900000128895044,0.0017300000181421638,16.766000747680664
6481.77639074447,1165326.0,-0.002199999988079071,0.0021299999207258224,0.005810000002384186,16.742000579833984
6481.777390516392,1165327.0,-0.0026100000832229853,-0.002409999957308173,0.0036299999337643385,16.6560001373291
6481.778390288315,1165328.0,-0.0036800000816583633,-0.003809999907389283,-0.002859999891370535,16.780000686645508
6481.779390060237,1165329.0,-0.0037700000684708357,0.0003600000054575503,0.0019099999917671084,16.756999969482422
6481.78038983216,1165330.0,-0.004579999949783087,0.0027199999894946814,0.004629999864846468,16.724000930786133
6481.7813896040825,1165331.0,-0.0030499999411404133,-0.00267999991774559,-0.005090000107884407,16.315000534057617
6481.782389376006,1165332.0,-0.00018000000272877514,-0.001449999981559813,-0.004769999999552965,16.698999404907227
6481.783389147929,1165333.0,0.0003600000054575503,-0.005489999894052744,-0.004360000137239695,16.47599983215332
6481.784388919851,1165334.0,-0.0017999999690800905,-0.005630000028759241,0.0013599999947473407,16.55900001525879
6481.785388691774,1165335.0,-0.0023399998899549246,-0.0020000000949949026,0.0012700000079348683,16.461000442504883
6481.786388463696,1165336.0,-0.001979999942705035,-0.0012700000079348683,-0.003809999907389283,16.486000061035156
6481.78738823562,1165337.0,-0.0011699999449774623,-0.003909999970346689,-0.0033599999733269215,16.315000534057617
6481.788388007542,1165338.0,0.0002699999895412475,0.0010000000474974513,-0.0016299999551847577,16.399999618530273
6481.789387779465,1165339.0,0.0012600000482052565,-0.001449999981559813,-0.0012700000079348683,16.01300048828125
6481.7903875513875,1165340.0,0.0017099999822676182,-0.0013599999947473407,-0.003449999960139394,16.339000701904297
6481.79138732331,1165341.0,0.0030499999411404133,-0.004129999782890081,-0.004089999943971634,16.32699966430664
6481.792387095234,1165342.0,0.003949999809265137,-0.004540000110864639,0.0009500000160187483,16.290000915527344
6481.793386867156,1165343.0,0.004310000222176313,0.00418000016361475,0.0003600000054575503,16.38800048828125
6481.794386639079,1165344.0,0.0034600000362843275,-0.003809999907389283,-0.0003600000054575503,16.19300079345703
6481.795386411001,1165345.0,0.00215999991632998,0.004269999917596579,-0.004040000028908253,16.173999786376953
6481.796386182924,1165346.0,0.0014799999771639705,0.001820000004954636,0.004089999943971634,16.17099952697754
6481.797385954847,1165347.0,-0.0008099999977275729,9.000000136438757e-05,0.00203999993391335,16.256999969482422
6481.79838572677,1165348.0,-0.000539999979082495,-0.0063599999994039536,-0.008170000277459621,16.240999221801758
6481.799385498693,1165349.0,0.00018000000272877514,-0.000539999979082495,-0.003719999920576811,16.058000564575195
6481.800385270615,1165350.0,0.00215999991632998,0.0002300000051036477,0.00044999999227002263,15.96399974822998
6481.801385042538,1165351.0,0.0048500001430511475,-0.00018000000272877514,0.004629999864846468,16.073999404907227
6481.80238481446,1165352.0,0.005030000116676092,0.005270000081509352,-0.005179999861866236,16.14699935913086
6481.803384586384,1165353.0,0.0048500001430511475,0.0010900000343099236,-0.0033599999733269215,16.167999267578125
6481.804384358306,1165354.0,0.004490000195801258,0.0030900000128895044,0.0015399999683722854,16.10700035095215
6481.805384130229,1165355.0,0.003590000094845891,-0.002630000002682209,-0.001180000021122396,15.906000137329102
6481.8063839021515,1165356.0,0.004720000084489584,0.0012700000079348683,0.0002300000051036477,15.822999954223633
6481.807383674074,1165357.0,0.006020000204443932,-0.004809999838471413,-0.0029100000392645597,15.842000007629395
6481.808383445998,1165358.0,0.005929999984800816,-0.00418000016361475,-0.000910000002477318,15.819000244140625
6481.80938321792,1165359.0,0.006020000204443932,0.0029100000392645597,0.0013599999947473407,15.810999870300293
6481.810382989843,1165360.0,0.006649999879300594,-0.0030900000128895044,-0.0021299999207258224,15.97700023651123
6481.811382761765,1165361.0,0.006060000043362379,0.00018000000272877514,-0.0022700000554323196,15.753000259399414
6481.812382533688,1165362.0,0.006289999932050705,-0.00418000016361475,-0.0059899999760091305,15.765000343322754
6481.8133823056105,1165363.0,0.0052999998442828655,-0.003719999920576811,4.999999873689376e-05,15.779000282287598
6481.814382077534,1165364.0,0.00547999981790781,-0.004360000137239695,-0.00535999983549118,15.744000434875488
6481.815381849457,1165365.0,0.00610999995842576,-0.004769999999552965,-0.002319999970495701,15.656000137329102
6481.816381621379,1165366.0,0.006649999879300594,-0.005179999861866236,-0.00031999999191612005,15.789999961853027
6481.817381393302,1165367.0,0.007369999773800373,0.003449999960139394,0.0012700000079348683,15.64799976348877
6481.818381165224,1165368.0,0.008310000412166119,-0.003809999907389283,-0.0015399999683722854,15.668000221252441
6481.819380937148,1165369.0,0.009159999899566174,0.0016299999551847577,-0.0022299999836832285,15.36299991607666
6481.82038070907,1165370.0,0.009390000253915787,0.0012700000079348683,0.003809999907389283,15.314000129699707
6481.821380480993,1165371.0,0.009879999794065952,-0.0030900000128895044,-0.0024500000290572643,15.302000045776367
6481.8223802529155,1165372.0,0.010870000347495079,0.005630000028759241,0.0006799999973736703,15.46500015258789
6481.823380024838,1165373.0,0.010780000127851963,-0.0027199999894946814,9.000000136438757e-05,15.230999946594238
6481.824379796762,1165374.0,0.010689999908208847,-0.003719999920576811,-0.0020000000949949026,15.597999572753906
6481.825379568684,1165375.0,0.011009999550879002,-0.003000000026077032,-0.003220000071451068,15.402000427246094
6481.826379340607,1165376.0,0.01131999958306551,-0.0008200000156648457,-0.005900000222027302,15.36299991607666
6481.827379112529,1165377.0,0.010870000347495079,0.005270000081509352,0.0027199999894946814,15.338000297546387
6481.828378884452,1165378.0,0.010239999741315842,-0.004000000189989805,-0.004089999943971634,15.288999557495117
6481.829378656375,1165379.0,0.0088900001719594,0.003539999946951866,-0.003000000026077032,15.199000358581543
6481.830378428298,1165380.0,0.008449999615550041,-0.0012700000079348683,-0.0024500000290572643,15.435999870300293
6481.831378200221,1165381.0,0.008630000054836273,-0.00044999999227002263,9.000000136438757e-05,15.39900016784668
6481.832377972143,1165382.0,0.00872000027447939,-0.004540000110864639,-0.00418000016361475,15.36400032043457
6481.833377744066,1165383.0,0.0088900001719594,-0.0029100000392645597,-0.004540000110864639,15.314000129699707
6481.834377515988,1165384.0,0.009700000286102295,0.0030900000128895044,-0.0030900000128895044,14.920000076293945
6481.835377287912,1165385.0,0.010110000148415565,-0.004809999838471413,-0.0027199999894946814,15.326000213623047
6481.836377059834,1165386.0,0.010239999741315842,0.004540000110864639,0.0019099999917671084,15.076000213623047
6481.837376831757,1165387.0,0.010689999908208847,0.002360000042244792,-0.002950000111013651,15.057000160217285
6481.8383766036795,1165388.0,0.008940000087022781,0.0020000000949949026,-0.003539999946951866,15.053999900817871
6481.839376375602,1165389.0,0.007369999773800373,0.0013599999947473407,0.003449999960139394,15.038999557495117
6481.840376147526,1165390.0,0.005929999984800816,-0.00418000016361475,-0.001449999981559813,15.041999816894531
6481.841375919448,1165391.0,0.005570000037550926,-0.000910000002477318,-0.003719999920576811,14.987000465393066
6481.842375691371,1165392.0,0.005260000005364418,-0.008080000057816505,-0.0059899999760091305,14.637999534606934
6481.843375463293,1165393.0,0.0047599999234080315,-0.005179999861866236,0.0027199999894946814,14.574999809265137
6481.844375235216,1165394.0,0.004490000195801258,-0.004000000189989805,0.0006799999973736703,14.54800033569336
6481.845375007139,1165395.0,0.0037700000684708357,-0.005900000222027302,-0.004900000058114529,14.840999603271484
6481.846374779062,1165396.0,0.00279000005684793,0.001180000021122396,-0.005539999809116125,14.824999809265137
6481.847374550985,1165397.0,0.0008999999845400453,-0.006310000084340572,-0.0020000000949949026,14.812999725341797
6481.848374322907,1165398.0,-0.0012600000482052565,0.000539999979082495,0.0030900000128895044,14.79800033569336
6481.84937409483,1165399.0,-0.00018000000272877514,-0.003000000026077032,-0.0027199999894946814,14.803999900817871
6481.850373866752,1165400.0,0.0017099999822676182,-0.002630000002682209,-0.003809999907389283,14.812999725341797
6481.851373638676,1165401.0,0.000539999979082495,-0.004449999891221523,0.002859999891370535,14.618000030517578
6481.852373410598,1165402.0,-0.0012600000482052565,-0.00031999999191612005,0.0024500000290572643,14.777000427246094
6481.853373182521,1165403.0,-0.002199999988079071,0.000539999979082495,0.00031999999191612005,14.333999633789062
6481.8543729544435,1165404.0,-0.003590000094845891,0.0018599999602884054,-0.001449999981559813,14.743000030517578
6481.855372726366,1165405.0,-0.004670000169426203,0.0013599999947473407,0.0029100000392645597,14.70300006866455
6481.85637249829,1165406.0,-0.004720000084489584,0.00418000016361475,-0.005770000163465738,14.657999992370605
6481.857372270212,1165407.0,-0.004000000189989805,0.0024999999441206455,0.000910000002477318,14.583999633789062
6481.858372042135,1165408.0,-0.0023399998899549246,-0.0027199999894946814,0.00044999999227002263,14.503000259399414
6481.859371814057,1165409.0,-0.0012600000482052565,0.0007300000288523734,-0.0051299999468028545,14.4350004196167
6481.86037158598,1165410.0,-0.002469999948516488,-0.004720000084489584,0.002950000111013651,14.470999717712402
6481.861371357903,1165411.0,-0.0026100000832229853,-0.007809999864548445,-0.004900000058114529,14.414999961853027
6481.862371129826,1165412.0,-0.001979999942705035,-0.001449999981559813,-0.0010900000343099236,14.39799976348877
6481.863370901749,1165413.0,-0.0027000000700354576,-0.0020000000949949026,-0.003909999970346689,14.505000114440918
6481.864370673671,1165414.0,-0.001979999942705035,0.0024500000290572643,-0.0062699997797608376,14.348999977111816
6481.865370445594,1165415.0,-0.0016199999954551458,-0.00418000016361475,-0.00571999978274107,14.013999938964844
6481.866370217516,1165416.0,-0.0017099999822676182,0.001449999981559813,0.001449999981559813,14.291000366210938
6481.86736998944,1165417.0,-0.0003100000030826777,-0.001449999981559813,-0.003449999960139394,14.270000457763672
6481.868369761362,1165418.0,-0.0008999999845400453,-0.001820000004954636,-0.003590000094845891,14.255000114440918
6481.869369533285,1165419.0,-0.0024300001095980406,0.0010000000474974513,-0.0012700000079348683,14.258000373840332
6481.8703693052075,1165420.0,-0.002520000096410513,0.00018000000272877514,-0.003590000094845891,14.300999641418457
6481.87136907713,1165421.0,-0.00107999995816499,-0.00267999991774559,-0.004679999779909849,14.21500015258789
6481.872368849054,1165422.0,-0.001120000029914081,-0.0063599999994039536,-0.00535999983549118,14.119999885559082
6481.873368620976,1165423.0,-0.0016199999954551458,-0.0036800000816583633,0.001449999981559813,14.104999542236328
6481.874368392899,1165424.0,-0.0022499999031424522,-0.0002699999895412475,-0.0022700000554323196,14.098999977111816
6481.875368164821,1165425.0,-0.0034099998883903027,-0.004629999864846468,-0.0002699999895412475,13.817999839782715
6481.876367936744,1165426.0,-0.004269999917596579,-0.005179999861866236,0.002360000042244792,14.218000411987305
6481.877367708667,1165427.0,-0.003590000094845891,-0.001180000021122396,0.003590000094845891,13.994999885559082
6481.87836748059,1165428.0,-0.0016199999954551458,0.0006399999838322401,-0.0014100000262260437,13.96500015258789
6481.879367252513,1165429.0,-0.000539999979082495,-0.003590000094845891,0.00041000000783242285,13.946999549865723
6481.880367024435,1165430.0,0.0,-0.00418000016361475,0.0029100000392645597,13.904000282287598
6481.881366796358,1165431.0,-0.00018000000272877514,0.004449999891221523,0.001449999981559813,13.857000350952148
6481.882366568281,1165432.0,-0.00018000000272877514,-0.005040000192821026,0.0015399999683722854,13.991999626159668
6481.883366340204,1165433.0,-0.0003100000030826777,0.0025400000158697367,-0.003809999907389283,13.604999542236328
6481.884366112126,1165434.0,-0.00018000000272877514,0.0033599999733269215,0.000910000002477318,13.555999755859375
6481.885365884049,1165435.0,0.00018000000272877514,0.0016799999866634607,-0.0063599999994039536,13.463000297546387
6481.8863656559715,1165436.0,0.0016199999954551458,0.001500000013038516,0.0,13.765999794006348
6481.887365427894,1165437.0,0.00107999995816499,-0.001180000021122396,-0.0017300000181421638,13.70199966430664
6481.888365199818,1165438.0,-0.0014400000218302011,-0.006180000025779009,-0.000910000002477318,13.890000343322754
6481.88936497174,1165439.0,-0.0029200001154094934,-0.001180000021122396,-0.003269999986514449,13.402000427246094
6481.890364743663,1165440.0,-0.0028800000436604023,-0.0005000000237487257,0.0007300000288523734,13.342000007629395
6481.891364515585,1165441.0,-0.003229999914765358,-0.0019499999471008778,0.0024500000290572643,13.454000473022461
6481.892364287508,1165442.0,-0.0034099998883903027,0.002589999930933118,9.000000136438757e-05,13.593000411987305
6481.893364059431,1165443.0,-0.003949999809265137,-0.005630000028759241,-0.004629999864846468,13.524999618530273
6481.894363831354,1165444.0,-0.0033199999015778303,0.003809999907389283,-0.004449999891221523,13.736000061035156
6481.895363603277,1165445.0,-0.0017099999822676182,-0.0030900000128895044,-0.0022700000554323196,13.378999710083008
6481.896363375199,1165446.0,-0.0023399998899549246,0.0012700000079348683,-0.0022299999836832285,13.442999839782715
6481.897363147122,1165447.0,-0.0026100000832229853,0.000910000002477318,0.001449999981559813,13.446000099182129
6481.898362919044,1165448.0,-0.002520000096410513,0.006180000025779009,-0.002360000042244792,13.470000267028809
6481.899362690968,1165449.0,-0.0012600000482052565,-0.004900000058114529,0.00018000000272877514,13.470000267028809
6481.90036246289,1165450.0,-0.0011699999449774623,0.0033599999733269215,0.0025400000158697367,13.394000053405762
6481.901362234813,1165451.0,-9.000000136438757e-05,0.0062699997797608376,0.0012700000079348683,13.555999755859375
6481.9023620067355,1165452.0,0.0006300000241026282,0.0007699999841861427,-0.000910000002477318,13.524999618530273
6481.903361778658,1165453.0,0.00022000000171829015,0.00418000016361475,0.0016299999551847577,13.479999542236328
6481.904361550582,1165454.0,0.0002699999895412475,0.0028200000524520874,-0.003590000094845891,13.284000396728516
6481.905361322504,1165455.0,-0.00018000000272877514,-0.004809999838471413,-0.004129999782890081,13.317999839782715
6481.906361094427,1165456.0,-0.00018000000272877514,0.0029100000392645597,-0.005900000222027302,12.946000099182129
6481.907360866349,1165457.0,-9.000000136438757e-05,-0.004720000084489584,0.0006399999838322401,13.182000160217285
6481.908360638272,1165458.0,0.00018000000272877514,-0.001500000013038516,-0.004269999917596579,13.164999961853027
6481.909360410195,1165459.0,0.0,0.0013599999947473407,-0.004449999891221523,13.152999877929688
6481.910360182118,1165460.0,0.0003600000054575503,-0.0010000000474974513,-0.005900000222027302,13.192999839782715
6481.911359954041,1165461.0,-9.000000136438757e-05,-0.0019099999917671084,-0.004129999782890081,13.170000076293945
6481.912359725963,1165462.0,-0.0003600000054575503,-0.0034099998883903027,-0.0059899999760091305,12.71399974822998
6481.913359497886,1165463.0,-0.0003100000030826777,0.003809999907389283,0.0030900000128895044,13.04800033569336
6481.914359269809,1165464.0,-0.0006699999794363976,0.003269999986514449,0.0013599999947473407,13.006999969482422
6481.915359041732,1165465.0,-0.0027000000700354576,0.0020000000949949026,-0.0010400000028312206,12.982000350952148
6481.916358813654,1165466.0,-0.003909999970346689,-0.00880999956279993,-0.003809999907389283,13.067999839782715
6481.917358585577,1165467.0,-0.003590000094845891,0.003449999960139394,-0.004900000058114529,12.939000129699707
6481.9183583574995,1165468.0,-0.001979999942705035,-0.0010900000343099236,-0.0033199999015778303,12.689000129699707
6481.919358129422,1165469.0,0.0,-0.005630000028759241,-0.004089999943971634,12.62399959564209
6481.920357901346,1165470.0,0.0008999999845400453,-0.0063599999994039536,-0.000910000002477318,12.76200008392334
6481.921357673268,1165471.0,0.0008999999845400453,-0.004629999864846468,-0.004629999864846468,12.677000045776367
6481.922357445191,1165472.0,0.0016199999954551458,0.0020000000949949026,-0.0017300000181421638,12.994000434875488
6481.923357217113,1165473.0,0.0013500000350177288,-0.0027199999894946814,0.00018000000272877514,12.774999618530273
6481.924356989036,1165474.0,0.0012600000482052565,0.0016299999551847577,0.0010900000343099236,12.732000350952148
6481.925356760959,1165475.0,0.002199999988079071,0.0024999999441206455,-0.002360000042244792,12.708999633789062
6481.926356532882,1165476.0,0.0033199999015778303,0.004220000002533197,-0.001820000004954636,12.633000373840332
6481.927356304805,1165477.0,0.0030499999411404133,0.002589999930933118,0.0012700000079348683,12.359999656677246
6481.928356076727,1165478.0,0.0026100000832229853,-0.004360000137239695,0.00418000016361475,12.767000198364258
6481.92935584865,1165479.0,0.0024300001095980406,-0.0003600000054575503,0.004360000137239695,12.621999740600586
6481.930355620573,1165480.0,0.0014400000218302011,-0.0006399999838322401,-0.0010000000474974513,12.567000389099121
6481.931355392496,1165481.0,0.0013500000350177288,-0.0030900000128895044,0.000910000002477318,12.552000045776367
6481.932355164418,1165482.0,0.0012600000482052565,-0.0036299999337643385,-0.002630000002682209,12.545999526977539
6481.933354936341,1165483.0,0.00107999995816499,-0.003539999946951866,0.000539999979082495,12.354000091552734
6481.9343547082635,1165484.0,0.0007200000109151006,0.007360000163316727,-0.004720000084489584,12.664999961853027
6481.935354480186,1165485.0,0.000539999979082495,-0.0016299999551847577,-0.00418000016361475,12.444999694824219
6481.93635425211,1165486.0,0.0016199999954551458,0.00418000016361475,-0.005630000028759241,12.543000221252441
6481.937354024032,1165487.0,0.0016199999954551458,-0.00014000000373926014,-0.00041000000783242285,12.444999694824219
6481.938353795955,1165488.0,0.00018000000272877514,0.0020000000949949026,0.0030900000128895044,12.359999656677246
6481.939353567877,1165489.0,-0.001120000029914081,0.0007699999841861427,-0.00418000016361475,12.37600040435791
6481.9403533398,1165490.0,-0.000539999979082495,0.0010000000474974513,-0.0008200000156648457,12.463000297546387
6481.941353111723,1165491.0,0.0012600000482052565,-0.005810000002384186,-0.0022700000554323196,12.291999816894531
6481.942352883646,1165492.0,0.0017999999690800905,-0.001500000013038516,0.0017300000181421638,12.463000297546387
6481.943352655569,1165493.0,0.001120000029914081,-0.005900000222027302,-0.006899999920278788,12.444999694824219
6481.944352427491,1165494.0,0.0016199999954551458,-0.0027199999894946814,-0.004129999782890081,12.395999908447266
6481.945352199414,1165495.0,0.0020699999295175076,0.0019099999917671084,-0.0013599999947473407,12.017999649047852
6481.946351971337,1165496.0,0.0017999999690800905,-0.005630000028759241,-0.003000000026077032,12.350000381469727
6481.94735174326,1165497.0,0.00044999999227002263,0.0021800000686198473,0.0006399999838322401,12.133999824523926
6481.948351515182,1165498.0,-0.0008099999977275729,-0.002360000042244792,-0.000910000002477318,12.222000122070312
6481.949351287105,1165499.0,-0.002959999954327941,-0.003000000026077032,0.003909999970346689,12.279000282287598
6481.9503510590275,1165500.0,-0.0037700000684708357,-0.0022700000554323196,-0.003809999907389283,12.25
6481.95135083095,1165501.0,-0.0037700000684708357,-0.003809999907389283,0.003449999960139394,11.725000381469727
6481.952350602874,1165502.0,-0.0037700000684708357,-0.00031999999191612005,0.004900000058114529,12.140000343322754
6481.953350374796,1165503.0,-0.004220000002533197,-0.0015399999683722854,0.0010900000343099236,11.980999946594238
6481.954350146719,1165504.0,-0.004579999949783087,0.00418000016361475,-0.0036800000816583633,12.105999946594238
6481.955349918641,1165505.0,-0.005119999870657921,0.004809999838471413,-0.0006799999973736703,12.079000473022461
6481.956349690564,1165506.0,-0.005030000116676092,0.0012700000079348683,0.0030900000128895044,12.081999778747559
6481.957349462487,1165507.0,-0.004040000028908253,-0.006089999806135893,0.0013599999947473407,11.567999839782715
6481.95834923441,1165508.0,-0.0034099998883903027,0.001500000013038516,-0.0007300000288523734,11.968999862670898
6481.959349006333,1165509.0,-0.003949999809265137,-0.004089999943971634,-0.001180000021122396,11.812999725341797
6481.960348778255,1165510.0,-0.004040000028908253,-0.005450000055134296,0.003809999907389283,11.78600025177002
6481.961348550178,1165511.0,-0.003949999809265137,-0.0029100000392645597,-0.0033599999733269215,11.76099967956543
6481.962348322101,1165512.0,-0.0034099998883903027,-0.0015399999683722854,-0.00044999999227002263,11.737000465393066
6481.963348094024,1165513.0,-0.001930000027641654,0.0012700000079348683,-0.004720000084489584,11.631999969482422
6481.964347865946,1165514.0,-0.0012600000482052565,-0.006539999973028898,-0.003269999986514449,11.852999687194824
6481.965347637869,1165515.0,-0.001120000029914081,0.004900000058114529,-0.001449999981559813,11.614999771118164
6481.9663474097915,1165516.0,0.0008999999845400453,0.0019499999471008778,0.002360000042244792,11.626999855041504
6481.967347181715,1165517.0,-0.00022000000171829015,0.003809999907389283,0.0013599999947473407,11.597000122070312
6481.968346953638,1165518.0,-0.0015300000086426735,0.0030900000128895044,-0.004999999888241291,11.604000091552734
6481.96934672556,1165519.0,-9.000000136438757e-05,-0.0059899999760091305,-0.003949999809265137,11.288000106811523
6481.970346497483,1165520.0,-0.0004900000058114529,-0.0002699999895412475,-0.0013599999947473407,11.694000244140625
6481.971346269405,1165521.0,-0.0027000000700354576,-0.0059899999760091305,0.0028200000524520874,11.204999923706055
6481.972346041328,1165522.0,-0.0010300000431016088,-0.005450000055134296,-0.0021800000686198473,11.223999977111816
6481.973345813251,1165523.0,-0.0016199999954551458,0.0012700000079348683,-0.003449999960139394,11.190999984741211
6481.974345585174,1165524.0,-0.0037700000684708357,-0.003000000026077032,0.0010900000343099236,11.423999786376953
6481.975345357097,1165525.0,-0.004129999782890081,-0.001449999981559813,0.002360000042244792,11.383000373840332
6481.976345129019,1165526.0,-0.004360000137239695,-0.002630000002682209,0.0030900000128895044,11.538999557495117
6481.977344900942,1165527.0,-0.0036800000816583633,0.003809999907389283,-0.0059899999760091305,11.067000389099121
6481.978344672865,1165528.0,-0.003280000062659383,0.001500000013038516,0.0012700000079348683,11.017000198364258
6481.979344444788,1165529.0,-0.0030499999411404133,-0.0010000000474974513,-0.0021299999207258224,10.994000434875488
6481.98034421671,1165530.0,-0.004629999864846468,0.003220000071451068,0.0020000000949949026,11.26099967956543
6481.981343988633,1165531.0,-0.005710000172257423,-0.005270000081509352,0.000539999979082495,11.234000205993652
6481.9823437605555,1165532.0,-0.005570000037550926,0.00418000016361475,-0.003449999960139394,11.28499984741211
6481.983343532479,1165533.0,-0.004399999976158142,0.001449999981559813,0.00031999999191612005,11.21500015258789
6481.984343304402,1165534.0,-0.0027000000700354576,-0.00044999999227002263,-0.0033599999733269215,11.175999641418457
6481.985343076324,1165535.0,-0.0018899999558925629,0.001500000013038516,0.001820000004954636,11.14799976348877
6481.986342848247,1165536.0,-0.0016199999954551458,-0.0033199999015778303,-0.006630000192672014,11.116000175476074
6481.987342620169,1165537.0,0.0,-0.000539999979082495,-0.001180000021122396,11.098999977111816
6481.988342392092,1165538.0,0.003229999914765358,-0.00418000016361475,0.0036299999337643385,11.057000160217285
6481.989342164015,1165539.0,0.004129999782890081,-0.0036299999337643385,-0.0021800000686198473,11.182000160217285
6481.990341935938,1165540.0,0.003949999809265137,-0.003220000071451068,0.001820000004954636,11.121000289916992
6481.991341707861,1165541.0,0.0037700000684708357,-0.006719999946653843,-0.004720000084489584,11.03499984741211
6481.992341479783,1165542.0,0.0031900000758469105,-0.0012700000079348683,0.001820000004954636,10.968000411987305
6481.993341251706,1165543.0,0.0030499999411404133,-0.0017300000181421638,-0.0012700000079348683,10.958999633789062
6481.994341023629,1165544.0,0.0028800000436604023,0.002360000042244792,0.0007300000288523734,10.621999740600586
6481.995340795552,1165545.0,0.0024300001095980406,0.00018000000272877514,-0.004040000028908253,10.861000061035156
6481.996340567474,1165546.0,0.0035500000230968,0.001820000004954636,-0.003449999960139394,10.848999977111816
6481.997340339397,1165547.0,0.0035000001080334187,-0.002859999891370535,-0.000539999979082495,10.821999549865723
6481.9983401113195,1165548.0,0.003590000094845891,0.003909999970346689,-0.0027199999894946814,10.949999809265137
6481.999339883243,1165549.0,0.004220000002533197,-0.005630000028759241,-0.00418000016361475,10.776000022888184
6482.000339655166,1165550.0,0.0030499999411404133,0.0003600000054575503,-0.0033199999015778303,10.8149995803833
6482.001339427088,1165551.0,0.0028800000436604023,0.004000000189989805,-0.000859999970998615,10.760000228881836
6482.002339199011,1165552.0,0.0031399999279528856,-0.0030900000128895044,0.0006399999838322401,10.79699993133545
6482.003338970933,1165553.0,0.0035000001080334187,0.0013200000394135714,-0.004769999999552965,10.77299976348877
6482.004338742856,1165554.0,0.0037700000684708357,0.000539999979082495,0.005859999917447567,10.631999969482422
6482.005338514779,1165555.0,0.005030000116676092,-0.0027199999894946814,0.003220000071451068,10.604999542236328
6482.006338286702,1165556.0,0.006289999932050705,-0.0010400000028312206,0.005090000107884407,10.663000106811523
6482.007338058625,1165557.0,0.006649999879300594,-0.0006399999838322401,0.0016299999551847577,10.654000282287598
6482.008337830547,1165558.0,0.007860000245273113,-9.000000136438757e-05,-0.004000000189989805,10.628999710083008
6482.00933760247,1165559.0,0.006870000157505274,0.003809999907389283,0.0006799999973736703,10.663000106811523
6482.010337374393,1165560.0,0.006289999932050705,-0.0012700000079348683,-0.007180000189691782,10.498000144958496
6482.011337146316,1165561.0,0.0053900000639259815,0.00418000016361475,-0.004999999888241291,10.531999588012695
6482.012336918238,1165562.0,0.004310000222176313,-0.004540000110864639,-0.005630000028759241,10.413000106811523
6482.013336690161,1165563.0,0.003590000094845891,-0.003809999907389283,-0.006310000084340572,10.394000053405762
6482.0143364620835,1165564.0,0.004040000028908253,-0.005270000081509352,0.002950000111013651,10.366999626159668
6482.015336234007,1165565.0,0.004490000195801258,-0.0025400000158697367,-0.0062699997797608376,10.515999794006348
6482.01633600593,1165566.0,0.003280000062659383,0.004000000189989805,-0.002950000111013651,10.309000015258789
6482.017335777852,1165567.0,0.00279000005684793,0.000590000010561198,0.0010000000474974513,10.303000450134277
6482.018335549775,1165568.0,0.0023399998899549246,0.0020000000949949026,0.003449999960139394,10.26200008392334
6482.019335321697,1165569.0,0.0028800000436604023,0.0016299999551847577,-0.0059899999760091305,10.236000061035156
6482.020335093621,1165570.0,0.0033199999015778303,0.005539999809116125,-0.001449999981559813,10.236000061035156
6482.021334865543,1165571.0,0.0027000000700354576,-0.0036299999337643385,0.00041000000783242285,10.335000038146973
6482.022334637466,1165572.0,0.00279000005684793,-0.0006399999838322401,0.0006399999838322401,10.156000137329102
6482.023334409389,1165573.0,0.0016199999954551458,-0.004449999891221523,0.0024500000290572643,10.119999885559082
6482.024334181311,1165574.0,0.00107999995816499,-0.0007300000288523734,-0.0020000000949949026,10.090999603271484
6482.025333953234,1165575.0,0.0012600000482052565,-0.004809999838471413,0.001500000013038516,10.071999549865723
6482.026333725157,1165576.0,0.0016199999954551458,-0.0027199999894946814,-0.00418000016361475,10.041999816894531
6482.02733349708,1165577.0,0.0027000000700354576,0.003809999907389283,-0.00018000000272877514,10.180999755859375
6482.028333269002,1165578.0,0.0035500000230968,-0.0030400000978261232,-0.0010000000474974513,10.003999710083008
6482.029333040925,1165579.0,0.005210000090301037,0.0,-0.0024500000290572643,9.984000205993652
6482.0303328128475,1165580.0,0.007459999993443489,-0.0036800000816583633,-0.003719999920576811,9.961000442504883
6482.031332584771,1165581.0,0.006829999852925539,-0.0015399999683722854,-0.002859999891370535,9.913999557495117
6482.032332356694,1165582.0,0.006020000204443932,-0.0020000000949949026,0.0002699999895412475,9.885000228881836
6482.033332128616,1165583.0,0.005969999823719263,-0.00535999983549118,-0.0015399999683722854,9.845000267028809
6482.034331900539,1165584.0,0.0064199999906122684,-0.0022700000554323196,-0.004720000084489584,9.991000175476074
6482.035331672461,1165585.0,0.006200000178068876,-0.0030400000978261232,-0.004809999838471413,9.821000099182129
6482.036331444384,1165586.0,0.005750000011175871,-0.0020000000949949026,0.004000000189989805,9.789999961853027
6482.037331216307,1165587.0,0.005350000225007534,-0.001820000004954636,-0.0013599999947473407,9.762999534606934
6482.03833098823,1165588.0,0.005969999823719263,-0.003719999920576811,-0.0016299999551847577,9.765999794006348
6482.039330760153,1165589.0,0.006200000178068876,0.003809999907389283,-0.002630000002682209,9.628000259399414
6482.040330532075,1165590.0,0.005570000037550926,-0.003719999920576811,0.002630000002682209,9.821000099182129
6482.041330303998,1165591.0,0.005350000225007534,-0.0037700000684708357,0.003909999970346689,9.677000045776367
6482.042330075921,1165592.0,0.0053900000639259815,-0.0020000000949949026,-0.005630000028759241,9.625
6482.043329847844,1165593.0,0.005439999978989363,-0.00018000000272877514,-0.0010000000474974513,9.616000175476074
6482.044329619766,1165594.0,0.005710000172257423,0.004089999943971634,0.0013599999947473407,9.569999694824219
6482.045329391689,1165595.0,0.005030000116676092,-0.004310000222176313,0.002360000042244792,9.505999565124512
6482.0463291636115,1165596.0,0.003949999809265137,0.00041000000783242285,0.0016299999551847577,9.668000221252441
6482.047328935535,1165597.0,0.0030499999411404133,0.00418000016361475,-0.004089999943971634,9.529000282287598
6482.048328707458,1165598.0,0.0037700000684708357,-0.00018000000272877514,0.0010000000474974513,9.527999877929688
6482.04932847938,1165599.0,0.0034600000362843275,-0.004540000110864639,-0.00571999978274107,9.49899959564209
6482.050328251303,1165600.0,0.003860000055283308,-0.0027199999894946814,0.0027199999894946814,9.467000007629395
6482.051328023225,1165601.0,0.0035000001080334187,0.008630000054836273,-0.002630000002682209,9.392999649047852
6482.052327795149,1165602.0,0.0037700000684708357,-0.0021800000686198473,-0.004000000189989805,9.395999908447266
6482.053327567071,1165603.0,0.005030000116676092,0.003269999986514449,-0.004540000110864639,9.232000350952148
6482.054327338994,1165604.0,0.005210000090301037,0.004629999864846468,-0.0018599999602884054,9.180000305175781
6482.055327110917,1165605.0,0.004490000195801258,0.0029100000392645597,0.0002699999895412475,9.081000328063965
6482.056326882839,1165606.0,0.005570000037550926,0.004360000137239695,-0.004900000058114529,9.293000221252441
6482.057326654762,1165607.0,0.005210000090301037,-0.001820000004954636,0.006399999838322401,9.319999694824219
6482.058326426685,1165608.0,0.004310000222176313,0.0007699999841861427,0.0025400000158697367,9.229000091552734
6482.059326198608,1165609.0,0.004540000110864639,-0.005900000222027302,0.0021800000686198473,9.192999839782715
6482.06032597053,1165610.0,0.0053900000639259815,-0.005630000028759241,0.002630000002682209,9.201000213623047
6482.061325742453,1165611.0,0.004939999897032976,-0.003449999960139394,-0.004269999917596579,9.156999588012695
6482.0623255143755,1165612.0,0.004220000002533197,-0.0034099998883903027,0.0010900000343099236,8.947999954223633
6482.063325286299,1165613.0,0.004129999782890081,0.0016799999866634607,-0.003269999986514449,9.25
6482.064325058222,1165614.0,0.004490000195801258,0.0021299999207258224,-0.004040000028908253,9.067000389099121
6482.065324830144,1165615.0,0.004269999917596579,0.004360000137239695,-0.004360000137239695,9.185999870300293
6482.066324602067,1165616.0,0.0035500000230968,0.003809999907389283,-0.0025400000158697367,9.163999557495117
6482.067324373989,1165617.0,0.0035000001080334187,0.0013599999947473407,0.0019099999917671084,9.151000022888184
6482.068324145913,1165618.0,0.004220000002533197,-0.004449999891221523,-0.004900000058114529,8.965999603271484
6482.069323917835,1165619.0,0.005929999984800816,0.0002699999895412475,-0.002360000042244792,9.015000343322754
6482.070323689758,1165620.0,0.006289999932050705,-0.004769999999552965,-0.004129999782890081,8.935999870300293
6482.071323461681,1165621.0,0.005929999984800816,-0.0025400000158697367,0.0029100000392645597,8.968999862670898
6482.072323233603,1165622.0,0.004579999949783087,-0.004860000219196081,-0.0036299999337643385,8.939000129699707
6482.073323005526,1165623.0,0.0035500000230968,-0.004679999779909849,-0.004449999891221523,8.935999870300293
6482.074322777449,1165624.0,0.005929999984800816,0.0021299999207258224,-0.005270000081509352,8.831999778747559
6482.075322549372,1165625.0,0.005080000031739473,-0.005630000028759241,-0.003449999960139394,8.88700008392334
6482.076322321294,1165626.0,0.004129999782890081,0.002360000042244792,-0.0008200000156648457,8.788999557495117
