LSL_Time,PLUX_P1_nSeq,PLUX_P1_ECG0,PLUX_P1_EMG1,PLUX_P1_EMG2,PLUX_P1_RESPIRATION3
7002.2904096181,1684808.0,0.032030001282691956,0.007400000002235174,0.03460000082850456,0.9231699705123901
7002.2914093903155,1684809.0,0.02889000065624714,0.012489999644458294,0.023479999974370003,0.9157099723815918
7002.292409162531,1684810.0,0.02525000087916851,0.011219999752938747,-0.003860000055283308,0.9224399924278259
7002.2934089347455,1684811.0,0.022369999438524246,0.005900000222027302,-0.006680000107735395,0.9160799980163574
7002.294408706961,1684812.0,0.020390000194311142,-0.005489999894052744,0.009990000165998936,0.9182299971580505
7002.295408479176,1684813.0,0.02022000029683113,-0.00795000046491623,0.0030400000978261232,0.9143800139427185
7002.296408251392,1684814.0,0.019990000873804092,-0.018850000575184822,0.003449999960139394,0.9143800139427185
7002.297408023607,1684815.0,0.021199999377131462,-0.021479999646544456,0.010940000414848328,0.9136499762535095
7002.298407795823,1684816.0,0.02507000043988228,-0.012400000356137753,0.0014100000262260437,0.9121400117874146
7002.299407568037,1684817.0,0.029650000855326653,-0.00839999970048666,-0.016620000824332237,0.9117299914360046
7002.300407340253,1684818.0,0.03305999934673309,-0.0027699999045580626,-0.01561999972909689,0.910539984703064
7002.301407112468,1684819.0,0.033240001648664474,-0.0034099998883903027,-0.0062699997797608376,0.9053599834442139
7002.3024068846835,1684820.0,0.03338000178337097,-0.004000000189989805,-0.014580000191926956,0.908519983291626
7002.303406656899,1684821.0,0.0370200015604496,-0.0008200000156648457,-0.015209999866783619,0.9046800136566162
7002.304406429113,1684822.0,0.037379998713731766,0.005400000140070915,-0.020390000194311142,0.9045000076293945
7002.305406201329,1684823.0,0.032930001616477966,0.012900000438094139,-0.00494999997317791,0.9039499759674072
7002.306405973544,1684824.0,0.0258799996227026,0.011939999647438526,-0.005630000028759241,0.9015700221061707
7002.30740574576,1684825.0,0.017160000279545784,0.010219999589025974,0.0045900000259280205,0.8992800116539001
7002.308405517975,1684826.0,0.00547999981790781,0.007079999893903732,0.014209999702870846,0.8997300267219543
7002.309405290191,1684827.0,-0.006870000157505274,-0.004769999999552965,0.027380000799894333,0.8954300284385681
7002.310405062405,1684828.0,-0.02012999914586544,-0.011309999972581863,0.010900000110268593,0.8985400199890137
7002.311404834621,1684829.0,-0.03432000055909157,-0.008449999615550041,0.006039999891072512,0.8923599720001221
7002.312404606836,1684830.0,-0.04887999966740608,0.0024500000290572643,-0.007309999782592058,0.8960700035095215
7002.3134043790515,1684831.0,-0.0616299994289875,0.008220000192523003,-0.012760000303387642,0.8766599893569946
7002.314404151267,1684832.0,-0.07402999699115753,0.004310000222176313,-0.009850000031292439,0.8924099802970886
7002.315403923481,1684833.0,-0.0869700014591217,0.00803999975323677,-0.019349999725818634,0.8775799870491028
7002.316403695697,1684834.0,-0.10072000324726105,0.007579999975860119,-0.06362000107765198,0.8894799947738647
7002.317403467912,1684835.0,-0.11176999658346176,0.004629999864846468,-0.05403999984264374,0.870389997959137
7002.318403240128,1684836.0,-0.11993999779224396,-0.0007699999841861427,-0.01711999997496605,0.8850899934768677
7002.319403012343,1684837.0,-0.12551000714302063,-0.0028200000524520874,0.01775999926030636,0.8804600238800049
7002.320402784559,1684838.0,-0.12806999683380127,-0.0037700000684708357,0.04554999992251396,0.8833900094032288
7002.321402556773,1684839.0,-0.12790000438690186,0.00494999997317791,0.053950000554323196,0.8762999773025513
7002.322402328989,1684840.0,-0.12910999357700348,0.006130000110715628,0.06458000093698502,0.8792300224304199
7002.323402101204,1684841.0,-0.12960000336170197,0.003220000071451068,0.050360001623630524,0.87322998046875
7002.324401873419,1684842.0,-0.1296900063753128,0.006039999891072512,0.038419999182224274,0.8762999773025513
7002.325401645635,1684843.0,-0.129380002617836,0.008310000412166119,0.02928999997675419,0.8725000023841858
7002.326401417849,1684844.0,-0.12668000161647797,0.006490000057965517,0.0035000001080334187,0.8707600235939026
7002.327401190065,1684845.0,-0.12255000323057175,-0.003000000026077032,-0.033879999071359634,0.871720016002655
7002.32840096228,1684846.0,-0.11500000208616257,-0.01370999962091446,-0.06193999946117401,0.8675100207328796
7002.329400734496,1684847.0,-0.10512000322341919,-0.016440000385046005,-0.05318000167608261,0.8671000003814697
7002.330400506711,1684848.0,-0.09612999856472015,-0.005810000002384186,-0.02174999937415123,0.8633000254631042
7002.331400278927,1684849.0,-0.08732999861240387,0.005400000140070915,-0.04741000011563301,0.865909993648529
7002.332400051141,1684850.0,-0.07564999908208847,0.013399999588727951,-0.04413999989628792,0.8594099879264832
7002.333399823357,1684851.0,-0.06612999737262726,0.013670000247657299,-0.00872000027447939,0.8626099824905396
7002.334399595572,1684852.0,-0.051569998264312744,0.011579999700188637,0.02452000044286251,0.8565199971199036
7002.335399367787,1684853.0,-0.029920000582933426,0.008129999972879887,0.04681999981403351,0.8539999723434448
7002.336399140002,1684854.0,-0.0006300000241026282,0.0024999999441206455,0.04681999981403351,0.8565199971199036
7002.337398912217,1684855.0,0.03742000088095665,-0.0024500000290572643,0.031199999153614044,0.8545500040054321
7002.338398684433,1684856.0,0.07942000031471252,-0.006180000025779009,0.025019999593496323,0.8460800051689148
7002.339398456648,1684857.0,0.11896000057458878,-0.007720000110566616,-0.003000000026077032,0.8482400178909302
7002.340398228864,1684858.0,0.1507599949836731,-0.004769999999552965,-0.015890000388026237,0.8504800200462341
7002.341398001079,1684859.0,0.17246000468730927,-0.007040000054985285,-0.035009998828172684,0.8321200013160706
7002.342397773295,1684860.0,0.18368999660015106,-0.007079999893903732,-0.029109999537467957,0.8455399870872498
7002.343397545509,1684861.0,0.19280999898910522,-0.0012700000079348683,-0.03255999833345413,0.8436999917030334
7002.3443973177245,1684862.0,0.20578999817371368,0.004129999782890081,-0.018300000578165054,0.8376200199127197
7002.34539708994,1684863.0,0.22156000137329102,0.006089999806135893,0.004449999891221523,0.8399999737739563
7002.346396862155,1684864.0,0.24070000648498535,0.001180000021122396,0.015939999371767044,0.8382099866867065
7002.34739663437,1684865.0,0.26256999373435974,-0.0002300000051036477,0.009449999779462814,0.832260012626648
7002.348396406585,1684866.0,0.2784300148487091,0.0024999999441206455,0.011939999647438526,0.8351899981498718
7002.349396178801,1684867.0,0.28804999589920044,0.006579999811947346,0.014209999702870846,0.8333100080490112
7002.350395951016,1684868.0,0.294869989156723,0.00535999983549118,0.017389999702572823,0.8128499984741211
7002.351395723232,1684869.0,0.2993200123310089,0.006680000107735395,0.01484999991953373,0.8293300271034241
7002.352395495447,1684870.0,0.2991900146007538,0.00031999999191612005,0.014120000414550304,0.813539981842041
7002.353395267662,1684871.0,0.29172998666763306,-0.0045900000259280205,0.011579999700188637,0.8264899849891663
7002.354395039877,1684872.0,0.2763200104236603,-0.007770000025629997,0.00535999983549118,0.8037899732589722
7002.3553948120925,1684873.0,0.25964999198913574,-0.010259999893605709,0.007579999975860119,0.8230100274085999
7002.356394584308,1684874.0,0.2483299970626831,-0.004220000002533197,0.0017300000181421638,0.8166000247001648
7002.357394356523,1684875.0,0.24330000579357147,-0.004720000084489584,-0.012029999867081642,0.8189799785614014
7002.358394128738,1684876.0,0.23916999995708466,-0.00267999991774559,-0.01844000071287155,0.8118399977684021
7002.359393900953,1684877.0,0.2341800034046173,0.003539999946951866,-0.024660000577569008,0.8155099749565125
7002.360393673169,1684878.0,0.23000000417232513,0.006769999861717224,-0.025839999318122864,0.8095999956130981
7002.361393445384,1684879.0,0.23576000332832336,0.001230000052601099,-0.01744000054895878,0.812030017375946
7002.3623932176,1684880.0,0.24244999885559082,0.004129999782890081,-0.004809999838471413,0.8042899966239929
7002.363392989815,1684881.0,0.2347699999809265,0.011900000274181366,0.005040000192821026,0.8062099814414978
7002.36439276203,1684882.0,0.21644000709056854,0.002589999930933118,0.003220000071451068,0.8015900254249573
7002.365392534245,1684883.0,0.19473999738693237,-0.0019499999471008778,0.003719999920576811,0.8012199997901917
7002.3663923064605,1684884.0,0.17381000518798828,0.002409999957308173,0.001180000021122396,0.7979300022125244
7002.367392078676,1684885.0,0.15588000416755676,-0.010579999536275864,0.012760000303387642,0.7998499870300293
7002.368391850891,1684886.0,0.1370999962091446,-0.016119999811053276,0.010130000300705433,0.7938100099563599
7002.369391623106,1684887.0,0.11598999798297882,-0.01334999967366457,0.006039999891072512,0.7960100173950195
7002.370391395321,1684888.0,0.093299999833107,-0.008630000054836273,-0.0044999998062849045,0.7920699715614319
7002.371391167537,1684889.0,0.07107000052928925,-0.0020000000949949026,-0.01576000079512596,0.7876700162887573
7002.372390939752,1684890.0,0.049150001257658005,0.007360000163316727,-0.008670000359416008,0.7884100079536438
7002.373390711968,1684891.0,0.030409999191761017,0.01875999942421913,-4.999999873689376e-05,0.7859299778938293
7002.374390484183,1684892.0,0.014379999600350857,0.010990000329911709,-0.011309999972581863,0.7821800112724304
7002.375390256398,1684893.0,0.0003100000030826777,0.011309999972581863,-0.010259999893605709,0.7829099893569946
7002.376390028613,1684894.0,-0.01131999958306551,0.010809999890625477,0.0017300000181421638,0.7784299850463867
7002.3773898008285,1684895.0,-0.020749999210238457,0.005179999861866236,0.007579999975860119,0.7810800075531006
7002.378389573044,1684896.0,-0.027130000293254852,0.006130000110715628,0.016209999099373817,0.7735300064086914
7002.379389345259,1684897.0,-0.030549999326467514,0.002859999891370535,0.02133999951183796,0.772059977054596
7002.380389117474,1684898.0,-0.033149998635053635,0.004679999779909849,0.01448999997228384,0.7737600207328796
7002.381388889689,1684899.0,-0.035760000348091125,0.004220000002533197,0.017389999702572823,0.7686300277709961
7002.382388661905,1684900.0,-0.037470001727342606,-0.004900000058114529,0.01775999926030636,0.7661100029945374
7002.38338843412,1684901.0,-0.0384100005030632,-0.014399999752640724,0.000910000002477318,0.7695900201797485
7002.384388206336,1684902.0,-0.03756000101566315,-0.019029999151825905,-0.0027199999894946814,0.7624099850654602
7002.385387978551,1684903.0,-0.036479998379945755,-0.012400000356137753,-0.026480000466108322,0.7608500123023987
7002.386387750766,1684904.0,-0.034949999302625656,-0.005630000028759241,-0.03311000019311905,0.7638199925422668
7002.387387522981,1684905.0,-0.033330000936985016,0.0014100000262260437,-0.02166000008583069,0.7550399899482727
7002.3883872951965,1684906.0,-0.03449999913573265,0.005539999809116125,-0.0006399999838322401,0.754580020904541
7002.389387067412,1684907.0,-0.03612000122666359,0.008270000107586384,-0.010080000385642052,0.7572799921035767
7002.390386839627,1684908.0,-0.03872000053524971,0.012670000083744526,0.0010400000028312206,0.7516000270843506
7002.391386611842,1684909.0,-0.043219998478889465,0.014209999702870846,0.01689000055193901,0.7481200098991394
7002.392386384057,1684910.0,-0.04837999865412712,0.013989999890327454,0.012760000303387642,0.7510499954223633
7002.393386156273,1684911.0,-0.05463000014424324,0.007809999864548445,0.008860000409185886,0.7494000196456909
7002.394385928488,1684912.0,-0.06077999994158745,0.00031999999191612005,0.022339999675750732,0.7451900243759155
7002.395385700704,1684913.0,-0.06446000188589096,-0.00953999999910593,0.02184000052511692,0.7420799732208252
7002.396385472919,1684914.0,-0.06532000005245209,-0.013489999808371067,0.006039999891072512,0.7318300008773804
7002.397385245134,1684915.0,-0.06230999901890755,-0.01865999959409237,-0.024800000712275505,0.7289000153541565
7002.398385017349,1684916.0,-0.05785999819636345,-0.014440000057220459,-0.021159999072551727,0.7323799729347229
7002.3993847895645,1684917.0,-0.052469998598098755,-0.011309999972581863,-0.0019499999471008778,0.7261999845504761
7002.40038456178,1684918.0,-0.046720001846551895,-0.009949999861419201,-0.007040000054985285,0.7303599715232849
7002.401384333994,1684919.0,-0.04173000156879425,-0.0015899999998509884,-0.0019099999917671084,0.7232199907302856
7002.40238410621,1684920.0,-0.03809000179171562,0.0021299999207258224,0.00839999970048666,0.7290300130844116
7002.403383878425,1684921.0,-0.03570999950170517,0.005270000081509352,0.010490000247955322,0.7283499836921692
7002.404383650641,1684922.0,-0.033240001648664474,0.004679999779909849,-0.018209999427199364,0.7284899950027466
7002.405383422856,1684923.0,-0.031939998269081116,0.004040000028908253,-0.006719999946653843,0.7280700206756592
7002.406383195072,1684924.0,-0.03117999993264675,0.006719999946653843,0.008310000412166119,0.7239500284194946
7002.407382967287,1684925.0,-0.031449999660253525,0.004679999779909849,0.008270000107586384,0.7168999910354614
7002.408382739502,1684926.0,-0.03158000111579895,0.00267999991774559,-0.015080000273883343,0.7219399809837341
7002.409382511717,1684927.0,-0.03172000125050545,0.0064500002190470695,-0.027340000495314598,0.7166299819946289
7002.410382283932,1684928.0,-0.03468000143766403,0.013030000030994415,-0.002589999930933118,0.7186400294303894
7002.411382056148,1684929.0,-0.040070001035928726,0.011939999647438526,0.010400000028312206,0.7117800116539001
7002.412381828362,1684930.0,-0.04698999971151352,0.008220000192523003,0.036010000854730606,0.7140700221061707
7002.413381600578,1684931.0,-0.0530100017786026,0.006130000110715628,0.03773999959230423,0.7071099877357483
7002.414381372793,1684932.0,-0.0568699985742569,-0.002589999930933118,0.02515999972820282,0.7092999815940857
7002.415381145009,1684933.0,-0.06216999888420105,-0.004629999864846468,0.023979999125003815,0.7044500112533569
7002.416380917224,1684934.0,-0.065140001475811,-0.006949999835342169,-0.01104000024497509,0.7046800255775452
7002.41738068944,1684935.0,-0.06581000238656998,-0.006219999864697456,-0.014030000194907188,0.7034500241279602
7002.418380461654,1684936.0,-0.0636100023984909,-0.004540000110864639,-0.0019099999917671084,0.6995099782943726
7002.41938023387,1684937.0,-0.0582600012421608,0.00031999999191612005,-0.004809999838471413,0.7018899917602539
7002.420380006085,1684938.0,-0.054090000689029694,-0.006579999811947346,-0.017710000276565552,0.6963000297546387
7002.4213797783,1684939.0,-0.050039999186992645,-0.005859999917447567,-0.02515999972820282,0.6986799836158752
7002.422379550516,1684940.0,-0.0451899990439415,-0.0071299998089671135,-0.020390000194311142,0.6914499998092651
7002.42337932273,1684941.0,-0.042500000447034836,-0.004040000028908253,-0.004769999999552965,0.6920499801635742
7002.424379094946,1684942.0,-0.04123999923467636,0.001180000021122396,0.016529999673366547,0.6887999773025513
7002.425378867161,1684943.0,-0.04061000049114227,0.0036299999337643385,0.01558000035583973,0.6845899820327759
7002.426378639377,1684944.0,-0.043129999190568924,-0.0020000000949949026,0.005270000081509352,0.6799200177192688
7002.427378411592,1684945.0,-0.04569000005722046,-0.005859999917447567,-0.009580000303685665,0.6821600198745728
7002.428378183808,1684946.0,-0.047439999878406525,0.0007300000288523734,-0.0027199999894946814,0.6800100207328796
7002.429377956022,1684947.0,-0.04771000146865845,0.002319999970495701,-0.005679999943822622,0.679639995098114
7002.4303777282375,1684948.0,-0.0494999997317791,0.010579999536275864,-0.008449999615550041,0.67781001329422
7002.431377500453,1684949.0,-0.05319000035524368,0.012670000083744526,-0.021299999207258224,0.6765699982643127
7002.432377272668,1684950.0,-0.05741000175476074,0.007579999975860119,-0.020029999315738678,0.675570011138916
7002.433377044884,1684951.0,-0.06029000133275986,0.0030400000978261232,-0.013580000028014183,0.673740029335022
7002.434376817098,1684952.0,-0.06414999812841415,0.003220000071451068,0.004449999891221523,0.6725500226020813
7002.435376589314,1684953.0,-0.0666700005531311,0.0021299999207258224,0.013670000247657299,0.6710399985313416
7002.436376361529,1684954.0,-0.0689999982714653,0.0014100000262260437,0.020980000495910645,0.6693900227546692
7002.437376133745,1684955.0,-0.06836999952793121,-0.001449999981559813,0.017570000141859055,0.6675599813461304
7002.43837590596,1684956.0,-0.065140001475811,0.00018000000272877514,0.017170000821352005,0.6651800274848938
7002.439375678176,1684957.0,-0.06136000156402588,0.0016799999866634607,0.01775999926030636,0.6631600260734558
7002.44037545039,1684958.0,-0.05683000013232231,0.005950000137090683,0.013260000385344028,0.6601899862289429
7002.4413752226055,1684959.0,-0.0528700016438961,0.003000000026077032,0.003449999960139394,0.6557899713516235
7002.442374994821,1684960.0,-0.04887999966740608,-0.00041000000783242285,-0.005590000189840794,0.6492499709129333
7002.443374767036,1684961.0,-0.046629998832941055,0.003220000071451068,-0.01816999912261963,0.6529099941253662
7002.444374539252,1684962.0,-0.04383999854326248,0.001500000013038516,-0.011309999972581863,0.6507099866867065
7002.445374311466,1684963.0,-0.04258999973535538,0.0018599999602884054,-0.01489999983459711,0.6494799852371216
7002.446374083682,1684964.0,-0.041689999401569366,-0.0063599999994039536,-0.009170000441372395,0.6490200161933899
7002.447373855897,1684965.0,-0.040789999067783356,-0.010400000028312206,-0.00041000000783242285,0.6481500267982483
7002.448373628113,1684966.0,-0.04021000117063522,-0.00839999970048666,-0.004999999888241291,0.6474199891090393
7002.449373400328,1684967.0,-0.04097000136971474,-0.004040000028908253,-0.006990000139921904,0.6464099884033203
7002.450373172544,1684968.0,-0.04142000153660774,-0.0014100000262260437,-0.010080000385642052,0.6439800262451172
7002.451372944758,1684969.0,-0.04258999973535538,0.00031999999191612005,-0.0037700000684708357,0.6431599855422974
7002.4523727169735,1684970.0,-0.04438000172376633,-0.0010000000474974513,-0.002589999930933118,0.6388099789619446
7002.453372489189,1684971.0,-0.04726000130176544,0.00031999999191612005,-0.004999999888241291,0.6345999836921692
7002.454372261404,1684972.0,-0.05012999847531319,0.009039999917149544,0.0027699999045580626,0.6289700269699097
7002.45537203362,1684973.0,-0.05220000073313713,0.0031799999997019768,0.006130000110715628,0.6205000281333923
7002.456371805834,1684974.0,-0.05291999876499176,0.00031999999191612005,0.003539999946951866,0.6298400163650513
7002.45737157805,1684975.0,-0.0514799989759922,0.006810000166296959,0.008630000054836273,0.627269983291626
7002.458371350265,1684976.0,-0.04879000037908554,-0.0003600000054575503,-0.00989999994635582,0.6263099908828735
7002.459371122481,1684977.0,-0.04464999958872795,0.00031999999191612005,-0.023569999262690544,0.6116200089454651
7002.460370894696,1684978.0,-0.04024999961256981,-0.001180000021122396,-0.015300000086426735,0.6227399706840515
7002.4613706669115,1684979.0,-0.035670001059770584,0.00031999999191612005,-0.004129999782890081,0.6214100122451782
7002.462370439126,1684980.0,-0.031449999660253525,0.002859999891370535,0.0036800000816583633,0.6067699790000916
7002.4633702113415,1684981.0,-0.02694999985396862,-0.003000000026077032,0.018939999863505363,0.6097000241279602
7002.464369983557,1684982.0,-0.024979999288916588,0.005770000163465738,0.02329999953508377,0.6078199744224548
7002.465369755772,1684983.0,-0.023989999666810036,0.0013200000394135714,0.016259999945759773,0.6015899777412415
7002.466369527987,1684984.0,-0.02402999997138977,-0.00872000027447939,0.022520000115036964,0.6134899854660034
7002.467369300202,1684985.0,-0.023269999772310257,-0.008630000054836273,0.012310000136494637,0.6118500232696533
7002.468369072418,1684986.0,-0.02191999927163124,-0.006719999946653843,-0.002589999930933118,0.6097000241279602
7002.469368844633,1684987.0,-0.021290000528097153,0.0052200001664459705,-0.014259999617934227,0.6087300181388855
7002.470368616849,1684988.0,-0.022190000861883163,0.006490000057965517,-0.012760000303387642,0.6073200106620789
7002.471368389064,1684989.0,-0.027130000293254852,-0.000859999970998615,-0.006039999891072512,0.6060299873352051
7002.4723681612795,1684990.0,-0.03359999880194664,0.00880999956279993,-0.002589999930933118,0.6049299836158752
7002.473367933494,1684991.0,-0.04097000136971474,0.003220000071451068,-0.021390000358223915,0.6034700274467468
7002.4743677057095,1684992.0,-0.04738999903202057,-0.012400000356137753,-0.0031799999997019768,0.6009100079536438
7002.475367477925,1684993.0,-0.05192999914288521,-0.012810000218451023,0.009039999917149544,0.5993499755859375
7002.47636725014,1684994.0,-0.05291999876499176,-0.005090000107884407,-0.0071299998089671135,0.5853899717330933
7002.477367022355,1684995.0,-0.04946000128984451,-0.000910000002477318,-0.003809999907389283,0.5885499715805054
7002.47836679457,1684996.0,-0.04617999866604805,-0.004220000002533197,0.004860000219196081,0.5831500291824341
7002.479366566786,1684997.0,-0.04114999994635582,0.005900000222027302,0.014209999702870846,0.5814499855041504
7002.480366339001,1684998.0,-0.035670001059770584,0.00795000046491623,0.018890000879764557,0.5921199917793274
7002.481366111217,1684999.0,-0.03198999911546707,-0.00044999999227002263,0.02483999915421009,0.5910199880599976
7002.482365883432,1685000.0,-0.03189999982714653,-0.0002300000051036477,0.016580000519752502,0.5921199917793274
7002.483365655647,1685001.0,-0.03175999969244003,0.01140000019222498,-0.017260000109672546,0.5918899774551392
7002.484365427862,1685002.0,-0.03215999901294708,0.0036299999337643385,-0.01217000000178814,0.5902400016784668
7002.4853652000775,1685003.0,-0.03238999843597412,-0.002589999930933118,-0.00949000008404255,0.5871700048446655
7002.486364972293,1685004.0,-0.03423000127077103,0.0018599999602884054,-0.013399999588727951,0.5822799801826477
7002.487364744508,1685005.0,-0.03612000122666359,-0.0031300000846385956,0.003860000055283308,0.5788000226020813
7002.488364516723,1685006.0,-0.03818000108003616,-0.003909999970346689,0.01834999956190586,0.5696899890899658
7002.489364288938,1685007.0,-0.038679998368024826,-0.0024500000290572643,0.018939999863505363,0.5794399976730347
7002.490364061154,1685008.0,-0.0399399995803833,0.004129999782890081,0.0002699999895412475,0.5672100186347961
7002.491363833369,1685009.0,-0.04205000028014183,0.006130000110715628,-0.0031300000846385956,0.5773800015449524
7002.492363605585,1685010.0,-0.0451899990439415,0.009039999917149544,-0.004999999888241291,0.5756400227546692
7002.4933633778,1685011.0,-0.049059998244047165,0.008489999920129776,-0.008539999835193157,0.5736700296401978
7002.494363150015,1685012.0,-0.05310000106692314,0.004129999782890081,-0.009850000031292439,0.5723400115966797
7002.49536292223,1685013.0,-0.05660000070929527,-0.004449999891221523,-0.008580000139772892,0.5709699988365173
7002.496362694445,1685014.0,-0.057679999619722366,-0.0036800000816583633,-0.007579999975860119,0.57014000415802
7002.497362466661,1685015.0,-0.05494000017642975,-0.004769999999552965,-0.015890000388026237,0.5691400170326233
7002.498362238876,1685016.0,-0.051979999989271164,-0.009990000165998936,-0.015799999237060547,0.5677199959754944
7002.499362011091,1685017.0,-0.0471699982881546,-0.011669999919831753,-0.009259999729692936,0.5672100186347961
7002.500361783306,1685018.0,-0.0436599999666214,-0.0019099999917671084,-0.011350000277161598,0.5663899779319763
7002.501361555522,1685019.0,-0.040389999747276306,-0.002409999957308173,0.0014100000262260437,0.565750002861023
7002.502361327737,1685020.0,-0.03809000179171562,0.006680000107735395,0.009630000218749046,0.5640100240707397
7002.503361099953,1685021.0,-0.03522000089287758,0.004269999917596579,0.017480000853538513,0.5628200173377991
7002.504360872168,1685022.0,-0.032749999314546585,0.006990000139921904,0.0071299998089671135,0.5619000196456909
7002.505360644383,1685023.0,-0.03305999934673309,0.00031999999191612005,0.002950000111013651,0.5580099821090698
7002.506360416598,1685024.0,-0.03468000143766403,0.003220000071451068,0.003220000071451068,0.5530200004577637
7002.507360188813,1685025.0,-0.03458999842405319,-0.0009500000160187483,-0.0034099998883903027,0.5505499839782715
7002.508359961029,1685026.0,-0.0354899987578392,-0.0036800000816583633,-0.003539999946951866,0.545930027961731
7002.509359733244,1685027.0,-0.03562000021338463,0.004220000002533197,-0.023840000852942467,0.5438699722290039
7002.510359505459,1685028.0,-0.03612000122666359,0.005950000137090683,-0.016669999808073044,0.5408499836921692
7002.511359277674,1685029.0,-0.03799999877810478,0.004410000052303076,-0.004769999999552965,0.5367299914360046
7002.51235904989,1685030.0,-0.039799999445676804,0.006949999835342169,-0.003220000071451068,0.5464299917221069
7002.513358822105,1685031.0,-0.042410001158714294,0.00031999999191612005,0.02012000046670437,0.5444599986076355
7002.514358594321,1685032.0,-0.04605000093579292,0.006680000107735395,0.04332000017166138,0.5443699955940247
7002.515358366536,1685033.0,-0.05031000077724457,0.009850000031292439,0.04264000058174133,0.5440499782562256
7002.516358138751,1685034.0,-0.05229000002145767,0.010490000247955322,0.027249999344348907,0.5434100031852722
7002.517357910966,1685035.0,-0.050939999520778656,0.002859999891370535,0.011350000277161598,0.5428199768066406
7002.518357683181,1685036.0,-0.04537000134587288,-0.007309999782592058,-0.0064500002190470695,0.5421299934387207
7002.519357455397,1685037.0,-0.03925999999046326,-0.019029999151825905,-0.015850000083446503,0.54066002368927
7002.520357227612,1685038.0,-0.034049998968839645,-0.011309999972581863,-0.022929999977350235,0.5393800139427185
7002.521356999827,1685039.0,-0.03009999915957451,-0.011309999972581863,-0.020029999315738678,0.5346199870109558
7002.522356772042,1685040.0,-0.029069999232888222,-0.011719999834895134,-0.02548000030219555,0.5310999751091003
7002.523356544258,1685041.0,-0.02776000089943409,-9.000000136438757e-05,-0.04755000025033951,0.5281699895858765
7002.524356316473,1685042.0,-0.026280000805854797,0.004679999779909849,-0.054590001702308655,0.5195599794387817
7002.525356088689,1685043.0,-0.0258799996227026,0.010490000247955322,-0.023339999839663506,0.5265700221061707
7002.526355860904,1685044.0,-0.026590000838041306,0.01370999962091446,0.0036299999337643385,0.5262899994850159
7002.5273556331185,1685045.0,-0.02996000088751316,0.01334999967366457,0.028470000252127647,0.5271099805831909
7002.528355405334,1685046.0,-0.03162999823689461,0.009039999917149544,0.04245999827980995,0.5276600122451782
7002.529355177549,1685047.0,-0.033330000936985016,0.011350000277161598,0.05113999918103218,0.5269299745559692
7002.530354949765,1685048.0,-0.034049998968839645,0.0059899999760091305,0.04227999970316887,0.5255600214004517
7002.531354721979,1685049.0,-0.03593999892473221,-0.014349999837577343,0.03338000178337097,0.5232700109481812
7002.532354494195,1685050.0,-0.03863000124692917,-0.024070000275969505,0.0129399998113513,0.5194200277328491
7002.53335426641,1685051.0,-0.04295000061392784,-0.022929999977350235,-0.019300000742077827,0.5159000158309937
7002.534354038626,1685052.0,-0.046629998832941055,-0.030969999730587006,-0.022929999977350235,0.5143399834632874
7002.535353810841,1685053.0,-0.0494999997317791,-0.016030000522732735,-0.028429999947547913,0.5144799947738647
7002.536353583057,1685054.0,-0.05012999847531319,-0.007579999975860119,-0.03002000041306019,0.5157600045204163
7002.537353355272,1685055.0,-0.049059998244047165,0.0002699999895412475,-0.02701999992132187,0.5169500112533569
7002.5383531274865,1685056.0,-0.04636000096797943,0.008270000107586384,-0.014310000464320183,0.5155799984931946
7002.539352899702,1685057.0,-0.04295000061392784,0.010130000300705433,0.0024500000290572643,0.5144799947738647
7002.540352671917,1685058.0,-0.03894999995827675,0.011350000277161598,0.011309999972581863,0.51146000623703
7002.541352444133,1685059.0,-0.03468000143766403,0.01375999953597784,0.00494999997317791,0.5067899823188782
7002.542352216347,1685060.0,-0.030009999871253967,0.011309999972581863,0.004040000028908253,0.5038099884986877
7002.543351988563,1685061.0,-0.025340000167489052,0.007040000054985285,0.006130000110715628,0.4968099892139435
7002.544351760778,1685062.0,-0.02111000008881092,0.0072200000286102295,0.001769999973475933,0.5041400194168091
7002.545351532994,1685063.0,-0.018640000373125076,0.0012700000079348683,0.002950000111013651,0.5029399991035461
7002.546351305209,1685064.0,-0.019859999418258667,-0.0015899999998509884,0.00989999994635582,0.5018900036811829
7002.5473510774245,1685065.0,-0.020749999210238457,0.0059899999760091305,0.007269999943673611,0.5018500089645386
7002.548350849639,1685066.0,-0.021469999104738235,0.003000000026077032,-0.009309999644756317,0.5006999969482422
7002.5493506218545,1685067.0,-0.021740000694990158,0.005040000192821026,-0.0031300000846385956,0.5001999735832214
7002.55035039407,1685068.0,-0.022280000150203705,0.005400000140070915,0.004269999917596579,0.5012500286102295
7002.551350166285,1685069.0,-0.024210000410676003,0.0011399999493733048,0.005770000163465738,0.5020300149917603
7002.552349938501,1685070.0,-0.028929999098181725,0.005270000081509352,0.0034099998883903027,0.5011100172996521
7002.553349710715,1685071.0,-0.03387000039219856,0.006130000110715628,0.0021299999207258224,0.5001999735832214
7002.554349482931,1685072.0,-0.03912999853491783,0.0021299999207258224,0.0044999998062849045,0.49786001443862915
7002.555349255146,1685073.0,-0.042899999767541885,9.000000136438757e-05,4.999999873689376e-05,0.49566999077796936
7002.556349027362,1685074.0,-0.04473999887704849,-0.001820000004954636,-0.0019099999917671084,0.4936099946498871
7002.557348799577,1685075.0,-0.043129999190568924,-0.011309999972581863,-0.002859999891370535,0.48903000354766846
7002.5583485717925,1685076.0,-0.04024999961256981,-0.005489999894052744,-0.002409999957308173,0.4879800081253052
7002.559348344007,1685077.0,-0.036479998379945755,-0.003000000026077032,-0.009259999729692936,0.4836699962615967
7002.5603481162225,1685078.0,-0.03432000055909157,-0.0036800000816583633,-0.006949999835342169,0.47762998938560486
7002.561347888438,1685079.0,-0.030729999765753746,-0.0014100000262260437,-0.005489999894052744,0.4866499900817871
7002.562347660653,1685080.0,-0.02745000086724758,-0.006949999835342169,-0.004310000222176313,0.48513999581336975
7002.563347432869,1685081.0,-0.025699999183416367,0.0007699999841861427,-0.002589999930933118,0.4842199981212616
7002.564347205083,1685082.0,-0.026909999549388885,0.001769999973475933,0.0021299999207258224,0.48513999581336975
7002.565346977299,1685083.0,-0.02817000076174736,-0.000859999970998615,0.006039999891072512,0.48335000872612
7002.566346749514,1685084.0,-0.02865999937057495,0.0031300000846385956,0.0031300000846385956,0.4812900125980377
7002.56734652173,1685085.0,-0.029920000582933426,0.0024999999441206455,-0.00044999999227002263,0.4833100140094757
7002.568346293945,1685086.0,-0.031539998948574066,0.006130000110715628,-0.0016799999866634607,0.4788700044155121
7002.5693460661605,1685087.0,-0.03127000108361244,0.005040000192821026,0.0013200000394135714,0.48184001445770264
7002.570345838375,1685088.0,-0.030549999326467514,0.005630000028759241,-0.005679999943822622,0.47951000928878784
7002.5713456105905,1685089.0,-0.03229999914765358,-0.001449999981559813,-0.010490000247955322,0.47878000140190125
7002.572345382806,1685090.0,-0.034949999302625656,0.0021299999207258224,0.00031999999191612005,0.47547999024391174
7002.573345155021,1685091.0,-0.03880999982357025,0.001769999973475933,0.00031999999191612005,0.4811600148677826
7002.574344927237,1685092.0,-0.042810000479221344,-0.000859999970998615,0.0002300000051036477,0.4690699875354767
7002.575344699451,1685093.0,-0.045779999345541,0.0021800000686198473,-0.003590000094845891,0.47835999727249146
7002.576344471667,1685094.0,-0.04735000059008598,-0.005489999894052744,-0.0030400000978261232,0.47268998622894287
7002.577344243882,1685095.0,-0.04797999933362007,-0.004769999999552965,0.0034099998883903027,0.4741100072860718
7002.578344016098,1685096.0,-0.046810001134872437,-0.002950000111013651,0.0027699999045580626,0.47341999411582947
7002.579343788313,1685097.0,-0.04374999925494194,-0.0002699999895412475,0.0031300000846385956,0.4736500084400177
7002.5803435605285,1685098.0,-0.039170000702142715,-0.003539999946951866,0.00031999999191612005,0.47345998883247375
7002.581343332743,1685099.0,-0.034049998968839645,0.002090000081807375,0.001500000013038516,0.47345998883247375
7002.582343104958,1685100.0,-0.030139999464154243,0.00031999999191612005,0.0025400000158697367,0.47286999225616455
7002.583342877174,1685101.0,-0.02727000042796135,0.003220000071451068,-0.0007699999841861427,0.4716799855232239
7002.584342649389,1685102.0,-0.02676999941468239,0.006769999861717224,-0.00267999991774559,0.4717699885368347
7002.585342421605,1685103.0,-0.02807999961078167,0.005179999861866236,0.005179999861866236,0.47141000628471375
7002.586342193819,1685104.0,-0.02865999937057495,-0.0013599999947473407,0.00031999999191612005,0.4690699875354767
7002.587341966035,1685105.0,-0.028030000627040863,0.0036299999337643385,-0.0029100000392645597,0.46724000573158264
7002.58834173825,1685106.0,-0.02606000006198883,0.00031999999191612005,0.0010400000028312206,0.46393999457359314
7002.589341510466,1685107.0,-0.02425999939441681,-0.0022700000554323196,0.003909999970346689,0.4621100127696991
7002.590341282681,1685108.0,-0.02515999972820282,0.006490000057965517,-0.0002699999895412475,0.46101000905036926
7002.5913410548965,1685109.0,-0.028119999915361404,-0.0002699999895412475,-0.0019099999917671084,0.4561600089073181
7002.592340827111,1685110.0,-0.032839998602867126,0.004410000052303076,0.0010400000028312206,0.45149001479148865
7002.593340599326,1685111.0,-0.03598000109195709,0.0027699999045580626,-0.0007699999841861427,0.4456300139427185
7002.594340371542,1685112.0,-0.040070001035928726,-0.0013599999947473407,-0.0020000000949949026,0.4462299942970276
7002.595340143757,1685113.0,-0.0428600013256073,0.0016799999866634607,0.0014100000262260437,0.45249998569488525
7002.596339915972,1685114.0,-0.04456000030040741,-0.006310000084340572,-0.0018599999602884054,0.4566200077533722
7002.597339688187,1685115.0,-0.043129999190568924,-0.0002300000051036477,-0.001230000052601099,0.46028000116348267
7002.598339460403,1685116.0,-0.03863000124692917,-0.009580000303685665,0.001500000013038516,0.46004998683929443
7002.599339232618,1685117.0,-0.03449999913573265,-0.0031300000846385956,0.005679999943822622,0.4583599865436554
7002.600339004834,1685118.0,-0.032519999891519547,-0.0037700000684708357,-0.000910000002477318,0.4573499858379364
7002.601338777049,1685119.0,-0.03369000181555748,0.0030400000978261232,0.00031999999191612005,0.4538699984550476
7002.6023385492645,1685120.0,-0.03432000055909157,-0.00267999991774559,0.0031799999997019768,0.45021000504493713
7002.603338321479,1685121.0,-0.03539999946951866,0.005400000140070915,0.0017300000181421638,0.4437600076198578
7002.604338093694,1685122.0,-0.03598000109195709,0.003590000094845891,-0.0076299998909235,0.44800999760627747
7002.60533786591,1685123.0,-0.034860000014305115,0.001180000021122396,-0.005489999894052744,0.4498400092124939
7002.606337638125,1685124.0,-0.0321200005710125,-0.00031999999191612005,0.00418000016361475,0.45034998655319214
7002.60733741034,1685125.0,-0.03181000053882599,0.001230000052601099,-0.01071999967098236,0.4496600031852722
7002.608337182555,1685126.0,-0.033149998635053635,0.0002300000051036477,-0.004769999999552965,0.44929999113082886
7002.609336954771,1685127.0,-0.03288000077009201,0.003220000071451068,0.00031999999191612005,0.4478299915790558
7002.610336726986,1685128.0,-0.03297000005841255,0.00031999999191612005,0.0036299999337643385,0.44887998700141907
7002.611336499202,1685129.0,-0.03593999892473221,0.00749000022187829,0.0031799999997019768,0.43171998858451843
7002.612336271417,1685130.0,-0.040070001035928726,0.00803999975323677,0.005400000140070915,0.4441699981689453
7002.6133360436315,1685131.0,-0.044199999421834946,0.003220000071451068,0.0076299998909235,0.43935999274253845
7002.614335815847,1685132.0,-0.04861000180244446,-0.001230000052601099,0.008860000409185886,0.43977001309394836
7002.615335588062,1685133.0,-0.0514799989759922,-0.0033599999733269215,0.004410000052303076,0.4421499967575073
7002.616335360278,1685134.0,-0.051569998264312744,-0.003909999970346689,-0.004040000028908253,0.4368399977684021
7002.617335132493,1685135.0,-0.05229000002145767,-0.004040000028908253,-0.006630000192672014,0.4221999943256378
7002.618334904708,1685136.0,-0.0530100017786026,-0.00839999970048666,-0.005539999809116125,0.4375300109386444
7002.619334676923,1685137.0,-0.05282999947667122,-0.0072200000286102295,-0.00203999993391335,0.43977001309394836
7002.620334449139,1685138.0,-0.050450000911951065,-0.003860000055283308,-0.006130000110715628,0.43355000019073486
7002.621334221354,1685139.0,-0.04496999830007553,-0.0044999998062849045,0.001449999981559813,0.4190399944782257
7002.62233399357,1685140.0,-0.040389999747276306,-0.006219999864697456,4.999999873689376e-05,0.4331800043582916
7002.623333765785,1685141.0,-0.03863000124692917,-0.0018599999602884054,-0.015300000086426735,0.4343299865722656
7002.6243335379995,1685142.0,-0.03912999853491783,-0.006039999891072512,-0.01826000027358532,0.428600013256073
7002.625333310215,1685143.0,-0.04142000153660774,0.0031799999997019768,-0.0034099998883903027,0.4338200092315674
7002.62633308243,1685144.0,-0.04438000172376633,0.005630000028759241,-0.004410000052303076,0.42566999793052673
7002.627332854646,1685145.0,-0.04645000025629997,0.002319999970495701,-0.010990000329911709,0.42563000321388245
7002.628332626861,1685146.0,-0.04797999933362007,0.008539999835193157,0.0011399999493733048,0.4293400049209595
7002.629332399076,1685147.0,-0.04910000041127205,0.003000000026077032,0.006630000192672014,0.42838001251220703
7002.630332171291,1685148.0,-0.051350001245737076,0.006490000057965517,0.017389999702572823,0.42467001080513
7002.631331943507,1685149.0,-0.0553399994969368,0.007579999975860119,0.013620000332593918,0.40933001041412354
7002.632331715722,1685150.0,-0.05857999995350838,0.0019499999471008778,0.014990000054240227,0.4197700023651123
7002.6333314879375,1685151.0,-0.0616299994289875,0.006089999806135893,0.011219999752938747,0.4258599877357483
7002.634331260153,1685152.0,-0.06477999687194824,-0.000590000010561198,0.002630000002682209,0.4221999943256378
7002.6353310323675,1685153.0,-0.06649000197649002,0.0010400000028312206,-4.999999873689376e-05,0.4163399934768677
7002.636330804583,1685154.0,-0.06639999896287918,-0.004769999999552965,-0.004089999943971634,0.41611000895500183
7002.637330576798,1685155.0,-0.06451000273227692,-0.0011399999493733048,-0.003590000094845891,0.42100998759269714
7002.638330349014,1685156.0,-0.06064999848604202,-0.004269999917596579,-0.006219999864697456,0.41927000880241394
7002.639330121229,1685157.0,-0.057500001043081284,-0.007720000110566616,-0.012260000221431255,0.41451001167297363
7002.640329893444,1685158.0,-0.05192999914288521,-0.006490000057965517,-0.014580000191926956,0.40224000811576843
7002.641329665659,1685159.0,-0.045010000467300415,0.002630000002682209,-0.009850000031292439,0.4116699993610382
7002.642329437875,1685160.0,-0.04033999890089035,0.0033599999733269215,0.003539999946951866,0.4163399934768677
7002.64332921009,1685161.0,-0.03612000122666359,0.00749000022187829,0.01375999953597784,0.414139986038208
7002.6443289823055,1685162.0,-0.03513000160455704,0.010400000028312206,0.01370999962091446,0.40874001383781433
7002.645328754521,1685163.0,-0.034949999302625656,0.007360000163316727,0.006130000110715628,0.39454999566078186
7002.6463285267355,1685164.0,-0.03418999910354614,0.003719999920576811,0.0022299999836832285,0.4067699909210205
7002.647328298951,1685165.0,-0.03279000148177147,0.00686000008136034,-0.022929999977350235,0.4119400084018707
7002.648328071166,1685166.0,-0.032519999891519547,0.0019499999471008778,-0.020029999315738678,0.4071800112724304
7002.649327843382,1685167.0,-0.03189999982714653,0.0024999999441206455,-0.006949999835342169,0.40279000997543335
7002.650327615597,1685168.0,-0.03387000039219856,0.0035000001080334187,0.0019499999471008778,0.4003100097179413
7002.651327387812,1685169.0,-0.03692999854683876,0.001500000013038516,0.021390000358223915,0.40553000569343567
7002.652327160027,1685170.0,-0.039170000702142715,-0.00018000000272877514,0.028379999101161957,0.4068099856376648
7002.653326932243,1685171.0,-0.04123999923467636,-0.002589999930933118,0.012719999998807907,0.4016900062561035
7002.654326704458,1685172.0,-0.04267999902367592,-0.013120000250637531,0.004220000002533197,0.3972899913787842
7002.6553264766735,1685173.0,-0.045239999890327454,-0.015530000440776348,0.0072200000286102295,0.39252999424934387
7002.656326248889,1685174.0,-0.04438000172376633,-0.01066999975591898,0.004000000189989805,0.3996700048446655
7002.6573260211035,1685175.0,-0.041370000690221786,-0.005770000163465738,-0.014349999837577343,0.40108999609947205
7002.658325793319,1685176.0,-0.03440999984741211,-0.000539999979082495,-0.01730000041425228,0.39757001399993896
7002.659325565534,1685177.0,-0.02314000017940998,-0.00880999956279993,-0.01865999959409237,0.3958300054073334
7002.66032533775,1685178.0,-0.01131999958306551,-0.001820000004954636,-0.009170000441372395,0.3957799971103668
7002.661325109964,1685179.0,-0.002520000096410513,0.0063599999994039536,-0.014619999565184116,0.3952299952507019
7002.66232488218,1685180.0,0.0013899999903514981,0.006579999811947346,-0.016030000522732735,0.39559999108314514
7002.663324654395,1685181.0,0.0034600000362843275,0.012350000441074371,-0.004999999888241291,0.395550012588501
7002.664324426611,1685182.0,0.004000000189989805,0.009039999917149544,0.006719999946653843,0.394679993391037
7002.665324198826,1685183.0,0.005570000037550926,0.009039999917149544,0.004310000222176313,0.39399999380111694
7002.6663239710415,1685184.0,0.008489999920129776,0.003220000071451068,0.0033599999733269215,0.3928999900817871
7002.667323743257,1685185.0,0.010239999741315842,-0.0007699999841861427,0.00872000027447939,0.39212000370025635
7002.6683235154715,1685186.0,0.011500000022351742,-0.0013200000394135714,0.006399999838322401,0.39107000827789307
7002.669323287687,1685187.0,0.012439999729394913,0.004809999838471413,0.007899999618530273,0.38960000872612
7002.670323059902,1685188.0,0.011230000294744968,0.005950000137090683,0.003719999920576811,0.38923999667167664
7002.671322832118,1685189.0,0.008179999887943268,0.00031999999191612005,0.006130000110715628,0.3877300024032593
7002.672322604332,1685190.0,0.003860000055283308,0.007809999864548445,0.001230000052601099,0.38703998923301697
7002.673322376548,1685191.0,-0.000539999979082495,0.001230000052601099,0.0019499999471008778,0.3853900134563446
7002.674322148763,1685192.0,-0.002959999954327941,0.0016299999551847577,0.004900000058114529,0.38447999954223633
7002.675321920979,1685193.0,-0.0033199999015778303,0.0029100000392645597,0.00880999956279993,0.38387998938560486
7002.676321693194,1685194.0,-0.0028800000436604023,0.0014100000262260437,-0.001820000004954636,0.3833799958229065
7002.6773214654095,1685195.0,0.0007200000109151006,-0.001500000013038516,-0.0031300000846385956,0.38300999999046326
7002.678321237624,1685196.0,0.006020000204443932,-0.0033599999733269215,-0.00044999999227002263,0.38273999094963074
7002.679321009839,1685197.0,0.011500000022351742,-0.006039999891072512,-0.00989999994635582,0.380950003862381
7002.680320782055,1685198.0,0.016580000519752502,-0.0072200000286102295,-0.013620000332593918,0.3753199875354767
7002.68132055427,1685199.0,0.021379999816417694,-0.0027199999894946814,-0.005489999894052744,0.37439998984336853
7002.682320326486,1685200.0,0.027489999309182167,-0.015709999948740005,0.005400000140070915,0.364329993724823
7002.6833200987,1685201.0,0.03288000077009201,-0.02669999934732914,0.004540000110864639,0.37143000960350037
7002.684319870916,1685202.0,0.036570001393556595,-0.014209999702870846,-0.002589999930933118,0.37189000844955444
7002.685319643131,1685203.0,0.03633999824523926,-0.0012700000079348683,-0.001820000004954636,0.3738600015640259
7002.686319415347,1685204.0,0.0370200015604496,0.006630000192672014,-0.0024500000290572643,0.3763299882411957
7002.687319187562,1685205.0,0.0370200015604496,0.00949000008404255,0.01181000005453825,0.371289998292923
7002.6883189597775,1685206.0,0.03633999824523926,0.009359999559819698,0.008080000057816505,0.3628700077533722
7002.689318731992,1685207.0,0.03539999946951866,0.007579999975860119,0.004999999888241291,0.37349000573158264
7002.690318504207,1685208.0,0.03413999825716019,0.009759999811649323,0.006130000110715628,0.3683600127696991
7002.691318276423,1685209.0,0.03162999823689461,0.011579999700188637,0.004679999779909849,0.3660300076007843
7002.692318048638,1685210.0,0.026149999350309372,0.010040000081062317,-0.0033599999733269215,0.3686800003051758
7002.693317820854,1685211.0,0.02102000080049038,0.005400000140070915,-0.007079999893903732,0.36423999071121216
7002.694317593068,1685212.0,0.016529999673366547,0.007860000245273113,-0.018300000578165054,0.3664399981498718
7002.695317365284,1685213.0,0.014600000344216824,0.006130000110715628,-0.013899999670684338,0.36351001262664795
7002.696317137499,1685214.0,0.014379999600350857,-0.0010900000343099236,-0.007309999782592058,0.36542999744415283
7002.697316909715,1685215.0,0.01549999974668026,-0.0027699999045580626,0.0029100000392645597,0.35874998569488525
7002.69831668193,1685216.0,0.018149999901652336,-0.008860000409185886,0.015440000221133232,0.3668999969959259
7002.699316454145,1685217.0,0.02191999927163124,-0.005489999894052744,0.014800000004470348,0.3547700047492981
7002.70031622636,1685218.0,0.02606000006198883,-0.0028200000524520874,0.00989999994635582,0.3626900017261505
7002.701315998575,1685219.0,0.030640000477433205,0.001449999981559813,-0.012439999729394913,0.35842999815940857
7002.702315770791,1685220.0,0.03382999822497368,-0.0002300000051036477,-0.009850000031292439,0.3617199957370758
7002.703315543006,1685221.0,0.03558000177145004,0.005770000163465738,0.002319999970495701,0.35659998655319214
7002.704315315222,1685222.0,0.03863000124692917,0.00795000046491623,-0.006089999806135893,0.3604399859905243
7002.705315087436,1685223.0,0.042410001158714294,-0.007360000163316727,-0.007180000189691782,0.35440000891685486
7002.706314859652,1685224.0,0.0451899990439415,-0.004809999838471413,-0.006579999811947346,0.35989001393318176
7002.707314631867,1685225.0,0.045099999755620956,-0.0005000000237487257,-0.007770000025629997,0.35124000906944275
7002.708314404083,1685226.0,0.04383999854326248,0.0014100000262260437,-0.00798999983817339,0.35683000087738037
7002.709314176298,1685227.0,0.04428999871015549,-0.0076299998909235,-0.0014100000262260437,0.35326001048088074
7002.710313948513,1685228.0,0.04456000030040741,-0.008080000057816505,0.009399999864399433,0.3555000126361847
7002.711313720728,1685229.0,0.0436599999666214,-0.0011399999493733048,0.01998000033199787,0.3532100021839142
7002.712313492943,1685230.0,0.04106000065803528,-0.004679999779909849,0.023429999127984047,0.3543500006198883
7002.713313265159,1685231.0,0.03822999820113182,-0.0007699999841861427,0.018300000578165054,0.3502799868583679
7002.714313037374,1685232.0,0.036660000681877136,0.001449999981559813,0.012400000356137753,0.35370999574661255
7002.71531280959,1685233.0,0.0370200015604496,-0.0036800000816583633,0.009399999864399433,0.3498699963092804
7002.716312581804,1685234.0,0.03863000124692917,-0.006949999835342169,0.0027199999894946814,0.3559100031852722
7002.71731235402,1685235.0,0.043129999190568924,0.003000000026077032,-0.001500000013038516,0.3518800139427185
7002.718312126235,1685236.0,0.048250000923871994,0.004860000219196081,-0.013220000080764294,0.33897000551223755
7002.7193118984505,1685237.0,0.05449000000953674,0.004629999864846468,-0.016759999096393585,0.35297998785972595
7002.720311670666,1685238.0,0.06029000133275986,0.005950000137090683,-0.014209999702870846,0.34817999601364136
7002.721311442881,1685239.0,0.065140001475811,0.007899999618530273,-0.024609999731183052,0.3491800129413605
7002.722311215096,1685240.0,0.06639999896287918,0.00686000008136034,-0.02043999917805195,0.3498699963092804
7002.723310987311,1685241.0,0.06791999936103821,0.01066999975591898,-0.007180000189691782,0.3465699851512909
7002.724310759527,1685242.0,0.06756000220775604,0.00795000046491623,0.010900000110268593,0.3476699888706207
7002.725310531742,1685243.0,0.064690001308918,-0.0015899999998509884,0.026019999757409096,0.34749001264572144
7002.726310303957,1685244.0,0.057500001043081284,-0.005179999861866236,0.0189800001680851,0.34676000475883484
7002.727310076172,1685245.0,0.0516199991106987,-0.0021299999207258224,0.007860000245273113,0.3481299877166748
7002.728309848388,1685246.0,0.048340000212192535,-0.007079999893903732,0.010080000385642052,0.34547001123428345
7002.729309620603,1685247.0,0.048700001090765,0.003590000094845891,-0.00803999975323677,0.34821999073028564
7002.7303093928185,1685248.0,0.049059998244047165,0.010850000195205212,-0.008949999697506428,0.34492000937461853
7002.731309165034,1685249.0,0.04941999912261963,0.0064500002190470695,-0.0083600003272295,0.3467099964618683
7002.732308937249,1685250.0,0.04761999845504761,-0.0019099999917671084,-0.003220000071451068,0.3451499938964844
7002.733308709464,1685251.0,0.04349000006914139,-0.00839999970048666,0.004220000002533197,0.34419000148773193
7002.734308481679,1685252.0,0.04191000014543533,-0.003000000026077032,0.002319999970495701,0.34588998556137085
7002.735308253895,1685253.0,0.041600000113248825,-0.006949999835342169,-0.02507000043988228,0.34272998571395874
7002.73630802611,1685254.0,0.044920001178979874,-0.00571999978274107,-0.008860000409185886,0.3448300063610077
7002.737307798325,1685255.0,0.047439999878406525,-0.006949999835342169,0.008860000409185886,0.3423599898815155
7002.73830757054,1685256.0,0.04901000112295151,-0.007449999917298555,0.017389999702572823,0.34387001395225525
7002.739307342756,1685257.0,0.0510299988090992,-0.00839999970048666,0.016620000824332237,0.3430899977684021
7002.740307114971,1685258.0,0.0530100017786026,-0.007670000195503235,0.015399999916553497,0.3423199951648712
7002.7413068871865,1685259.0,0.0557899996638298,-0.006089999806135893,0.006130000110715628,0.3430500030517578
7002.742306659402,1685260.0,0.05843999981880188,0.0018599999602884054,-0.007180000189691782,0.3429099917411804
7002.7433064316165,1685261.0,0.059119999408721924,0.009669999592006207,-0.009759999811649323,0.341949999332428
7002.744306203832,1685262.0,0.05773000046610832,0.010400000028312206,-0.012439999729394913,0.3409000039100647
7002.745305976047,1685263.0,0.05480999872088432,0.014310000464320183,-0.022929999977350235,0.34314000606536865
7002.746305748263,1685264.0,0.0530100017786026,0.008220000192523003,-0.018939999863505363,0.34084999561309814
7002.747305520478,1685265.0,0.05192999914288521,0.010040000081062317,-0.00571999978274107,0.33924999833106995
7002.748305292693,1685266.0,0.05090000107884407,-0.0006399999838322401,0.013260000385344028,0.3401600122451782
7002.749305064908,1685267.0,0.05012999847531319,0.002630000002682209,0.013030000030994415,0.3425000011920929
7002.750304837124,1685268.0,0.04797999933362007,0.007360000163316727,0.011939999647438526,0.34071001410484314
7002.751304609339,1685269.0,0.04478999972343445,0.00571999978274107,0.012620000168681145,0.3387500047683716
7002.7523043815545,1685270.0,0.04033999890089035,0.00014000000373926014,0.011939999647438526,0.3386099934577942
7002.75330415377,1685271.0,0.037470001727342606,-0.00041000000783242285,0.023250000551342964,0.3439199924468994
7002.7543039259845,1685272.0,0.036479998379945755,-0.0022299999836832285,0.018120000138878822,0.33823999762535095
7002.7553036982,1685273.0,0.03756000101566315,-0.0024500000290572643,0.002859999891370535,0.33980000019073486
7002.756303470415,1685274.0,0.039889998733997345,-0.0027699999045580626,-0.0071299998089671135,0.3394800126552582
7002.757303242631,1685275.0,0.04393000155687332,-0.004410000052303076,-0.028790000826120377,0.3380599915981293
7002.758303014846,1685276.0,0.04967999830842018,-0.0063599999994039536,-0.029610000550746918,0.3414900004863739
7002.759302787061,1685277.0,0.056290000677108765,-0.00989999994635582,-0.01107999961823225,0.33118999004364014
7002.760302559276,1685278.0,0.06253000348806381,-0.008449999615550041,0.009039999917149544,0.343639999628067
7002.761302331492,1685279.0,0.06612999737262726,-9.000000136438757e-05,0.008990000002086163,0.3266099989414215
7002.762302103707,1685280.0,0.06684999912977219,0.0034099998883903027,0.003220000071451068,0.3430899977684021
7002.7633018759225,1685281.0,0.06814999878406525,-0.0009500000160187483,0.0012700000079348683,0.33678001165390015
7002.764301648138,1685282.0,0.0705299973487854,0.0036800000816583633,0.0045900000259280205,0.33820000290870667
7002.765301420352,1685283.0,0.07339999824762344,0.0015399999683722854,-0.00041000000783242285,0.3410300016403198
7002.766301192568,1685284.0,0.07547000050544739,0.00031999999191612005,-0.0027699999045580626,0.32624998688697815
7002.767300964783,1685285.0,0.07690999656915665,0.00203999993391335,-0.0021800000686198473,0.3380599915981293
7002.768300736999,1685286.0,0.08004999905824661,-0.00031999999191612005,-0.01576000079512596,0.3413499891757965
7002.769300509214,1685287.0,0.08369000256061554,-0.000590000010561198,-0.020479999482631683,0.3369100093841553
7002.770300281429,1685288.0,0.0855799987912178,0.005770000163465738,-0.011719999834895134,0.34053000807762146
7002.771300053644,1685289.0,0.0841900035738945,0.010579999536275864,-0.004089999943971634,0.3390200138092041
7002.77229982586,1685290.0,0.08179999887943268,0.007579999975860119,0.005270000081509352,0.33722999691963196
7002.773299598075,1685291.0,0.07744999974966049,0.004310000222176313,0.013399999588727951,0.34053000807762146
7002.7742993702905,1685292.0,0.07317999750375748,0.006130000110715628,0.010850000195205212,0.33623000979423523
7002.775299142506,1685293.0,0.07152000069618225,0.0022299999836832285,0.005590000189840794,0.34158000349998474
7002.77629891472,1685294.0,0.07269000262022018,0.0010000000474974513,0.001769999973475933,0.3383300006389618
7002.777298686936,1685295.0,0.07627999782562256,-4.999999873689376e-05,0.0024500000290572643,0.33998000621795654
7002.778298459151,1685296.0,0.07964999973773956,0.00031999999191612005,-0.004089999943971634,0.33980000019073486
7002.779298231367,1685297.0,0.0822099968791008,-0.002589999930933118,-0.0044999998062849045,0.33820000290870667
7002.780298003582,1685298.0,0.08157999813556671,0.004310000222176313,-0.002589999930933118,0.34419000148773193
7002.781297775797,1685299.0,0.08130999654531479,0.004449999891221523,-0.002589999930933118,0.33855998516082764
7002.782297548012,1685300.0,0.08072999864816666,0.002950000111013651,-0.0036299999337643385,0.3459300100803375
7002.783297320228,1685301.0,0.07812000066041946,-0.0014100000262260437,-0.000590000010561198,0.3386499881744385
7002.784297092443,1685302.0,0.07582999765872955,-0.00203999993391335,0.0014100000262260437,0.34529000520706177
7002.785296864658,1685303.0,0.07399000227451324,-0.0044999998062849045,0.0002300000051036477,0.3284499943256378
7002.786296636874,1685304.0,0.07294999808073044,-0.006089999806135893,-0.006180000025779009,0.3458400070667267
7002.787296409088,1685305.0,0.07312999665737152,-0.002630000002682209,-0.004000000189989805,0.3396100103855133
7002.788296181304,1685306.0,0.07161000370979309,-0.0033199999015778303,-0.00913000013679266,0.34676000475883484
7002.789295953519,1685307.0,0.06851000338792801,-0.00798999983817339,0.008449999615550041,0.33869999647140503
7002.790295725735,1685308.0,0.06379000097513199,-0.002589999930933118,0.007670000195503235,0.34125998616218567
7002.791295497949,1685309.0,0.056290000677108765,0.001820000004954636,0.01484999991953373,0.34735000133514404
7002.792295270165,1685310.0,0.044610001146793365,0.005770000163465738,0.004769999999552965,0.34112998843193054
7002.79329504238,1685311.0,0.03288000077009201,0.003949999809265137,0.0020000000949949026,0.33118999004364014
7002.794294814596,1685312.0,0.023000000044703484,0.0009500000160187483,0.00494999997317791,0.34419000148773193
7002.795294586811,1685313.0,0.014550000429153442,-0.0012700000079348683,0.004679999779909849,0.34894999861717224
7002.796294359026,1685314.0,0.009970000013709068,-0.0017300000181421638,-0.0002699999895412475,0.34345999360084534
7002.797294131242,1685315.0,0.01257999986410141,-0.004220000002533197,-0.005270000081509352,0.3440999984741211
7002.798293903456,1685316.0,0.019950000569224358,-0.0033199999015778303,-0.017669999971985817,0.3472599983215332
7002.799293675672,1685317.0,0.028839999809861183,0.0002300000051036477,-0.012029999867081642,0.33994001150131226
7002.800293447887,1685318.0,0.035670001059770584,0.0045900000259280205,-0.0007300000288523734,0.35183998942375183
7002.801293220103,1685319.0,0.040699999779462814,0.007360000163316727,-4.999999873689376e-05,0.34492000937461853
7002.802292992317,1685320.0,0.04631999880075455,0.003220000071451068,-0.0011399999493733048,0.35010001063346863
7002.803292764533,1685321.0,0.05192999914288521,0.005539999809116125,0.002859999891370535,0.3459799885749817
7002.804292536748,1685322.0,0.0573199987411499,0.006130000110715628,-0.01298999972641468,0.3518800139427185
7002.8052923089635,1685323.0,0.061810001730918884,0.0024999999441206455,-0.007449999917298555,0.34602001309394836
7002.806292081179,1685324.0,0.06809999793767929,-0.0009500000160187483,-0.012029999867081642,0.3527500033378601
7002.807291853394,1685325.0,0.07366999983787537,0.0002300000051036477,-0.005489999894052744,0.33796998858451843
7002.808291625609,1685326.0,0.07924000173807144,-0.003449999960139394,0.003719999920576811,0.3541699945926666
7002.809291397824,1685327.0,0.08410000056028366,-0.004310000222176313,0.007579999975860119,0.3416300117969513
7002.81029117004,1685328.0,0.08787000179290771,-0.0029100000392645597,0.006680000107735395,0.35457998514175415
7002.811290942255,1685329.0,0.08967000246047974,0.00203999993391335,0.02701999992132187,0.339709997177124
7002.812290714471,1685330.0,0.09227000176906586,0.003220000071451068,0.023569999262690544,0.3548099994659424
7002.813290486685,1685331.0,0.09352999925613403,0.00803999975323677,-0.003000000026077032,0.351610004901886
7002.814290258901,1685332.0,0.09519000351428986,0.013399999588727951,-0.01331000030040741,0.3469400107860565
7002.815290031116,1685333.0,0.09752999991178513,0.011760000139474869,-0.00571999978274107,0.35683000087738037
7002.8162898033315,1685334.0,0.1012599989771843,0.00018000000272877514,0.0016299999551847577,0.3512899875640869
7002.817289575547,1685335.0,0.10763999819755554,-0.0062699997797608376,0.007670000195503235,0.34876999258995056
7002.818289347762,1685336.0,0.11518000066280365,-0.007309999782592058,-0.006399999838322401,0.35541000962257385
7002.819289119977,1685337.0,0.12389999628067017,-0.004540000110864639,-0.002409999957308173,0.350600004196167
7002.820288892192,1685338.0,0.1327899992465973,-0.005489999894052744,0.009039999917149544,0.3551799952983856
7002.821288664408,1685339.0,0.1419599950313568,-0.014399999752640724,0.012489999644458294,0.3514299988746643
7002.822288436623,1685340.0,0.15094000101089478,-0.014530000276863575,0.010850000195205212,0.3559100031852722
7002.823288208839,1685341.0,0.15839999914169312,-0.010579999536275864,0.0002300000051036477,0.35293999314308167
7002.824287981053,1685342.0,0.16405999660491943,-0.011669999919831753,-0.01298999972641468,0.3560500144958496
7002.825287753269,1685343.0,0.16845999658107758,-0.007309999782592058,-0.025839999318122864,0.353300005197525
7002.826287525484,1685344.0,0.17125000059604645,0.005309999920427799,-0.01370999962091446,0.35554999113082886
7002.8272872976995,1685345.0,0.17137999832630157,0.010809999890625477,-0.013849999755620956,0.3548099994659424
7002.828287069915,1685346.0,0.1698099970817566,0.010850000195205212,-0.00571999978274107,0.35686999559402466
7002.82928684213,1685347.0,0.16656999289989471,0.011939999647438526,-0.0006399999838322401,0.3540799915790558
7002.830286614345,1685348.0,0.16388000547885895,0.015209999866783619,0.011579999700188637,0.35760000348091125
7002.83128638656,1685349.0,0.15978999435901642,0.015209999866783619,0.014399999752640724,0.3549000024795532
7002.832286158776,1685350.0,0.15421999990940094,0.00686000008136034,0.01107999961823225,0.35774001479148865
7002.833285930991,1685351.0,0.14702999591827393,-0.001180000021122396,0.011579999700188637,0.3537600040435791
7002.834285703207,1685352.0,0.13944000005722046,0.003590000094845891,0.001769999973475933,0.3575100004673004
7002.835285475421,1685353.0,0.12992000579833984,0.003949999809265137,-0.010350000113248825,0.35545000433921814
7002.836285247637,1685354.0,0.12038999795913696,-0.005590000189840794,-0.0051299999468028545,0.35846999287605286
7002.837285019852,1685355.0,0.11123000085353851,-0.000590000010561198,-0.007809999864548445,0.3551799952983856
7002.8382847920675,1685356.0,0.09977000206708908,-0.00203999993391335,-0.010169999673962593,0.35774001479148865
7002.839284564283,1685357.0,0.09042999893426895,0.00031999999191612005,-0.008580000139772892,0.3589800000190735
7002.840284336498,1685358.0,0.08302000164985657,0.001769999973475933,-0.0015399999683722854,0.35732999444007874
7002.841284108713,1685359.0,0.07807999849319458,0.0002699999895412475,-0.003539999946951866,0.35673999786376953
7002.842283880928,1685360.0,0.07366999983787537,0.0030400000978261232,0.0024500000290572643,0.3560500144958496
7002.843283653144,1685361.0,0.06724999845027924,-0.012439999729394913,0.013170000165700912,0.36177000403404236
7002.844283425359,1685362.0,0.05857999995350838,-0.012129999697208405,0.008489999920129776,0.35554999113082886
7002.845283197575,1685363.0,0.049240000545978546,-0.004809999838471413,0.0007300000288523734,0.34529000520706177
7002.846282969789,1685364.0,0.03953000158071518,0.00031999999191612005,0.0022299999836832285,0.3592100143432617
7002.847282742005,1685365.0,0.029829999431967735,0.005950000137090683,0.00031999999191612005,0.3626900017261505
7002.84828251422,1685366.0,0.02191999927163124,-0.0031799999997019768,-0.011169999837875366,0.3548099994659424
7002.8492822864355,1685367.0,0.014469999819993973,0.0045900000259280205,-0.007360000163316727,0.35627999901771545
7002.850282058651,1685368.0,0.006649999879300594,0.008489999920129776,-0.0010400000028312206,0.36250001192092896
7002.851281830866,1685369.0,-0.003370000049471855,0.00913000013679266,-0.003949999809265137,0.35929998755455017
7002.852281603081,1685370.0,-0.014910000376403332,0.007770000025629997,0.001230000052601099,0.34602001309394836
7002.853281375296,1685371.0,-0.026319999247789383,0.0027699999045580626,0.007309999782592058,0.3585200011730194
7002.854281147512,1685372.0,-0.04123999923467636,0.005179999861866236,0.010080000385642052,0.36250001192092896
7002.855280919727,1685373.0,-0.05511999875307083,0.002589999930933118,0.00795000046491623,0.35558998584747314
7002.856280691943,1685374.0,-0.06676000356674194,-0.001230000052601099,0.003949999809265137,0.3559100031852722
7002.857280464157,1685375.0,-0.07524999976158142,0.00494999997317791,0.006990000139921904,0.36122000217437744
7002.858280236373,1685376.0,-0.08045999705791473,-0.0009500000160187483,0.003809999907389283,0.356550008058548
7002.859280008588,1685377.0,-0.08284000307321548,-0.0036800000816583633,-0.00494999997317791,0.3606700003147125
7002.8602797808035,1685378.0,-0.08257000148296356,-0.002589999930933118,-0.004540000110864639,0.35627999901771545
7002.861279553019,1685379.0,-0.08329000324010849,-0.0033599999733269215,-0.008449999615550041,0.36237001419067383
7002.862279325234,1685380.0,-0.08337999880313873,0.0014100000262260437,-0.011669999919831753,0.35587000846862793
7002.863279097449,1685381.0,-0.08395999670028687,-0.004769999999552965,-0.007040000054985285,0.3622699975967407
7002.864278869664,1685382.0,-0.0837400034070015,-0.002589999930933118,0.0045900000259280205,0.35541000962257385
7002.86527864188,1685383.0,-0.08239000290632248,-0.0002300000051036477,-4.999999873689376e-05,0.36237001419067383
7002.866278414095,1685384.0,-0.08167000114917755,-0.005859999917447567,0.0027699999045580626,0.3562299907207489
7002.86727818631,1685385.0,-0.08279000222682953,-0.015709999948740005,0.009039999917149544,0.3621399998664856
7002.868277958525,1685386.0,-0.08027999848127365,-0.00839999970048666,-0.0044999998062849045,0.3553600013256073
7002.869277730741,1685387.0,-0.07825999706983566,0.0010400000028312206,-0.00494999997317791,0.3615899980068207
7002.870277502956,1685388.0,-0.07879000157117844,0.00749000022187829,-0.002090000081807375,0.3562299907207489
7002.871277275171,1685389.0,-0.08090999722480774,0.008489999920129776,-0.0014100000262260437,0.3592100143432617
7002.872277047387,1685390.0,-0.08149000257253647,0.013399999588727951,-0.006769999861717224,0.35572999715805054
7002.873276819601,1685391.0,-0.08152999728918076,0.010490000247955322,-0.00953999999910593,0.3582499921321869
7002.874276591817,1685392.0,-0.0822099968791008,-4.999999873689376e-05,-0.005489999894052744,0.3572799861431122
7002.875276364032,1685393.0,-0.08305999636650085,0.003000000026077032,0.0072200000286102295,0.36030998826026917
7002.876276136248,1685394.0,-0.08257000148296356,-0.0027699999045580626,0.010259999893605709,0.3558200001716614
7002.877275908463,1685395.0,-0.08090999722480774,-0.006310000084340572,0.003000000026077032,0.3613100051879883
7002.878275680678,1685396.0,-0.07739999890327454,-0.003000000026077032,0.0022299999836832285,0.3558200001716614
7002.879275452893,1685397.0,-0.07152000069618225,-0.0018599999602884054,0.009720000438392162,0.36149999499320984
7002.880275225109,1685398.0,-0.06402000039815903,-0.005489999894052744,0.004220000002533197,0.34470000863075256
7002.881274997324,1685399.0,-0.05584000051021576,0.0019499999471008778,-0.003719999920576811,0.3623200058937073
7002.882274769539,1685400.0,-0.04470000043511391,-9.000000136438757e-05,-0.010940000414848328,0.3445099890232086
7002.883274541755,1685401.0,-0.03584999963641167,-0.0002699999895412475,-0.009669999592006207,0.3624599874019623
7002.884274313969,1685402.0,-0.029600000008940697,0.008170000277459621,-0.004310000222176313,0.34981998801231384
7002.885274086185,1685403.0,-0.02655000053346157,0.0033199999015778303,-0.002859999891370535,0.36250001192092896
7002.8862738584,1685404.0,-0.024890000000596046,-0.00267999991774559,-0.006399999838322401,0.3459799885749817
7002.887273630616,1685405.0,-0.023989999666810036,-0.0009500000160187483,0.0024500000290572643,0.36223000288009644
7002.888273402831,1685406.0,-0.023989999666810036,-0.004040000028908253,0.005539999809116125,0.35541000962257385
7002.889273175046,1685407.0,-0.02515999972820282,-0.008860000409185886,-0.0005000000237487257,0.3623200058937073
7002.890272947261,1685408.0,-0.024979999288916588,0.005770000163465738,0.0016799999866634607,0.34556999802589417
7002.891272719477,1685409.0,-0.024569999426603317,0.0010000000474974513,0.015209999866783619,0.3621399998664856
7002.892272491692,1685410.0,-0.025609999895095825,0.003590000094845891,0.01063000038266182,0.35627999901771545
7002.893272263907,1685411.0,-0.026009999215602875,0.0052200001664459705,0.003949999809265137,0.3571000099182129
7002.894272036123,1685412.0,-0.024080000817775726,0.0013200000394135714,0.0015399999683722854,0.3625899851322174
7002.895271808337,1685413.0,-0.023360000923275948,-0.003860000055283308,-0.0015899999998509884,0.35833999514579773
7002.896271580553,1685414.0,-0.021290000528097153,-0.005859999917447567,-0.0014100000262260437,0.35760000348091125
7002.897271352768,1685415.0,-0.015809999778866768,-0.0021299999207258224,-0.007309999782592058,0.36351001262664795
7002.898271124984,1685416.0,-0.007189999800175428,-0.0013599999947473407,-0.004040000028908253,0.3569200038909912
7002.899270897199,1685417.0,0.0016199999954551458,0.00031999999191612005,0.00203999993391335,0.3599399924278259
7002.900270669414,1685418.0,0.009700000286102295,-0.00494999997317791,-0.0010400000028312206,0.3576500117778778
7002.901270441629,1685419.0,0.01711999997496605,-0.0006399999838322401,-0.004860000219196081,0.3609899878501892
7002.9022702138445,1685420.0,0.023719999939203262,0.00418000016361475,-0.000910000002477318,0.35558998584747314
7002.90326998606,1685421.0,0.02785000018775463,0.004999999888241291,0.0016299999551847577,0.364329993724823
7002.904269758275,1685422.0,0.029069999232888222,0.006810000166296959,0.0044999998062849045,0.350600004196167
7002.905269530491,1685423.0,0.02785000018775463,-4.999999873689376e-05,0.002589999930933118,0.36419999599456787
7002.906269302705,1685424.0,0.024709999561309814,-0.001449999981559813,0.0044999998062849045,0.35774001479148865
7002.907269074921,1685425.0,0.019770000129938126,0.004129999782890081,0.002859999891370535,0.3630099892616272
7002.908268847136,1685426.0,0.016259999945759773,0.001769999973475933,-0.002319999970495701,0.35965999960899353
7002.909268619352,1685427.0,0.01384000014513731,0.00031999999191612005,-0.007720000110566616,0.36351001262664795
7002.910268391567,1685428.0,0.009519999846816063,0.006130000110715628,-0.008899999782443047,0.36021000146865845
7002.911268163782,1685429.0,0.0013000000035390258,0.0044999998062849045,-0.004449999891221523,0.3641499876976013
7002.912267935997,1685430.0,-0.008449999615550041,0.005590000189840794,-0.00949000008404255,0.3606700003147125
7002.9132677082125,1685431.0,-0.016939999535679817,0.00571999978274107,-0.008220000192523003,0.36136001348495483
7002.914267480428,1685432.0,-0.02507000043988228,0.0019499999471008778,-0.0019099999917671084,0.3619999885559082
7002.915267252643,1685433.0,-0.0335099995136261,0.001769999973475933,0.00031999999191612005,0.36190998554229736
7002.916267024859,1685434.0,-0.04349000006914139,-0.00418000016361475,-0.000859999970998615,0.364329993724823
7002.917266797073,1685435.0,-0.04932999983429909,-0.002319999970495701,-0.0051299999468028545,0.36002999544143677
7002.918266569289,1685436.0,-0.05211000144481659,-0.005489999894052744,0.011309999972581863,0.36653000116348267
7002.919266341504,1685437.0,-0.0530100017786026,-0.009990000165998936,0.006810000166296959,0.35499998927116394
7002.92026611372,1685438.0,-0.05463000014424324,-0.010350000113248825,0.004679999779909849,0.36785998940467834
7002.921265885935,1685439.0,-0.057590000331401825,-0.011309999972581863,-0.004679999779909849,0.35179001092910767
7002.92226565815,1685440.0,-0.06019999831914902,-0.005489999894052744,0.00031999999191612005,0.36945998668670654
7002.923265430365,1685441.0,-0.0627100020647049,0.0016799999866634607,0.006949999835342169,0.3623200058937073
7002.9242652025805,1685442.0,-0.06639999896287918,0.006130000110715628,0.007079999893903732,0.3681800067424774
7002.925264974796,1685443.0,-0.07116000354290009,0.0002699999895412475,0.008170000277459621,0.366349995136261
7002.926264747011,1685444.0,-0.07735999673604965,-0.0018599999602884054,0.007809999864548445,0.35861000418663025
7002.927264519227,1685445.0,-0.0846799984574318,0.004040000028908253,0.0044999998062849045,0.37018999457359314
7002.928264291441,1685446.0,-0.09155000001192093,0.007770000025629997,-0.006579999811947346,0.35471999645233154
7002.929264063657,1685447.0,-0.09847000241279602,0.007899999618530273,-0.009580000303685665,0.37018999457359314
7002.930263835872,1685448.0,-0.1035899966955185,0.010130000300705433,-0.008949999697506428,0.3532100021839142
7002.931263608088,1685449.0,-0.10843999683856964,0.008860000409185886,-0.008990000002086163,0.371289998292923
7002.932263380302,1685450.0,-0.11715999990701675,0.013989999890327454,-0.002589999930933118,0.3641499876976013
7002.933263152518,1685451.0,-0.12713000178337097,0.008310000412166119,0.0010000000474974513,0.37073999643325806
7002.934262924733,1685452.0,-0.13468000292778015,0.0021299999207258224,0.0030400000978261232,0.36726000905036926
7002.9352626969485,1685453.0,-0.1376899927854538,0.003539999946951866,-0.00044999999227002263,0.3576500117778778
7002.936262469164,1685454.0,-0.13558000326156616,-0.0036299999337643385,0.008220000192523003,0.3713400065898895
7002.937262241379,1685455.0,-0.12848000228405,-0.018209999427199364,0.010850000195205212,0.36653000116348267
7002.938262013594,1685456.0,-0.120169997215271,-0.015119999647140503,0.00014000000373926014,0.3660300076007843
7002.939261785809,1685457.0,-0.1123099997639656,-0.007899999618530273,-0.011760000139474869,0.3716599941253662
7002.940261558025,1685458.0,-0.10548000037670135,-0.0010000000474974513,-0.019029999151825905,0.36713001132011414
7002.94126133024,1685459.0,-0.0997299998998642,-0.007269999943673611,-0.005859999917447567,0.36250001192092896
7002.942261102456,1685460.0,-0.096220001578331,-0.004310000222176313,-0.005859999917447567,0.37307998538017273
7002.94326087467,1685461.0,-0.09442999958992004,0.005489999894052744,-0.009449999779462814,0.36524999141693115
7002.944260646886,1685462.0,-0.09168999642133713,0.007269999943673611,0.000910000002477318,0.3683600127696991
7002.945260419101,1685463.0,-0.08769000321626663,-0.0037700000684708357,0.01143999956548214,0.37018999457359314
7002.9462601913165,1685464.0,-0.08410000056028366,-0.00203999993391335,0.01489999983459711,0.36653000116348267
7002.947259963532,1685465.0,-0.08167000114917755,0.004269999917596579,0.002589999930933118,0.36570999026298523
7002.948259735747,1685466.0,-0.07924000173807144,0.005770000163465738,0.007579999975860119,0.36653000116348267
7002.949259507962,1685467.0,-0.07784999907016754,0.009720000438392162,0.01375999953597784,0.37073999643325806
7002.950259280177,1685468.0,-0.08009999990463257,0.01030999980866909,0.002360000042244792,0.36772000789642334
7002.951259052393,1685469.0,-0.08427999913692474,-0.0002300000051036477,-0.004629999864846468,0.36539000272750854
7002.952258824608,1685470.0,-0.08787000179290771,0.00203999993391335,-0.012310000136494637,0.3723900020122528
7002.953258596824,1685471.0,-0.09119000285863876,-4.999999873689376e-05,-0.008539999835193157,0.3657500147819519
7002.954258369038,1685472.0,-0.09437999874353409,0.0021299999207258224,-0.003000000026077032,0.366349995136261
7002.955258141254,1685473.0,-0.09452000260353088,-0.004900000058114529,-0.004410000052303076,0.37046998739242554
7002.956257913469,1685474.0,-0.090829998254776,-0.002589999930933118,-0.004540000110864639,0.3543500006198883
7002.957257685684,1685475.0,-0.08594000339508057,-0.0010400000028312206,-0.002360000042244792,0.3716599941253662
7002.9582574579,1685476.0,-0.07902000099420547,-0.003909999970346689,0.005950000137090683,0.36021000146865845
7002.959257230115,1685477.0,-0.07124999910593033,-0.002950000111013651,0.0044999998062849045,0.3693700134754181
7002.96025700233,1685478.0,-0.06339000165462494,-0.0031300000846385956,-0.001769999973475933,0.3569599986076355
7002.961256774545,1685479.0,-0.05714000016450882,0.004809999838471413,-0.004040000028908253,0.37220999598503113
7002.962256546761,1685480.0,-0.05319000035524368,0.006680000107735395,-0.0031799999997019768,0.354449987411499
7002.963256318976,1685481.0,-0.05057999864220619,0.00953999999910593,-0.004769999999552965,0.3709299862384796
7002.964256091192,1685482.0,-0.04608999937772751,0.006490000057965517,-0.003269999986514449,0.35701000690460205
7002.965255863406,1685483.0,-0.04142000153660774,0.009309999644756317,0.007579999975860119,0.3707900047302246
7002.966255635622,1685484.0,-0.038270000368356705,0.004629999864846468,0.007670000195503235,0.35701000690460205
7002.967255407837,1685485.0,-0.03711000084877014,0.003719999920576811,0.0012700000079348683,0.3686400055885315
7002.968255180052,1685486.0,-0.03733000159263611,0.003220000071451068,0.00535999983549118,0.36021000146865845
7002.969254952268,1685487.0,-0.037289999425411224,0.002630000002682209,0.003860000055283308,0.36827000975608826
7002.970254724483,1685488.0,-0.03773999959230423,0.009039999917149544,-0.004129999782890081,0.3635999858379364
7002.971254496698,1685489.0,-0.039170000702142715,0.004310000222176313,-0.0044999998062849045,0.36945998668670654
7002.972254268913,1685490.0,-0.04114999994635582,0.0017300000181421638,-0.012760000303387642,0.36465001106262207
7002.973254041129,1685491.0,-0.043219998478889465,-0.0002300000051036477,-0.006949999835342169,0.3634200096130371
7002.974253813344,1685492.0,-0.046629998832941055,-0.004310000222176313,0.001769999973475933,0.3686400055885315
7002.97525358556,1685493.0,-0.04698999971151352,-0.008860000409185886,0.004410000052303076,0.3624599874019623
7002.976253357774,1685494.0,-0.04383999854326248,-0.014209999702870846,0.008489999920129776,0.3646099865436554
7002.97725312999,1685495.0,-0.039889998733997345,-0.007899999618530273,-0.005489999894052744,0.36570999026298523
7002.978252902205,1685496.0,-0.03711000084877014,-0.00686000008136034,-0.012400000356137753,0.3635999858379364
7002.97925267442,1685497.0,-0.03198999911546707,-0.003719999920576811,-0.0017300000181421638,0.36333000659942627
7002.980252446636,1685498.0,-0.024529999122023582,-0.00014000000373926014,0.0015899999998509884,0.366349995136261
7002.981252218851,1685499.0,-0.016440000385046005,-0.0002300000051036477,0.00535999983549118,0.36278000473976135
7002.982251991066,1685500.0,-0.008799999952316284,-0.0028200000524520874,0.011219999752938747,0.36496999859809875
7002.983251763281,1685501.0,-0.004000000189989805,-0.00749000022187829,0.010850000195205212,0.3606700003147125
7002.984251535497,1685502.0,-0.0006699999794363976,-0.004679999779909849,0.0013599999947473407,0.3664900064468384
7002.985251307712,1685503.0,0.0031399999279528856,-0.0009500000160187483,-0.0006799999973736703,0.36103999614715576
7002.986251079928,1685504.0,0.004040000028908253,-9.000000136438757e-05,-0.0003600000054575503,0.35315999388694763
7002.987250852142,1685505.0,0.0008099999977275729,-0.0015899999998509884,-0.00044999999227002263,0.3534899950027466
7002.9882506243575,1685506.0,-0.0017099999822676182,0.007040000054985285,-0.00041000000783242285,0.35065001249313354
7002.989250396573,1685507.0,-0.0047599999234080315,0.007040000054985285,-0.002950000111013651,0.3492699861526489
7002.990250168788,1685508.0,-0.011049999855458736,0.005400000140070915,-0.002589999930933118,0.35965999960899353
7002.991249941004,1685509.0,-0.01800999976694584,0.01257999986410141,-0.0062699997797608376,0.36030998826026917
7002.992249713219,1685510.0,-0.0200399998575449,0.009039999917149544,0.0021299999207258224,0.3601199984550476
7002.993249485434,1685511.0,-0.016939999535679817,0.006130000110715628,0.007540000136941671,0.3616800010204315
7002.994249257649,1685512.0,-0.01095999963581562,0.003590000094845891,-0.0031300000846385956,0.3621399998664856
7002.995249029865,1685513.0,-0.004490000195801258,0.003719999920576811,-0.0033599999733269215,0.36465001106262207
7002.99624880208,1685514.0,0.003590000094845891,-0.0020000000949949026,0.000910000002477318,0.36423999071121216
7002.997248574295,1685515.0,0.014999999664723873,-0.007040000054985285,-0.000539999979082495,0.3605799973011017
7002.99824834651,1685516.0,0.02776000089943409,-0.007309999782592058,-0.008630000054836273,0.3581100106239319
7002.9992481187255,1685517.0,0.04042999818921089,0.00014000000373926014,-0.012079999782145023,0.3551799952983856
7003.000247890941,1685518.0,0.051750000566244125,-0.0034099998883903027,-0.010080000385642052,0.3474400043487549
7003.001247663156,1685519.0,0.0631600022315979,-0.001500000013038516,-0.0045900000259280205,0.34560999274253845
7003.002247435372,1685520.0,0.07232999801635742,-0.0035000001080334187,0.00031999999191612005,0.34602001309394836
7003.003247207586,1685521.0,0.08104000240564346,0.005179999861866236,0.006130000110715628,0.3552199900150299
7003.004246979802,1685522.0,0.09020999819040298,0.0010900000343099236,0.007400000002235174,0.356689989566803
7003.005246752017,1685523.0,0.09810999780893326,-0.006399999838322401,0.008580000139772892,0.35774001479148865
7003.006246524233,1685524.0,0.1026500016450882,-0.0006399999838322401,0.0008200000156648457,0.35774001479148865
7003.007246296448,1685525.0,0.10552000254392624,0.0052200001664459705,0.008449999615550041,0.35861000418663025
7003.008246068663,1685526.0,0.10772000253200531,-0.0010400000028312206,0.003809999907389283,0.3592100143432617
7003.009245840878,1685527.0,0.1103300005197525,-0.0009500000160187483,-0.0035000001080334187,0.3549500107765198
7003.0102456130935,1685528.0,0.1114099994301796,0.001769999973475933,-0.007809999864548445,0.3451099991798401
7003.011245385309,1685529.0,0.11131999641656876,0.002950000111013651,-0.011900000274181366,0.35297998785972595
7003.012245157524,1685530.0,0.10870999842882156,0.00031999999191612005,-0.0022299999836832285,0.3559100031852722
7003.01324492974,1685531.0,0.10430999845266342,-0.002319999970495701,-0.0007300000288523734,0.35541000962257385
7003.014244701954,1685532.0,0.10063000023365021,-0.0064500002190470695,0.0010000000474974513,0.3472599983215332
7003.01524447417,1685533.0,0.09649000316858292,-0.00749000022187829,0.0010400000028312206,0.3495500087738037
7003.016244246385,1685534.0,0.09325999766588211,-0.012489999644458294,0.002859999891370535,0.3533500134944916
7003.017244018601,1685535.0,0.08922000229358673,-0.003539999946951866,0.0014100000262260437,0.34946000576019287
7003.018243790816,1685536.0,0.0869700014591217,-0.0033599999733269215,0.0016799999866634607,0.3488599956035614
7003.019243563031,1685537.0,0.08657000213861465,-0.004769999999552965,0.003220000071451068,0.3538999855518341
7003.020243335246,1685538.0,0.0869700014591217,-0.0002300000051036477,0.0019099999917671084,0.34749001264572144
7003.0212431074615,1685539.0,0.08917000144720078,0.008310000412166119,0.00031999999191612005,0.34602001309394836
7003.022242879677,1685540.0,0.0894400030374527,0.00494999997317791,-0.001769999973475933,0.3518800139427185
7003.023242651892,1685541.0,0.08940000087022781,0.006539999973028898,-0.002589999930933118,0.33562999963760376
7003.024242424108,1685542.0,0.09200000017881393,0.011939999647438526,-0.005270000081509352,0.3451099991798401
7003.025242196322,1685543.0,0.09425000101327896,0.008170000277459621,-0.002319999970495701,0.3496899902820587
7003.026241968538,1685544.0,0.0952799990773201,0.002950000111013651,-0.0014100000262260437,0.3435499966144562
7003.027241740753,1685545.0,0.09825000166893005,-0.00203999993391335,-0.006949999835342169,0.3430899977684021
7003.028241512969,1685546.0,0.09937000274658203,0.003909999970346689,-0.004269999917596579,0.3439599871635437
7003.029241285184,1685547.0,0.09967999905347824,-0.0011399999493733048,0.003909999970346689,0.34488001465797424
7003.030241057399,1685548.0,0.10053999722003937,0.004129999782890081,0.005040000192821026,0.3421800136566162
7003.031240829614,1685549.0,0.09798000007867813,0.009399999864399433,0.006130000110715628,0.3430899977684021
7003.0322406018295,1685550.0,0.09523999691009521,0.006130000110715628,0.009259999729692936,0.3401600122451782
7003.033240374045,1685551.0,0.091279998421669,-0.0033599999733269215,0.015350000001490116,0.34099000692367554
7003.03424014626,1685552.0,0.08912999927997589,-0.00494999997317791,0.01375999953597784,0.34125998616218567
7003.035239918476,1685553.0,0.08634000271558762,-0.00749000022187829,0.004679999779909849,0.3374600112438202
7003.03623969069,1685554.0,0.08534999936819077,-0.0031300000846385956,-0.005489999894052744,0.3430899977684021
7003.037239462906,1685555.0,0.08657000213861465,-0.0022299999836832285,-0.011309999972581863,0.3360399901866913
7003.038239235121,1685556.0,0.08822999894618988,-0.0002300000051036477,-0.01298999972641468,0.33649998903274536
7003.039239007337,1685557.0,0.09029000252485275,-0.00203999993391335,-0.009850000031292439,0.3386499881744385
7003.040238779552,1685558.0,0.09119000285863876,-0.0013200000394135714,-0.013489999808371067,0.33463001251220703
7003.041238551767,1685559.0,0.08985000103712082,0.00018000000272877514,-0.012129999697208405,0.33664000034332275
7003.042238323982,1685560.0,0.08930999785661697,-0.00031999999191612005,-0.013810000382363796,0.3342599868774414
7003.0432380961975,1685561.0,0.08912999927997589,0.002409999957308173,0.005400000140070915,0.33504000306129456
7003.044237868413,1685562.0,0.08634000271558762,0.003539999946951866,0.008449999615550041,0.3352699875831604
7003.045237640628,1685563.0,0.08139999955892563,0.004129999782890081,0.006130000110715628,0.3295400142669678
7003.046237412844,1685564.0,0.07609999924898148,0.003220000071451068,0.008580000139772892,0.33636000752449036
7003.047237185058,1685565.0,0.07294999808073044,-0.0022700000554323196,0.00795000046491623,0.3196600079536438
7003.048236957274,1685566.0,0.07026000320911407,-0.0011399999493733048,0.006399999838322401,0.3339399993419647
7003.049236729489,1685567.0,0.06797000020742416,0.004310000222176313,0.007770000025629997,0.3284499943256378
7003.050236501705,1685568.0,0.06451000273227692,0.006089999806135893,0.00031999999191612005,0.3303700089454651
7003.05123627392,1685569.0,0.05984000116586685,0.0022700000554323196,0.001449999981559813,0.3278999924659729
7003.052236046135,1685570.0,0.054579999297857285,0.005590000189840794,-0.009630000218749046,0.3258399963378906
7003.05323581835,1685571.0,0.05112000182271004,0.009990000165998936,-0.012849999591708183,0.3275800049304962
7003.054235590565,1685572.0,0.046810001134872437,0.0031300000846385956,-0.008899999782443047,0.3238700032234192
7003.055235362781,1685573.0,0.04244999960064888,0.002360000042244792,-0.01071999967098236,0.32697999477386475
7003.056235134996,1685574.0,0.04024999961256981,-0.0016799999866634607,-0.01448999997228384,0.32135000824928284
7003.057234907212,1685575.0,0.039170000702142715,-0.004040000028908253,-0.003000000026077032,0.32592999935150146
7003.058234679426,1685576.0,0.03822999820113182,-0.011309999972581863,0.00880999956279993,0.314300000667572
7003.059234451642,1685577.0,0.037780001759529114,-0.017480000853538513,0.007860000245273113,0.3267500102519989
7003.060234223857,1685578.0,0.037379998713731766,-0.00913000013679266,0.008949999697506428,0.3100399971008301
7003.061233996073,1685579.0,0.036159999668598175,-0.009949999861419201,0.011490000411868095,0.32464998960494995
7003.062233768287,1685580.0,0.03539999946951866,-0.005859999917447567,0.002859999891370535,0.3184700012207031
7003.063233540503,1685581.0,0.03440999984741211,-0.00044999999227002263,-0.0010000000474974513,0.32245001196861267
7003.064233312718,1685582.0,0.03305999934673309,0.003949999809265137,-0.003949999809265137,0.3170900046825409
7003.065233084933,1685583.0,0.03449999913573265,0.009399999864399433,0.0,0.3144800066947937
7003.066232857149,1685584.0,0.03539999946951866,0.007400000002235174,-0.014440000057220459,0.32102999091148376
7003.067232629364,1685585.0,0.034949999302625656,0.008310000412166119,-0.009669999592006207,0.3159500062465668
7003.068232401579,1685586.0,0.03058999963104725,0.006130000110715628,-0.0013200000394135714,0.3062399923801422
7003.069232173794,1685587.0,0.025429999455809593,0.004129999782890081,-0.004410000052303076,0.31613001227378845
7003.07023194601,1685588.0,0.02281999960541725,0.007579999975860119,-0.00041000000783242285,0.3108699917793274
7003.071231718225,1685589.0,0.019770000129938126,0.0022299999836832285,0.001500000013038516,0.31558001041412354
7003.072231490441,1685590.0,0.015990000218153,0.003590000094845891,-0.0019499999471008778,0.3101300001144409
7003.073231262655,1685591.0,0.012889999896287918,0.004129999782890081,0.0076299998909235,0.31380000710487366
7003.0742310348705,1685592.0,0.009340000338852406,0.0028200000524520874,0.009990000165998936,0.3079400062561035
7003.075230807086,1685593.0,0.0037700000684708357,-0.0064500002190470695,0.015030000358819962,0.31255999207496643
7003.076230579301,1685594.0,0.0008099999977275729,-0.014940000139176846,0.01689000055193901,0.2974500060081482
7003.077230351517,1685595.0,0.0006300000241026282,-0.015399999916553497,-0.00041000000783242285,0.31224000453948975
7003.078230123732,1685596.0,0.002520000096410513,-0.012489999644458294,-0.009759999811649323,0.29809999465942383
7003.079229895947,1685597.0,0.006060000043362379,-0.008860000409185886,-0.0008200000156648457,0.3098599910736084
7003.080229668162,1685598.0,0.010239999741315842,0.0013200000394135714,-0.006399999838322401,0.2948000133037567
7003.081229440378,1685599.0,0.01131999958306551,0.005179999861866236,-0.013849999755620956,0.3078500032424927
7003.082229212593,1685600.0,0.009569999761879444,0.006130000110715628,-0.010490000247955322,0.30079999566078186
7003.083228984809,1685601.0,0.007369999773800373,0.005950000137090683,0.003860000055283308,0.30432000756263733
7003.084228757023,1685602.0,0.005570000037550926,0.010759999975562096,0.0015899999998509884,0.3020800054073334
7003.0852285292385,1685603.0,0.006060000043362379,0.005770000163465738,-0.006219999864697456,0.2982800006866455
7003.086228301454,1685604.0,0.008449999615550041,0.002630000002682209,-0.0030400000978261232,0.30112001299858093
7003.087228073669,1685605.0,0.009700000286102295,0.0030900000128895044,0.009399999864399433,0.2972300052642822
7003.088227845885,1685606.0,0.008940000087022781,0.002319999970495701,0.0034099998883903027,0.30070000886917114
7003.0892276181,1685607.0,0.00610999995842576,0.004220000002533197,0.001500000013038516,0.29387998580932617
7003.090227390315,1685608.0,0.0018899999558925629,0.009039999917149544,0.011350000277161598,0.3000200092792511
7003.09122716253,1685609.0,-0.0036800000816583633,0.009309999644756317,0.008630000054836273,0.2906799912452698
7003.092226934746,1685610.0,-0.008630000054836273,0.0064500002190470695,0.005309999920427799,0.29877999424934387
7003.093226706961,1685611.0,-0.0142000000923872,0.0035000001080334187,-0.00686000008136034,0.2836799919605255
7003.0942264791765,1685612.0,-0.01931999996304512,0.00031999999191612005,-0.003949999809265137,0.29767999053001404
7003.095226251391,1685613.0,-0.023760000243782997,-0.0035000001080334187,-0.007309999782592058,0.29072999954223633
7003.0962260236065,1685614.0,-0.024979999288916588,-0.003719999920576811,-0.004679999779909849,0.294979989528656
7003.097225795822,1685615.0,-0.022690000012516975,-0.005590000189840794,-0.00949000008404255,0.29100000858306885
7003.098225568037,1685616.0,-0.01769999973475933,-0.008220000192523003,-0.000590000010561198,0.2874299883842468
7003.099225340253,1685617.0,-0.01271000038832426,-0.00875999964773655,0.0010400000028312206,0.2923299968242645
7003.100225112468,1685618.0,-0.007369999773800373,-0.01334999967366457,0.00031999999191612005,0.2780900001525879
7003.101224884683,1685619.0,-0.0017099999822676182,-0.013120000250637531,-0.002360000042244792,0.29054000973701477
7003.102224656898,1685620.0,0.00215999991632998,0.00031999999191612005,-0.0033199999015778303,0.28898999094963074
7003.103224429114,1685621.0,0.005929999984800816,0.003719999920576811,0.003220000071451068,0.2828499972820282
7003.104224201329,1685622.0,0.009569999761879444,-0.001500000013038516,-0.0013200000394135714,0.28944000601768494
7003.1052239735445,1685623.0,0.014469999819993973,0.0037700000684708357,0.0009500000160187483,0.28450000286102295
7003.106223745759,1685624.0,0.017559999600052834,0.003220000071451068,0.005590000189840794,0.2826699912548065
7003.1072235179745,1685625.0,0.01761000044643879,0.00018000000272877514,9.000000136438757e-05,0.2874299883842468
7003.10822329019,1685626.0,0.015809999778866768,0.00014000000373926014,0.00018000000272877514,0.27305999398231506
7003.109223062405,1685627.0,0.01384000014513731,0.008080000057816505,0.011939999647438526,0.28692999482154846
7003.110222834621,1685628.0,0.012439999729394913,0.009399999864399433,0.004860000219196081,0.27237001061439514
7003.111222606836,1685629.0,0.008270000107586384,0.003949999809265137,-0.00041000000783242285,0.28536999225616455
7003.112222379051,1685630.0,0.004670000169426203,0.006039999891072512,-0.0008200000156648457,0.27063000202178955
7003.113222151266,1685631.0,0.0017099999822676182,0.0008200000156648457,-0.0002699999895412475,0.27827000617980957
7003.114221923482,1685632.0,-0.002520000096410513,-0.0007699999841861427,-0.007400000002235174,0.28303998708724976
7003.115221695697,1685633.0,-0.005750000011175871,-0.00044999999227002263,-0.007809999864548445,0.27639999985694885
7003.1162214679125,1685634.0,-0.007189999800175428,0.0024999999441206455,-0.0033599999733269215,0.27570998668670654
7003.117221240127,1685635.0,-0.007819999940693378,4.999999873689376e-05,-0.006949999835342169,0.2799699902534485
7003.1182210123425,1685636.0,-0.007910000160336494,-0.0044999998062849045,-0.004040000028908253,0.2676500082015991
7003.119220784558,1685637.0,-0.005659999791532755,-0.003000000026077032,-0.004629999864846468,0.27932998538017273
7003.120220556773,1685638.0,-0.0012600000482052565,-0.002090000081807375,0.0030900000128895044,0.2746100127696991
7003.121220328989,1685639.0,0.0027000000700354576,0.0002300000051036477,0.00686000008136034,0.27195999026298523
7003.122220101204,1685640.0,0.005840000230818987,0.00203999993391335,0.0021299999207258224,0.27570998668670654
7003.123219873419,1685641.0,0.006289999932050705,0.0052200001664459705,0.002360000042244792,0.26802000403404236
7003.124219645634,1685642.0,0.0052999998442828655,0.006130000110715628,0.009309999644756317,0.2749300003051758
7003.12521941785,1685643.0,0.0036800000816583633,0.006130000110715628,0.0045900000259280205,0.2683899998664856
7003.126219190065,1685644.0,0.0024300001095980406,0.006039999891072512,0.0002699999895412475,0.27309998869895935
7003.12721896228,1685645.0,0.0017099999822676182,0.003000000026077032,-0.001230000052601099,0.2661899924278259
7003.128218734495,1685646.0,-0.0003600000054575503,0.00031999999191612005,-0.0011399999493733048,0.2745699882507324
7003.1292185067105,1685647.0,-0.0014400000218302011,0.0016799999866634607,-4.999999873689376e-05,0.2612900137901306
7003.130218278926,1685648.0,-0.0014400000218302011,0.0010400000028312206,-0.005489999894052744,0.27035999298095703
7003.131218051141,1685649.0,-0.0020699999295175076,0.003449999960139394,-0.002589999930933118,0.26774999499320984
7003.132217823357,1685650.0,-0.004220000002533197,0.00031999999191612005,0.0013599999947473407,0.26399001479148865
7003.133217595571,1685651.0,-0.0088900001719594,-0.0028200000524520874,0.00014000000373926014,0.2678399980068207
7003.134217367787,1685652.0,-0.013659999705851078,-0.0011399999493733048,-0.0016799999866634607,0.26344001293182373
7003.135217140002,1685653.0,-0.016580000519752502,-0.002950000111013651,-0.0036299999337643385,0.26833999156951904
7003.136216912218,1685654.0,-0.018780000507831573,-0.010040000081062317,-0.001500000013038516,0.256989985704422
7003.137216684433,1685655.0,-0.019449999555945396,-0.01711999997496605,-0.003449999960139394,0.2669200003147125
7003.138216456648,1685656.0,-0.018869999796152115,-0.010579999536275864,-0.002409999957308173,0.2527799904346466
7003.139216228863,1685657.0,-0.016440000385046005,-0.0072200000286102295,-0.0013599999947473407,0.26471999287605286
7003.140216001078,1685658.0,-0.011590000241994858,-0.0036800000816583633,0.0045900000259280205,0.2581300139427185
7003.141215773294,1685659.0,-0.007139999885112047,0.004129999782890081,0.0019099999917671084,0.26151999831199646
7003.142215545509,1685660.0,-0.0035000001080334187,0.0031300000846385956,-0.005810000002384186,0.2574000060558319
7003.143215317725,1685661.0,-0.0023399998899549246,0.005400000140070915,-0.0011399999493733048,0.25995999574661255
7003.144215089939,1685662.0,-0.0030499999411404133,0.005770000163465738,-0.0007699999841861427,0.2555199861526489
7003.145214862155,1685663.0,-0.005030000116676092,0.006130000110715628,0.0,0.2581300139427185
7003.14621463437,1685664.0,-0.008270000107586384,0.001769999973475933,0.0022299999836832285,0.2559399902820587
7003.147214406586,1685665.0,-0.01131999958306551,0.004449999891221523,0.0044999998062849045,0.2571699917316437
7003.148214178801,1685666.0,-0.014550000429153442,0.006130000110715628,0.0010400000028312206,0.2536500096321106
7003.149213951016,1685667.0,-0.018459999933838844,0.001769999973475933,0.0021299999207258224,0.2581300139427185
7003.150213723231,1685668.0,-0.021379999816417694,0.005539999809116125,0.000859999970998615,0.25227001309394836
7003.151213495446,1685669.0,-0.024979999288916588,0.007670000195503235,-0.0027199999894946814,0.2507599890232086
7003.152213267662,1685670.0,-0.029020000249147415,0.004629999864846468,-0.0006399999838322401,0.2565299868583679
7003.153213039877,1685671.0,-0.0350399985909462,0.0021299999207258224,-0.000859999970998615,0.2522299885749817
7003.154212812093,1685672.0,-0.04438000172376633,-0.0010400000028312206,0.0010400000028312206,0.2497600018978119
7003.155212584307,1685673.0,-0.054990001022815704,-9.000000136438757e-05,0.00418000016361475,0.25044000148773193
7003.156212356523,1685674.0,-0.06486999988555908,-0.002950000111013651,0.008489999920129776,0.24669000506401062
7003.157212128738,1685675.0,-0.07547000050544739,-0.002630000002682209,-0.0022299999836832285,0.2503100037574768
7003.158211900954,1685676.0,-0.08597999811172485,0.00014000000373926014,-0.019850000739097595,0.2454500049352646
7003.159211673169,1685677.0,-0.09505999833345413,-0.00041000000783242285,-0.021619999781250954,0.24842999875545502
7003.1602114453835,1685678.0,-0.10162000358104706,0.004360000137239695,-0.012310000136494637,0.24494999647140503
7003.161211217599,1685679.0,-0.10798999667167664,0.00535999983549118,0.004860000219196081,0.24838000535964966
7003.162210989814,1685680.0,-0.11392000317573547,0.006810000166296959,0.012489999644458294,0.24187999963760376
7003.16321076203,1685681.0,-0.12101999670267105,0.005770000163465738,0.018850000575184822,0.24724000692367554
7003.164210534245,1685682.0,-0.13117000460624695,0.005040000192821026,0.022840000689029694,0.24201999604701996
7003.165210306461,1685683.0,-0.1464499980211258,-0.005489999894052744,0.010850000195205212,0.24605000019073486
7003.166210078675,1685684.0,-0.16234999895095825,0.004679999779909849,0.00018000000272877514,0.23969000577926636
7003.167209850891,1685685.0,-0.17622999846935272,-0.0020000000949949026,0.0007699999841861427,0.24192999303340912
7003.168209623106,1685686.0,-0.1870100051164627,-0.00839999970048666,0.006130000110715628,0.23914000391960144
7003.169209395322,1685687.0,-0.19540999829769135,-0.012810000218451023,0.003220000071451068,0.24347999691963196
7003.170209167537,1685688.0,-0.2045300006866455,-0.022339999675750732,0.007540000136941671,0.23176999390125275
7003.1712089397515,1685689.0,-0.21292999386787415,-0.018209999427199364,-0.017480000853538513,0.23885999619960785
7003.172208711967,1685690.0,-0.21994000673294067,-0.0021299999207258224,-0.028880000114440918,0.2396399974822998
7003.173208484182,1685691.0,-0.22330999374389648,0.0031799999997019768,-0.015799999237060547,0.23552000522613525
7003.174208256398,1685692.0,-0.2215999960899353,0.0019499999471008778,-0.004999999888241291,0.2390899956226349
7003.175208028613,1685693.0,-0.21616999804973602,0.006680000107735395,-0.0021800000686198473,0.2338699996471405
7003.176207800829,1685694.0,-0.20601999759674072,0.0007300000288523734,-0.0006799999973736703,0.2403700053691864
7003.177207573043,1685695.0,-0.19226999580860138,0.002319999970495701,0.0030900000128895044,0.22641000151634216
7003.178207345259,1685696.0,-0.17574000358581543,-0.0010900000343099236,0.0129399998113513,0.23836000263690948
7003.179207117474,1685697.0,-0.15731999278068542,0.0027699999045580626,0.00749000022187829,0.22943000495433807
7003.1802068896895,1685698.0,-0.13423000276088715,0.009759999811649323,0.008670000359416008,0.23611000180244446
7003.181206661905,1685699.0,-0.10925000160932541,0.007040000054985285,0.0036800000816583633,0.23021000623703003
7003.1822064341195,1685700.0,-0.08085999637842178,0.010490000247955322,-0.0062699997797608376,0.23377999663352966
7003.183206206335,1685701.0,-0.0514799989759922,0.0035000001080334187,0.00018000000272877514,0.22833000123500824
7003.18420597855,1685702.0,-0.018459999933838844,0.007449999917298555,0.0029100000392645597,0.2324099987745285
7003.185205750766,1685703.0,0.018689999356865883,0.004089999943971634,0.0007699999841861427,0.22774000465869904
7003.186205522981,1685704.0,0.06204000115394592,0.005770000163465738,-0.0008200000156648457,0.23103000223636627
7003.187205295197,1685705.0,0.10367999970912933,0.003590000094845891,-0.003269999986514449,0.2256300002336502
7003.188205067411,1685706.0,0.1362999975681305,0.001500000013038516,0.00031999999191612005,0.21866999566555023
7003.189204839627,1685707.0,0.15939000248908997,0.002090000081807375,-0.0012700000079348683,0.23021000623703003
7003.190204611842,1685708.0,0.17016999423503876,0.0024999999441206455,-0.01370999962091446,0.2257699966430664
7003.1912043840575,1685709.0,0.17044000327587128,0.003220000071451068,-0.014030000194907188,0.2184000015258789
7003.192204156272,1685710.0,0.1676499992609024,0.003809999907389283,-0.004629999864846468,0.22800999879837036
7003.1932039284875,1685711.0,0.17462000250816345,0.0013200000394135714,0.004720000084489584,0.22366000711917877
7003.194203700703,1685712.0,0.18859000504016876,0.00018000000272877514,0.011900000274181366,0.22325000166893005
7003.195203472918,1685713.0,0.20884999632835388,-0.001500000013038516,0.003860000055283308,0.2273699939250946
7003.196203245134,1685714.0,0.22982999682426453,-0.006130000110715628,-0.0018599999602884054,0.21605999767780304
7003.197203017349,1685715.0,0.24420000612735748,-0.004860000219196081,0.010990000329911709,0.2249000072479248
7003.198202789564,1685716.0,0.25641998648643494,-0.00014000000373926014,0.00686000008136034,0.21895000338554382
7003.199202561779,1685717.0,0.27178001403808594,-0.0024500000290572643,-0.0002300000051036477,0.22150999307632446
7003.200202333995,1685718.0,0.28575000166893005,-0.009259999729692936,0.011900000274181366,0.22146999835968018
7003.20120210621,1685719.0,0.29388999938964844,-0.01066999975591898,0.004310000222176313,0.21881000697612762
7003.2022018784255,1685720.0,0.29423999786376953,-0.0062699997797608376,-0.0037700000684708357,0.2218800038099289
7003.20320165064,1685721.0,0.2847200036048889,0.00031999999191612005,-0.0011399999493733048,0.21126000583171844
7003.2042014228555,1685722.0,0.2745699882507324,0.0051299999468028545,-0.007180000189691782,0.22211000323295593
7003.205201195071,1685723.0,0.2682799994945526,0.006130000110715628,-0.014209999702870846,0.21126000583171844
7003.206200967286,1685724.0,0.2618100047111511,0.0033599999733269215,-0.011760000139474869,0.21950000524520874
7003.207200739502,1685725.0,0.25718000531196594,0.0014100000262260437,-0.00014000000373926014,0.21748000383377075
7003.208200511717,1685726.0,0.25211000442504883,-0.0017300000181421638,0.006130000110715628,0.21212999522686005
7003.209200283932,1685727.0,0.24958999454975128,0.00014000000373926014,0.0036299999337643385,0.21657000482082367
7003.210200056147,1685728.0,0.24922999739646912,0.002630000002682209,-0.003909999970346689,0.21396000683307648
7003.211199828363,1685729.0,0.24029000103473663,0.00031999999191612005,0.003220000071451068,0.21390999853610992
7003.212199600578,1685730.0,0.21890999376773834,0.004900000058114529,0.0036299999337643385,0.2171200066804886
7003.2131993727935,1685731.0,0.19245000183582306,0.005090000107884407,0.007860000245273113,0.2051199972629547
7003.214199145008,1685732.0,0.16553999483585358,0.0024500000290572643,-0.002090000081807375,0.21528999507427216
7003.2151989172235,1685733.0,0.1398400068283081,0.002090000081807375,-0.013849999755620956,0.20755000412464142
7003.216198689439,1685734.0,0.11355999857187271,0.00031999999191612005,-0.011260000057518482,0.212909996509552
7003.217198461654,1685735.0,0.0895799994468689,-0.0015899999998509884,-0.004040000028908253,0.20795999467372894
7003.21819823387,1685736.0,0.06836999952793121,-0.00203999993391335,-0.008449999615550041,0.21126000583171844
7003.219198006085,1685737.0,0.05012999847531319,0.0009500000160187483,-0.0025400000158697367,0.20654000341892242
7003.2201977783,1685738.0,0.03589000180363655,-0.001500000013038516,0.00031999999191612005,0.21065999567508698
7003.221197550515,1685739.0,0.025340000167489052,0.0024999999441206455,-0.003539999946951866,0.2110700011253357
7003.222197322731,1685740.0,0.01689000055193901,0.0015399999683722854,-0.009580000303685665,0.2120800018310547
7003.223197094946,1685741.0,0.009879999794065952,4.999999873689376e-05,-0.009850000031292439,0.2046699970960617
7003.2241968671615,1685742.0,0.0016199999954551458,0.002859999891370535,-0.004040000028908253,0.20118999481201172
7003.225196639376,1685743.0,-0.0083600003272295,-0.001449999981559813,0.011939999647438526,0.19899000227451324
7003.226196411591,1685744.0,-0.016130000352859497,0.0022700000554323196,0.021709999069571495,0.1980700045824051
7003.227196183807,1685745.0,-0.01860000006854534,0.003220000071451068,0.014399999752640724,0.198170006275177
7003.228195956022,1685746.0,-0.016939999535679817,0.003590000094845891,0.012350000441074371,0.20494000613689423
7003.229195728238,1685747.0,-0.014329999685287476,0.00203999993391335,0.018799999728798866,0.20589999854564667
7003.230195500453,1685748.0,-0.0142000000923872,0.002319999970495701,0.010040000081062317,0.2064100056886673
7003.231195272668,1685749.0,-0.014999999664723873,0.0018599999602884054,0.005400000140070915,0.20635999739170074
7003.232195044883,1685750.0,-0.016850000247359276,-0.003860000055283308,0.01408000010997057,0.20356999337673187
7003.233194817099,1685751.0,-0.019500000402331352,-0.00880999956279993,-0.005090000107884407,0.1989399939775467
7003.234194589314,1685752.0,-0.022779999300837517,-0.007400000002235174,-0.015300000086426735,0.1983499974012375
7003.2351943615295,1685753.0,-0.02848000079393387,-0.00041000000783242285,-0.013220000080764294,0.19678999483585358
7003.236194133744,1685754.0,-0.03432000055909157,0.000859999970998615,-0.02206999994814396,0.19514000415802002
7003.237193905959,1685755.0,-0.03432000055909157,0.002950000111013651,-0.03020000085234642,0.19294999539852142
7003.238193678175,1685756.0,-0.03288000077009201,0.003949999809265137,-0.023800000548362732,0.19075000286102295
7003.23919345039,1685757.0,-0.028839999809861183,0.004629999864846468,-0.0052200001664459705,0.19075000286102295
7003.240193222606,1685758.0,-0.02232999913394451,-0.004040000028908253,0.008080000057816505,0.19075000286102295
7003.241192994821,1685759.0,-0.01689000055193901,-0.004629999864846468,0.014120000414550304,0.1978899985551834
7003.242192767036,1685760.0,-0.0142000000923872,-0.005489999894052744,-0.0059899999760091305,0.1966100037097931
7003.243192539251,1685761.0,-0.015629999339580536,-0.0019499999471008778,0.006130000110715628,0.19665999710559845
7003.244192311467,1685762.0,-0.01671000011265278,-0.00839999970048666,0.012670000083744526,0.19652000069618225
7003.245192083682,1685763.0,-0.015449999831616879,-0.0016799999866634607,0.0010000000474974513,0.19753000140190125
7003.246191855897,1685764.0,-0.0142000000923872,0.004220000002533197,-0.006039999891072512,0.19623999297618866
7003.247191628112,1685765.0,-0.014510000124573708,0.006130000110715628,0.010850000195205212,0.1962900012731552
7003.248191400327,1685766.0,-0.016039999201893806,-0.005950000137090683,0.010850000195205212,0.19555999338626862
7003.249191172543,1685767.0,-0.018330000340938568,-0.007269999943673611,0.0027699999045580626,0.19619999825954437
7003.250190944758,1685768.0,-0.020749999210238457,-0.0016299999551847577,0.0027699999045580626,0.1966100037097931
7003.251190716974,1685769.0,-0.025019999593496323,0.0018599999602884054,-0.0015899999998509884,0.19710999727249146
7003.252190489189,1685770.0,-0.02865999937057495,-0.00839999970048666,0.004679999779909849,0.19779999554157257
7003.253190261404,1685771.0,-0.03413999825716019,-0.006089999806135893,0.007180000189691782,0.1966100037097931
7003.254190033619,1685772.0,-0.03872000053524971,-0.004679999779909849,-0.000859999970998615,0.19469000399112701
7003.255189805835,1685773.0,-0.04222999885678291,0.006130000110715628,-0.0022700000554323196,0.19271999597549438
7003.25618957805,1685774.0,-0.0408799983561039,-0.004040000028908253,-0.008449999615550041,0.18782000243663788
7003.2571893502645,1685775.0,-0.037379998713731766,0.007540000136941671,-0.006089999806135893,0.18782000243663788
7003.25818912248,1685776.0,-0.034949999302625656,0.009399999864399433,-0.006579999811947346,0.18599000573158264
7003.259188894695,1685777.0,-0.03215999901294708,0.007180000189691782,-0.0062699997797608376,0.185029998421669
7003.260188666911,1685778.0,-0.029239999130368233,0.007540000136941671,-0.0022700000554323196,0.19075000286102295
7003.261188439126,1685779.0,-0.025699999183416367,0.005770000163465738,0.005040000192821026,0.1912499964237213
7003.262188211342,1685780.0,-0.022690000012516975,0.004000000189989805,-0.006949999835342169,0.19185000658035278
7003.263187983556,1685781.0,-0.025200000032782555,0.010449999943375587,-0.025839999318122864,0.19185000658035278
7003.264187755772,1685782.0,-0.029559999704360962,0.00571999978274107,-0.03020000085234642,0.19271999597549438
7003.265187527987,1685783.0,-0.030500000342726707,0.007180000189691782,-0.017480000853538513,0.1923999935388565
7003.266187300203,1685784.0,-0.028389999642968178,0.007360000163316727,-0.0022700000554323196,0.18974000215530396
7003.267187072418,1685785.0,-0.02507000043988228,0.006130000110715628,0.012350000441074371,0.18745000660419464
7003.2681868446325,1685786.0,-0.023269999772310257,0.004540000110864639,0.028109999373555183,0.18525999784469604
7003.269186616848,1685787.0,-0.023900000378489494,0.00031999999191612005,0.03446999937295914,0.1843400001525879
7003.270186389063,1685788.0,-0.025520000606775284,0.00014000000373926014,0.025019999593496323,0.18196000158786774
7003.271186161279,1685789.0,-0.028839999809861183,-0.004720000084489584,0.023569999262690544,0.17903000116348267
7003.272185933494,1685790.0,-0.03440999984741211,-0.00839999970048666,0.03401000052690506,0.18740999698638916
7003.27318570571,1685791.0,-0.04100999981164932,-0.00839999970048666,0.015350000001490116,0.19016000628471375
7003.274185477924,1685792.0,-0.04816000163555145,-0.005489999894052744,-0.002630000002682209,0.18196000158786774
7003.27518525014,1685793.0,-0.054990001022815704,-0.007670000195503235,-0.017710000276565552,0.17949000000953674
7003.276185022355,1685794.0,-0.060920000076293945,-0.00203999993391335,-0.028379999101161957,0.18538999557495117
7003.2771847945705,1685795.0,-0.06536000221967697,-0.000859999970998615,-0.01730000041425228,0.18782000243663788
7003.278184566786,1685796.0,-0.06639999896287918,-0.0002300000051036477,-0.023070000112056732,0.1818699985742569
7003.2791843390005,1685797.0,-0.06504999846220016,0.003220000071451068,-0.023159999400377274,0.178849995136261
7003.280184111216,1685798.0,-0.061719998717308044,0.006579999811947346,-0.012260000221431255,0.18264999985694885
7003.281183883431,1685799.0,-0.05951999872922897,0.0031799999997019768,0.0014100000262260437,0.18521000444889069
7003.282183655647,1685800.0,-0.05861999839544296,0.00203999993391335,0.015990000218153,0.18708999454975128
7003.283183427862,1685801.0,-0.05795000120997429,0.00031999999191612005,0.017389999702572823,0.17545999586582184
7003.284183200078,1685802.0,-0.05674000084400177,-0.0006399999838322401,0.0072200000286102295,0.1808599978685379
7003.285182972292,1685803.0,-0.05776999890804291,0.0002300000051036477,-0.009809999726712704,0.18196000158786774
7003.286182744508,1685804.0,-0.061230000108480453,-0.0016299999551847577,-0.012029999867081642,0.17757000029087067
7003.287182516723,1685805.0,-0.06436999887228012,-0.006130000110715628,-0.0022700000554323196,0.18306000530719757
7003.2881822889385,1685806.0,-0.06676000356674194,-0.002589999930933118,0.005539999809116125,0.1759600043296814
7003.289182061154,1685807.0,-0.06634999811649323,0.0015399999683722854,-4.999999873689376e-05,0.18268999457359314
7003.2901818333685,1685808.0,-0.06549999862909317,0.0014100000262260437,0.0015399999683722854,0.17574000358581543
7003.291181605584,1685809.0,-0.0670199990272522,0.0035000001080334187,-0.005489999894052744,0.1811400055885315
7003.292181377799,1685810.0,-0.07197000086307526,0.00031999999191612005,0.004310000222176313,0.17574000358581543
7003.293181150015,1685811.0,-0.07722000032663345,0.0030900000128895044,0.011939999647438526,0.1808599978685379
7003.29418092223,1685812.0,-0.08004999905824661,0.005309999920427799,-0.0002699999895412475,0.1761000007390976
7003.295180694446,1685813.0,-0.08055000007152557,0.000910000002477318,-0.001180000021122396,0.1777999997138977
7003.29618046666,1685814.0,-0.07969000190496445,-0.003000000026077032,-0.0013599999947473407,0.17889000475406647
7003.297180238876,1685815.0,-0.07767000049352646,-0.0045900000259280205,0.0018599999602884054,0.17802000045776367
7003.298180011091,1685816.0,-0.07492999732494354,0.0021299999207258224,-0.0037700000684708357,0.17812000215053558
7003.2991797833065,1685817.0,-0.07187999784946442,0.002409999957308173,-0.009359999559819698,0.1698800027370453
7003.300179555522,1685818.0,-0.07107000052928925,0.0007699999841861427,-0.01107999961823225,0.18068000674247742
7003.3011793277365,1685819.0,-0.06917999684810638,0.003949999809265137,-0.010219999589025974,0.17252999544143677
7003.302179099952,1685820.0,-0.0670199990272522,0.004679999779909849,0.009949999861419201,0.17757000029087067
7003.303178872167,1685821.0,-0.06477999687194824,0.009580000303685665,0.014759999699890614,0.17404000461101532
7003.304178644383,1685822.0,-0.06298000365495682,0.011579999700188637,0.004629999864846468,0.1761000007390976
7003.305178416598,1685823.0,-0.0627100020647049,0.006130000110715628,0.005859999917447567,0.17746999859809875
7003.306178188814,1685824.0,-0.06298000365495682,0.0016799999866634607,0.007449999917298555,0.16854999959468842
7003.307177961028,1685825.0,-0.06324999779462814,-0.00418000016361475,0.009580000303685665,0.17903000116348267
7003.308177733244,1685826.0,-0.06298000365495682,-0.00044999999227002263,0.006130000110715628,0.17079000174999237
7003.309177505459,1685827.0,-0.06216999888420105,-0.0021800000686198473,-0.00686000008136034,0.17701999843120575
7003.3101772776745,1685828.0,-0.06289000064134598,-0.0011399999493733048,-0.013530000112950802,0.17161999642848969
7003.31117704989,1685829.0,-0.06532000005245209,-0.003539999946951866,-0.018209999427199364,0.17674000561237335
7003.312176822104,1685830.0,-0.07034999877214432,-0.007449999917298555,0.004310000222176313,0.17092999815940857
7003.31317659432,1685831.0,-0.07601000368595123,-0.010219999589025974,0.001449999981559813,0.17444999516010284
7003.314176366535,1685832.0,-0.08104000240564346,-0.012760000303387642,-0.01140000019222498,0.17757000029087067
7003.315176138751,1685833.0,-0.08422999829053879,-0.01370999962091446,-0.0221599992364645,0.16805000603199005
7003.316175910966,1685834.0,-0.08489999920129776,-0.007720000110566616,-0.025299999862909317,0.17757000029087067
7003.317175683182,1685835.0,-0.08167000114917755,0.001769999973475933,-0.016030000522732735,0.16672000288963318
7003.318175455396,1685836.0,-0.07825999706983566,-0.004769999999552965,0.007079999893903732,0.1769700050354004
7003.319175227612,1685837.0,-0.0748400017619133,-0.010259999893605709,0.026019999757409096,0.16868999600410461
7003.320174999827,1685838.0,-0.0700799971818924,-0.00041000000783242285,0.02597999945282936,0.17669999599456787
7003.3211747720425,1685839.0,-0.06532000005245209,0.00031999999191612005,0.01558000035583973,0.16666999459266663
7003.322174544257,1685840.0,-0.05812999978661537,-0.006579999811947346,0.009039999917149544,0.176829993724823
7003.323174316472,1685841.0,-0.051660001277923584,0.003909999970346689,0.003220000071451068,0.16836999356746674
7003.324174088688,1685842.0,-0.047439999878406525,0.006130000110715628,-0.0015899999998509884,0.1751900017261505
7003.325173860903,1685843.0,-0.044920001178979874,0.007579999975860119,-0.004449999891221523,0.16919000446796417
7003.326173633119,1685844.0,-0.045010000467300415,0.010490000247955322,0.0024500000290572643,0.1745000034570694
7003.327173405334,1685845.0,-0.04698999971151352,0.003220000071451068,4.999999873689376e-05,0.16818000376224518
7003.328173177549,1685846.0,-0.049949999898672104,0.004679999779909849,-0.004679999779909849,0.17427000403404236
7003.329172949764,1685847.0,-0.05107999965548515,0.006130000110715628,-0.002859999891370535,0.16968999803066254
7003.33017272198,1685848.0,-0.05211000144481659,0.006630000192672014,0.004679999779909849,0.17444999516010284
7003.331172494195,1685849.0,-0.05471999943256378,0.005590000189840794,0.002859999891370535,0.1677200049161911
7003.33217226641,1685850.0,-0.06029000133275986,0.009580000303685665,-0.003539999946951866,0.17372000217437744
7003.333172038625,1685851.0,-0.0670199990272522,0.011939999647438526,0.005539999809116125,0.16818000376224518
7003.33417181084,1685852.0,-0.07547000050544739,0.010759999975562096,-0.010809999890625477,0.17499999701976776
7003.335171583056,1685853.0,-0.08041000366210938,0.009399999864399433,-0.01916000060737133,0.16695000231266022
7003.336171355271,1685854.0,-0.08329000324010849,0.003949999809265137,-0.00872000027447939,0.17577999830245972
7003.337171127487,1685855.0,-0.08212000131607056,-0.0002300000051036477,-4.999999873689376e-05,0.1643799990415573
7003.338170899702,1685856.0,-0.07906000316143036,-0.0011399999493733048,0.0018599999602884054,0.1752299964427948
7003.339170671917,1685857.0,-0.07447999715805054,-0.0019099999917671084,0.004999999888241291,0.16695000231266022
7003.340170444132,1685858.0,-0.06872999668121338,-0.0022299999836832285,0.008080000057816505,0.17505000531673431
7003.341170216348,1685859.0,-0.06298000365495682,-0.0013599999947473407,0.0045900000259280205,0.1712999939918518
7003.342169988563,1685860.0,-0.05821999907493591,0.0037700000684708357,-0.005489999894052744,0.16795000433921814
7003.343169760778,1685861.0,-0.05435999855399132,0.00031999999191612005,0.0052200001664459705,0.17454999685287476
7003.344169532993,1685862.0,-0.0510299988090992,-0.0033599999733269215,-0.00014000000373926014,0.1652500033378601
7003.345169305208,1685863.0,-0.050450000911951065,-0.0006399999838322401,-0.010219999589025974,0.1678600013256073
7003.346169077424,1685864.0,-0.049059998244047165,-0.0083600003272295,-0.0013200000394135714,0.1746399998664856
7003.347168849639,1685865.0,-0.046720001846551895,0.001230000052601099,0.00014000000373926014,0.16359999775886536
7003.348168621855,1685866.0,-0.04527999833226204,-0.002589999930933118,-0.0031300000846385956,0.16827000677585602
7003.34916839407,1685867.0,-0.044520001858472824,-0.002090000081807375,0.00014000000373926014,0.17395000159740448
7003.350168166285,1685868.0,-0.045010000467300415,4.999999873689376e-05,0.0006799999973736703,0.1643799990415573
7003.3511679385,1685869.0,-0.045010000467300415,-0.0031300000846385956,0.009850000031292439,0.1737699955701828
7003.352167710716,1685870.0,-0.0451899990439415,-0.00949000008404255,0.010400000028312206,0.1643799990415573
7003.353167482931,1685871.0,-0.04464999958872795,-0.008449999615550041,0.0030900000128895044,0.1746399998664856
7003.354167255146,1685872.0,-0.042410001158714294,-0.005950000137090683,0.003449999960139394,0.1662600040435791
7003.355167027361,1685873.0,-0.03880999982357025,-0.0059899999760091305,-0.004769999999552965,0.17353999614715576
7003.356166799576,1685874.0,-0.036479998379945755,-0.005489999894052744,-0.011309999972581863,0.16588999330997467
7003.357166571792,1685875.0,-0.033330000936985016,-0.00041000000783242285,-0.005679999943822622,0.17317000031471252
7003.358166344007,1685876.0,-0.028300000354647636,-0.00571999978274107,-0.0006399999838322401,0.1664000004529953
7003.359166116223,1685877.0,-0.02133999951183796,-0.0011399999493733048,0.003220000071451068,0.1720699965953827
7003.360165888438,1685878.0,-0.013969999738037586,0.004129999782890081,0.0018599999602884054,0.1668500006198883
7003.361165660653,1685879.0,-0.008799999952316284,0.0014100000262260437,-0.0016299999551847577,0.17372000217437744
7003.362165432868,1685880.0,-0.006380000151693821,0.003539999946951866,0.003220000071451068,0.17161999642848969
7003.3631652050835,1685881.0,-0.004310000222176313,0.008860000409185886,-0.005489999894052744,0.16617000102996826
7003.364164977299,1685882.0,-0.004129999782890081,0.013120000250637531,-0.00494999997317791,0.17339999973773956
