LSL_Time,PLUX_P1_nSeq,PLUX_P1_ECG0,PLUX_P1_EMG1,PLUX_P1_EMG2,PLUX_P1_RESPIRATION3
6572.678290994949,1255098.0,-0.05948000028729439,0.0015899999998509884,-0.005179999861866236,0.4923200011253357
6572.679290767164,1255099.0,-0.06499999761581421,0.00031999999191612005,-0.002859999891370535,0.4968999922275543
6572.68029053938,1255100.0,-0.07402999699115753,0.0018599999602884054,-0.0022299999836832285,0.4907200038433075
6572.681290311595,1255101.0,-0.08229999989271164,0.000910000002477318,-0.0022299999836832285,0.4879800081253052
6572.682290083811,1255102.0,-0.08432000130414963,0.003949999809265137,-9.000000136438757e-05,0.4948900043964386
6572.683289856025,1255103.0,-0.08257000148296356,-4.999999873689376e-05,-0.007040000054985285,0.4876999855041504
6572.684289628241,1255104.0,-0.07560999691486359,-0.00875999964773655,-0.0020000000949949026,0.4859200119972229
6572.685289400456,1255105.0,-0.06414999812841415,-0.01221999991685152,-0.0051299999468028545,0.4907200038433075
6572.686289172671,1255106.0,-0.05282999947667122,-0.0051299999468028545,-0.003539999946951866,0.4842199981212616
6572.687288944887,1255107.0,-0.0428600013256073,-0.007579999975860119,-0.006180000025779009,0.4831700026988983
6572.688288717101,1255108.0,-0.033240001648664474,-0.005679999943822622,-9.000000136438757e-05,0.48559999465942383
6572.689288489317,1255109.0,-0.02556000091135502,0.0002699999895412475,-0.011939999647438526,0.47053998708724976
6572.690288261532,1255110.0,-0.02012999914586544,0.008860000409185886,-0.02507000043988228,0.48069998621940613
6572.691288033748,1255111.0,-0.015990000218153,0.02174999937415123,-0.020840000361204147,0.48431000113487244
6572.692287805963,1255112.0,-0.01671000011265278,0.022299999371170998,-0.006579999811947346,0.4799700081348419
6572.693287578178,1255113.0,-0.018689999356865883,0.016759999096393585,0.005679999943822622,0.47617000341415405
6572.694287350393,1255114.0,-0.02191999927163124,0.019209999591112137,0.007770000025629997,0.47044000029563904
6572.6952871226085,1255115.0,-0.02305000089108944,0.011579999700188637,0.022120000794529915,0.4797399938106537
6572.696286894824,1255116.0,-0.022099999710917473,0.003949999809265137,0.02548000030219555,0.47574999928474426
6572.697286667039,1255117.0,-0.021560000255703926,0.00031999999191612005,0.03564999997615814,0.47145000100135803
6572.698286439255,1255118.0,-0.02507000043988228,-0.007400000002235174,0.032519999891519547,0.46522998809814453
6572.699286211469,1255119.0,-0.032249998301267624,-0.027289999648928642,0.032919999212026596,0.47113001346588135
6572.700285983685,1255120.0,-0.04163999855518341,-0.023749999701976776,0.029160000383853912,0.47387999296188354
6572.7012857559,1255121.0,-0.047929998487234116,-0.010579999536275864,0.006949999835342169,0.4715000092983246
6572.702285528116,1255122.0,-0.05211000144481659,-0.006219999864697456,-0.009809999726712704,0.46577000617980957
6572.703285300331,1255123.0,-0.052379999309778214,-0.003719999920576811,-0.028750000521540642,0.4511699974536896
6572.704285072546,1255124.0,-0.04806999862194061,-0.004089999943971634,-0.024609999731183052,0.4624300003051758
6572.705284844761,1255125.0,-0.04222999885678291,-0.000859999970998615,-0.02548000030219555,0.46751001477241516
6572.7062846169765,1255126.0,-0.035349998623132706,0.00031999999191612005,-0.016209999099373817,0.46417000889778137
6572.707284389192,1255127.0,-0.025520000606775284,0.00018000000272877514,-0.01711999997496605,0.45840001106262207
6572.708284161407,1255128.0,-0.014999999664723873,-0.00041000000783242285,-0.009949999861419201,0.45726001262664795
6572.709283933622,1255129.0,-0.008270000107586384,0.0037700000684708357,-0.007040000054985285,0.4622499942779541
6572.710283705837,1255130.0,-0.0047599999234080315,0.002360000042244792,-0.0027699999045580626,0.4578999876976013
6572.711283478053,1255131.0,-0.0027000000700354576,-0.001500000013038516,-0.0064500002190470695,0.4527300000190735
6572.712283250268,1255132.0,-0.0033199999015778303,0.003220000071451068,-0.006130000110715628,0.45076000690460205
6572.713283022484,1255133.0,-0.003280000062659383,0.0031300000846385956,-0.004310000222176313,0.4566200077533722
6572.714282794699,1255134.0,-0.004670000169426203,-0.000910000002477318,-0.0017300000181421638,0.4533199965953827
6572.715282566914,1255135.0,-0.008449999615550041,0.009259999729692936,-0.008080000057816505,0.4463199973106384
6572.716282339129,1255136.0,-0.01271000038832426,0.011900000274181366,-0.015530000440776348,0.4451799988746643
6572.7172821113445,1255137.0,-0.01761000044643879,0.005630000028759241,-0.004040000028908253,0.44760000705718994
6572.71828188356,1255138.0,-0.02345000021159649,0.010850000195205212,0.003909999970346689,0.44659000635147095
6572.719281655775,1255139.0,-0.029510000720620155,0.009220000356435776,0.016170000657439232,0.4404599964618683
6572.72028142799,1255140.0,-0.03943999856710434,0.0021299999207258224,0.016979999840259552,0.4323599934577942
6572.721281200205,1255141.0,-0.04631999880075455,0.0034099998883903027,0.025520000606775284,0.44370999932289124
6572.722280972421,1255142.0,-0.04977000132203102,0.0031799999997019768,0.01775999926030636,0.4380300045013428
6572.723280744636,1255143.0,-0.048700001090765,-0.0036299999337643385,0.019750000908970833,0.42287999391555786
6572.724280516852,1255144.0,-0.043129999190568924,-0.0008200000156648457,0.006130000110715628,0.43575000762939453
6572.725280289067,1255145.0,-0.03260999917984009,-0.0064500002190470695,0.009039999917149544,0.4347800016403198
6572.726280061282,1255146.0,-0.020260000601410866,-0.012760000303387642,0.0037700000684708357,0.43140000104904175
6572.727279833497,1255147.0,-0.00965999998152256,-0.014800000004470348,-0.011350000277161598,0.42636001110076904
6572.7282796057125,1255148.0,-0.00107999995816499,-0.011760000139474869,-0.011309999972581863,0.4183500111103058
6572.729279377928,1255149.0,0.005750000011175871,-0.015890000388026237,-0.017389999702572823,0.42618000507354736
6572.730279150143,1255150.0,0.011049999855458736,-0.010579999536275864,-0.009259999729692936,0.4276899993419647
6572.731278922358,1255151.0,0.014419999904930592,-0.002409999957308173,-0.0019099999917671084,0.41866999864578247
6572.732278694573,1255152.0,0.015809999778866768,-0.005270000081509352,0.005040000192821026,0.418720006942749
6572.733278466789,1255153.0,0.016529999673366547,-0.0031799999997019768,0.0010000000474974513,0.41986000537872314
6572.734278239004,1255154.0,0.017340000718832016,9.000000136438757e-05,0.009580000303685665,0.40108999609947205
6572.73527801122,1255155.0,0.018330000340938568,0.002859999891370535,0.007670000195503235,0.4176599979400635
6572.736277783435,1255156.0,0.01909000054001808,0.00267999991774559,0.002859999891370535,0.41179999709129333
6572.73727755565,1255157.0,0.016620000824332237,0.012489999644458294,0.004449999891221523,0.4008600115776062
6572.738277327865,1255158.0,0.010239999741315842,0.012310000136494637,-0.010490000247955322,0.40900999307632446
6572.7392771000805,1255159.0,0.0028800000436604023,0.004679999779909849,-0.007670000195503235,0.40424999594688416
6572.740276872296,1255160.0,-0.003229999914765358,0.0033599999733269215,-0.00803999975323677,0.4041599929332733
6572.741276644511,1255161.0,-0.008799999952316284,0.007309999782592058,-0.006310000084340572,0.40356001257896423
6572.742276416726,1255162.0,-0.01384000014513731,0.008630000054836273,-0.006399999838322401,0.39719998836517334
6572.743276188941,1255163.0,-0.014109999872744083,0.0072200000286102295,-0.014399999752640724,0.40279000997543335
6572.744275961157,1255164.0,-0.009879999794065952,0.006039999891072512,-0.005040000192821026,0.38776999711990356
6572.745275733372,1255165.0,-0.0011699999449774623,-0.003449999960139394,-0.003860000055283308,0.3949599862098694
6572.746275505588,1255166.0,0.011769999749958515,-0.008449999615550041,0.005489999894052744,0.3861199915409088
6572.747275277803,1255167.0,0.02273000031709671,-0.010219999589025974,0.006630000192672014,0.38964998722076416
6572.748275050018,1255168.0,0.028929999098181725,-0.00044999999227002263,-0.0020000000949949026,0.39225998520851135
6572.749274822233,1255169.0,0.029740000143647194,0.00872000027447939,0.00031999999191612005,0.3811799883842468
6572.7502745944485,1255170.0,0.029069999232888222,0.0045900000259280205,0.007860000245273113,0.3851200044155121
6572.751274366664,1255171.0,0.027130000293254852,-0.0009500000160187483,-0.00014000000373926014,0.36945998668670654
6572.752274138879,1255172.0,0.024299999698996544,0.0010400000028312206,0.0037700000684708357,0.38227999210357666
6572.753273911094,1255173.0,0.022549999877810478,0.0022299999836832285,-0.000539999979082495,0.3776099979877472
6572.754273683309,1255174.0,0.02111000008881092,0.00203999993391335,-0.001449999981559813,0.3605799973011017
6572.755273455525,1255175.0,0.019950000569224358,-0.0020000000949949026,0.0035000001080334187,0.37156999111175537
6572.75627322774,1255176.0,0.019050000235438347,-0.00949000008404255,0.012350000441074371,0.3708299994468689
6572.757272999956,1255177.0,0.014469999819993973,-0.005950000137090683,0.021530000492930412,0.3541699945926666
6572.75827277217,1255178.0,0.006020000204443932,-0.006769999861717224,0.022709999233484268,0.365339994430542
6572.759272544386,1255179.0,-0.002520000096410513,0.003590000094845891,0.01775999926030636,0.3650699853897095
6572.760272316601,1255180.0,-0.009340000338852406,-0.0011399999493733048,0.01775999926030636,0.35846999287605286
6572.761272088816,1255181.0,-0.014820000156760216,-0.005770000163465738,0.004629999864846468,0.35572999715805054
6572.762271861032,1255182.0,-0.017160000279545784,0.001180000021122396,-0.002090000081807375,0.3591200113296509
6572.763271633247,1255183.0,-0.014960000291466713,0.0002699999895412475,-0.00803999975323677,0.35078001022338867
6572.764271405462,1255184.0,-0.006690000183880329,-0.00018000000272877514,-0.008129999972879887,0.3493199944496155
6572.765271177677,1255185.0,0.003819999983534217,-0.0011399999493733048,-0.015209999866783619,0.3525199890136719
6572.766270949893,1255186.0,0.014379999600350857,0.00031999999191612005,-0.012760000303387642,0.34735000133514404
6572.767270722108,1255187.0,0.02443999983370304,0.0129399998113513,-0.020390000194311142,0.3309600055217743
6572.768270494324,1255188.0,0.0325700007379055,0.019209999591112137,-0.014580000191926956,0.3409000039100647
6572.769270266538,1255189.0,0.03863000124692917,0.01566999964416027,-0.015030000358819962,0.343639999628067
6572.770270038754,1255190.0,0.04024999961256981,0.009220000356435776,-0.00571999978274107,0.3364599943161011
6572.771269810969,1255191.0,0.03880999982357025,0.007040000054985285,-0.004220000002533197,0.3214400112628937
6572.772269583184,1255192.0,0.03720000013709068,0.0045900000259280205,0.00031999999191612005,0.33032000064849854
6572.7732693554,1255193.0,0.036249998956918716,0.003220000071451068,0.0016299999551847577,0.3331100046634674
6572.774269127614,1255194.0,0.03513000160455704,-0.000590000010561198,0.0,0.329910010099411
6572.77526889983,1255195.0,0.034049998968839645,-0.009720000438392162,0.009580000303685665,0.3254700005054474
6572.776268672045,1255196.0,0.03189999982714653,-0.015709999948740005,0.008220000192523003,0.320389986038208
6572.777268444261,1255197.0,0.025609999895095825,-0.01711999997496605,0.009850000031292439,0.3140699863433838
6572.778268216476,1255198.0,0.0147299999371171,-0.015209999866783619,0.02020999975502491,0.3204300105571747
6572.779267988692,1255199.0,0.003229999914765358,-0.006039999891072512,0.009630000218749046,0.3151699900627136
6572.780267760906,1255200.0,-0.004129999782890081,-0.001500000013038516,0.005900000222027302,0.3040499985218048
6572.7812675331215,1255201.0,-0.008630000054836273,0.0010000000474974513,-0.012400000356137753,0.3118700087070465
6572.782267305337,1255202.0,-0.01056000031530857,0.0037700000684708357,-0.015939999371767044,0.3093999922275543
6572.783267077552,1255203.0,-0.010420000180602074,0.00031999999191612005,-0.011629999615252018,0.2943899929523468
6572.784266849768,1255204.0,-0.007639999967068434,0.00031999999191612005,-0.007309999782592058,0.30098000168800354
6572.785266621982,1255205.0,-0.003010000102221966,-0.004129999782890081,-0.002950000111013651,0.3047800064086914
6572.786266394198,1255206.0,0.0030499999411404133,-0.0064500002190470695,0.0013200000394135714,0.29695001244544983
6572.787266166413,1255207.0,0.010649999603629112,-0.007670000195503235,0.008860000409185886,0.28944000601768494
6572.788265938629,1255208.0,0.018869999796152115,-0.005489999894052744,0.0028200000524520874,0.2951200008392334
6572.789265710844,1255209.0,0.022509999573230743,0.005679999943822622,0.0036299999337643385,0.2918199896812439
6572.79026548306,1255210.0,0.023669999092817307,0.010130000300705433,0.0031799999997019768,0.28001001477241516
6572.791265255274,1255211.0,0.02425999939441681,0.01107999961823225,0.008080000057816505,0.2867000102996826
6572.7922650274895,1255212.0,0.022910000756382942,0.019940000027418137,0.00031999999191612005,0.28523001074790955
6572.793264799705,1255213.0,0.019950000569224358,0.02143000066280365,-0.0019099999917671084,0.27858999371528625
6572.79426457192,1255214.0,0.016979999840259552,0.013120000250637531,-0.010579999536275864,0.2754800021648407
6572.795264344136,1255215.0,0.015180000104010105,0.005900000222027302,-0.014580000191926956,0.27913999557495117
6572.79626411635,1255216.0,0.014150000177323818,0.0029100000392645597,-0.01489999983459711,0.27305999398231506
6572.797263888566,1255217.0,0.011859999969601631,0.002859999891370535,-0.0063599999994039536,0.2671099901199341
6572.798263660781,1255218.0,0.004129999782890081,0.003220000071451068,-0.006579999811947346,0.27250999212265015
6572.799263432997,1255219.0,-0.006289999932050705,-0.0044999998062849045,0.005859999917447567,0.26513999700546265
6572.800263205212,1255220.0,-0.018689999356865883,-0.004129999782890081,0.00686000008136034,0.2535099983215332
6572.8012629774275,1255221.0,-0.028929999098181725,-0.007040000054985285,0.010219999589025974,0.2575800120830536
6572.802262749642,1255222.0,-0.0354899987578392,-0.007860000245273113,0.009580000303685665,0.2617500126361847
6572.8032625218575,1255223.0,-0.0384100005030632,-0.006630000192672014,0.0031300000846385956,0.25690001249313354
6572.804262294073,1255224.0,-0.03279000148177147,-0.01826000027358532,0.010490000247955322,0.2441300004720688
6572.805262066288,1255225.0,-0.02425999939441681,-0.015799999237060547,0.018479999154806137,0.24591000378131866
6572.806261838504,1255226.0,-0.016440000385046005,-0.013670000247657299,0.012760000303387642,0.25172001123428345
6572.807261610718,1255227.0,-0.006289999932050705,-0.004269999917596579,0.006130000110715628,0.2448599934577942
6572.808261382934,1255228.0,0.0037700000684708357,-0.002630000002682209,-0.005539999809116125,0.23680000007152557
6572.809261155149,1255229.0,0.009519999846816063,0.005630000028759241,-0.02184000052511692,0.24165000021457672
6572.810260927365,1255230.0,0.012260000221431255,0.00031999999191612005,-0.015890000388026237,0.2389499992132187
6572.81126069958,1255231.0,0.014150000177323818,0.0019099999917671084,-0.013170000165700912,0.22567999362945557
6572.8122604717955,1255232.0,0.013880000449717045,0.010759999975562096,-0.013220000080764294,0.22869999706745148
6572.81326024401,1255233.0,0.011680000461637974,0.010080000385642052,-0.00418000016361475,0.23305000364780426
6572.8142600162255,1255234.0,0.011140000075101852,0.0033599999733269215,-0.004040000028908253,0.22645999491214752
6572.815259788441,1255235.0,0.010420000180602074,0.0035000001080334187,0.009309999644756317,0.22078000009059906
6572.816259560656,1255236.0,0.009929999709129333,-0.0011399999493733048,0.006490000057965517,0.2238900065422058
6572.817259332872,1255237.0,0.007499999832361937,0.0010000000474974513,0.009259999729692936,0.21373000741004944
6572.818259105086,1255238.0,0.0031900000758469105,0.003949999809265137,0.00031999999191612005,0.22032000124454498
6572.819258877302,1255239.0,-0.0037299999967217445,0.006310000084340572,-0.00203999993391335,0.21303999423980713
6572.820258649517,1255240.0,-0.012260000221431255,-0.0015899999998509884,-0.000859999970998615,0.20736999809741974
6572.821258421733,1255241.0,-0.02022000029683113,0.003809999907389283,-0.001449999981559813,0.20882999897003174
6572.822258193948,1255242.0,-0.025340000167489052,-0.0015399999683722854,-0.004360000137239695,0.20934000611305237
6572.823257966163,1255243.0,-0.025469999760389328,-0.006130000110715628,0.00031999999191612005,0.1964700073003769
6572.824257738378,1255244.0,-0.021880000829696655,-0.006949999835342169,-0.0007699999841861427,0.20403000712394714
6572.8252575105935,1255245.0,-0.014600000344216824,-0.003719999920576811,-0.002859999891370535,0.19945000112056732
6572.826257282809,1255246.0,-0.005080000031739473,0.003909999970346689,-0.01143999956548214,0.19349999725818634
6572.827257055024,1255247.0,0.004490000195801258,0.0071299998089671135,-0.0037700000684708357,0.19779999554157257
6572.82825682724,1255248.0,0.013209999538958073,0.002319999970495701,-0.0022299999836832285,0.1917099952697754
6572.829256599454,1255249.0,0.018780000507831573,-0.0022299999836832285,-0.007180000189691782,0.18630999326705933
6572.83025637167,1255250.0,0.021740000694990158,-0.005489999894052744,0.0024999999441206455,0.18782000243663788
6572.831256143885,1255251.0,0.022369999438524246,-0.0036800000816583633,0.003000000026077032,0.1802700012922287
6572.832255916101,1255252.0,0.021069999784231186,0.010130000300705433,0.00686000008136034,0.1856199949979782
6572.833255688316,1255253.0,0.018149999901652336,0.018619999289512634,-0.003860000055283308,0.18045000731945038
6572.834255460531,1255254.0,0.01568000018596649,0.011350000277161598,-0.009359999559819698,0.1736299991607666
6572.835255232746,1255255.0,0.014910000376403332,-0.001500000013038516,0.00203999993391335,0.17930999398231506
6572.8362550049615,1255256.0,0.015180000104010105,-0.00571999978274107,0.01221999991685152,0.17298999428749084
6572.837254777177,1255257.0,0.0142000000923872,0.002630000002682209,0.015209999866783619,0.16662999987602234
6572.838254549392,1255258.0,0.0070500001311302185,0.014800000004470348,0.005040000192821026,0.1712999939918518
6572.839254321607,1255259.0,-0.0034099998883903027,0.009039999917149544,-0.0036299999337643385,0.16072000563144684
6572.840254093822,1255260.0,-0.0142000000923872,-0.0036800000816583633,-0.004000000189989805,0.16506999731063843
6572.841253866038,1255261.0,-0.023269999772310257,-0.015119999647140503,0.007540000136941671,0.1636500060558319
6572.842253638253,1255262.0,-0.030549999326467514,-0.003269999986514449,0.006130000110715628,0.15682999789714813
6572.843253410469,1255263.0,-0.03305999934673309,-0.0018599999602884054,0.005400000140070915,0.16181999444961548
6572.844253182684,1255264.0,-0.02857000008225441,0.00031999999191612005,0.0016299999551847577,0.1565999984741211
6572.845252954899,1255265.0,-0.019500000402331352,-0.006680000107735395,-0.004720000084489584,0.14972999691963196
6572.846252727114,1255266.0,-0.010599999688565731,-0.0036800000816583633,-0.0007699999841861427,0.1555899977684021
6572.847252499329,1255267.0,-0.002469999948516488,-0.012400000356137753,-0.009759999811649323,0.1434199959039688
6572.848252271545,1255268.0,0.004490000195801258,-0.01576000079512596,0.00031999999191612005,0.1476300060749054
6572.84925204376,1255269.0,0.009340000338852406,-0.002589999930933118,-0.00267999991774559,0.1467999964952469
6572.850251815975,1255270.0,0.009879999794065952,-0.004269999917596579,0.001769999973475933,0.13947999477386475
6572.85125158819,1255271.0,0.00925000011920929,0.0018599999602884054,-0.00913000013679266,0.14217999577522278
6572.852251360406,1255272.0,0.008940000087022781,0.005040000192821026,-0.004360000137239695,0.14203999936580658
6572.853251132621,1255273.0,0.008179999887943268,0.006130000110715628,0.0014100000262260437,0.13270999491214752
6572.854250904837,1255274.0,0.00610999995842576,0.003949999809265137,0.0006399999838322401,0.132750004529953
6572.855250677052,1255275.0,0.004490000195801258,-0.004040000028908253,0.00031999999191612005,0.1313299983739853
6572.856250449267,1255276.0,0.00215999991632998,0.0002699999895412475,0.0024500000290572643,0.13508999347686768
6572.857250221482,1255277.0,-0.00215999991632998,0.012900000438094139,-0.0007300000288523734,0.1336199939250946
6572.858249993697,1255278.0,-0.009159999899566174,0.008580000139772892,0.004679999779909849,0.12991000711917877
6572.859249765913,1255279.0,-0.01769999973475933,-0.00014000000373926014,0.006539999973028898,0.12263000011444092
6572.860249538128,1255280.0,-0.02606000006198883,0.00031999999191612005,0.007579999975860119,0.12771999835968018
6572.861249310343,1255281.0,-0.03378000110387802,4.999999873689376e-05,0.00031999999191612005,0.120619997382164
6572.862249082558,1255282.0,-0.03872000053524971,0.003909999970346689,0.0018599999602884054,0.1246500015258789
6572.863248854774,1255283.0,-0.04042999818921089,0.0016799999866634607,-0.008489999920129776,0.1158600002527237
6572.864248626989,1255284.0,-0.03818000108003616,-0.0022299999836832285,-0.0037700000684708357,0.12167000025510788
6572.865248399205,1255285.0,-0.030549999326467514,-0.00839999970048666,-0.00041000000783242285,0.11371000111103058
6572.86624817142,1255286.0,-0.020260000601410866,-0.005489999894052744,-0.009809999726712704,0.11800999939441681
6572.8672479436345,1255287.0,-0.010780000127851963,0.006130000110715628,-0.004410000052303076,0.10963000357151031
6572.86824771585,1255288.0,-0.002520000096410513,0.01558000035583973,-0.002090000081807375,0.11490000039339066
6572.869247488065,1255289.0,0.0031399999279528856,0.016300000250339508,0.000910000002477318,0.10666000097990036
6572.870247260281,1255290.0,0.007369999773800373,0.006130000110715628,0.005179999861866236,0.1116499975323677
6572.871247032496,1255291.0,0.009700000286102295,-0.0010400000028312206,-0.001500000013038516,0.1027199998497963
6572.872246804711,1255292.0,0.008630000054836273,-0.0071299998089671135,0.0024999999441206455,0.10578999668359756
6572.873246576926,1255293.0,0.004310000222176313,-0.005489999894052744,0.0012700000079348683,0.1050100028514862
6572.874246349142,1255294.0,-0.00107999995816499,-0.0033199999015778303,-0.004000000189989805,0.09897000342607498
6572.875246121357,1255295.0,-0.003229999914765358,-0.005859999917447567,-0.002409999957308173,0.1043199971318245
6572.876245893573,1255296.0,-0.0017999999690800905,-0.006680000107735395,0.0002300000051036477,0.095490001142025
6572.877245665788,1255297.0,-0.0008099999977275729,-0.0027699999045580626,0.002859999891370535,0.10080000013113022
6572.8782454380025,1255298.0,-0.006289999932050705,0.0019499999471008778,0.003220000071451068,0.09296999871730804
6572.879245210218,1255299.0,-0.016440000385046005,0.008080000057816505,0.0034099998883903027,0.09645000100135803
6572.880244982433,1255300.0,-0.02776000089943409,0.006490000057965517,0.005270000081509352,0.09594999998807907
6572.881244754649,1255301.0,-0.03612000122666359,0.0010000000474974513,-0.0011399999493733048,0.08803000301122665
6572.882244526864,1255302.0,-0.040699999779462814,0.004540000110864639,-0.003220000071451068,0.09114000201225281
6572.883244299079,1255303.0,-0.042810000479221344,-0.002630000002682209,-0.0031300000846385956,0.08995000272989273
6572.884244071294,1255304.0,-0.041510000824928284,-0.004720000084489584,-0.0011399999493733048,0.0855100005865097
6572.88524384351,1255305.0,-0.036070000380277634,-0.004310000222176313,-0.00839999970048666,0.08743000030517578
6572.886243615725,1255306.0,-0.02928999997675419,-0.0031300000846385956,0.00203999993391335,0.0816200003027916
6572.8872433879405,1255307.0,-0.020800000056624413,0.0030400000978261232,-0.0022700000554323196,0.0856499969959259
6572.888243160155,1255308.0,-0.01221999991685152,0.007360000163316727,0.004449999891221523,0.07878000289201736
6572.8892429323705,1255309.0,-0.005840000230818987,0.006130000110715628,0.0010000000474974513,0.08417999744415283
6572.890242704586,1255310.0,-0.004000000189989805,-0.0008200000156648457,0.0016299999551847577,0.08051999658346176
6572.891242476801,1255311.0,-0.0030499999411404133,-0.006579999811947346,0.01217000000178814,0.0741100013256073
6572.892242249017,1255312.0,-0.003229999914765358,0.002589999930933118,0.00031999999191612005,0.07932999730110168
6572.893242021232,1255313.0,-0.006289999932050705,-0.0012700000079348683,-0.006089999806135893,0.07209999859333038
6572.894241793447,1255314.0,-0.008630000054836273,0.001230000052601099,-0.014259999617934227,0.07782000303268433
6572.895241565662,1255315.0,-0.007280000019818544,0.0031799999997019768,-0.004129999782890081,0.06943999975919724
6572.896241337878,1255316.0,-0.0031399999279528856,0.0014100000262260437,-0.0007699999841861427,0.06769999861717224
6572.897241110093,1255317.0,-0.0020699999295175076,0.001769999973475933,0.0022299999836832285,0.07462000101804733
6572.8982408823085,1255318.0,-0.005929999984800816,0.006399999838322401,0.010219999589025974,0.06989999860525131
6572.899240654523,1255319.0,-0.014290000312030315,0.0008200000156648457,0.016119999811053276,0.06453999876976013
6572.9002404267385,1255320.0,-0.02314000017940998,-0.004540000110864639,0.006039999891072512,0.07054000347852707
6572.901240198954,1255321.0,-0.030910000205039978,-0.0007699999841861427,0.00839999970048666,0.06696999818086624
6572.902239971169,1255322.0,-0.03513000160455704,-0.0011399999493733048,0.003220000071451068,0.06064999848604202
6572.903239743385,1255323.0,-0.03593999892473221,-0.002319999970495701,0.00535999983549118,0.06729000061750412
6572.904239515599,1255324.0,-0.03172000125050545,-0.0006399999838322401,-0.002589999930933118,0.05891000106930733
6572.905239287815,1255325.0,-0.024529999122023582,0.00031999999191612005,-0.0052200001664459705,0.05739999935030937
6572.90623906003,1255326.0,-0.015629999339580536,0.0021299999207258224,0.0,0.0635799989104271
6572.907238832246,1255327.0,-0.0037700000684708357,-0.0017300000181421638,-0.005489999894052744,0.05565999820828438
6572.908238604461,1255328.0,0.0048500001430511475,-0.005679999943822622,-0.003809999907389283,0.05772000178694725
6572.9092383766765,1255329.0,0.011769999749958515,0.00031999999191612005,-0.0036800000816583633,0.06064999848604202
6572.910238148891,1255330.0,0.016489999368786812,0.003220000071451068,0.00031999999191612005,0.05745000019669533
6572.9112379211065,1255331.0,0.0147299999371171,0.008670000359416008,-0.0064500002190470695,0.05144999921321869
6572.912237693322,1255332.0,0.014820000156760216,0.0016299999551847577,-0.002319999970495701,0.05818000063300133
6572.913237465537,1255333.0,0.016979999840259552,0.009580000303685665,-0.0063599999994039536,0.05034999921917915
6572.914237237753,1255334.0,0.01981000043451786,0.0010400000028312206,0.002630000002682209,0.04893000051379204
6572.915237009967,1255335.0,0.01940999925136566,-0.0011399999493733048,-0.0036299999337643385,0.05488999933004379
6572.916236782183,1255336.0,0.016759999096393585,0.0,-0.004860000219196081,0.047200001776218414
6572.917236554398,1255337.0,0.012310000136494637,0.00031999999191612005,-0.002589999930933118,0.047200001776218414
6572.918236326614,1255338.0,0.0023799999617040157,0.001769999973475933,0.00795000046491623,0.05218999832868576
6572.919236098829,1255339.0,-0.007459999993443489,0.002319999970495701,0.00953999999910593,0.0449099987745285
6572.9202358710445,1255340.0,-0.015540000051259995,0.005590000189840794,0.0015899999998509884,0.046459998935461044
6572.921235643259,1255341.0,-0.0200399998575449,0.005900000222027302,0.005950000137090683,0.04952999949455261
6572.9222354154745,1255342.0,-0.02345000021159649,0.0013200000394135714,-0.001500000013038516,0.04280000180006027
6572.92323518769,1255343.0,-0.024620000272989273,-0.002589999930933118,-0.005679999943822622,0.04523000121116638
6572.924234959905,1255344.0,-0.020570000633597374,-0.005489999894052744,-0.009039999917149544,0.047200001776218414
6572.925234732121,1255345.0,-0.009700000286102295,-0.005179999861866236,0.00418000016361475,0.04055999964475632
6572.926234504335,1255346.0,0.002520000096410513,-0.005489999894052744,0.006719999946653843,0.045820001512765884
6572.927234276551,1255347.0,0.014999999664723873,-0.01221999991685152,0.012079999782145023,0.04334999993443489
6572.928234048766,1255348.0,0.023719999939203262,-0.013030000030994415,0.017980000004172325,0.038270000368356705
6572.929233820982,1255349.0,0.02914999984204769,-0.0019099999917671084,0.006680000107735395,0.044679999351501465
6572.930233593197,1255350.0,0.03248000144958496,-0.005489999894052744,0.013260000385344028,0.037629999220371246
6572.9312333654125,1255351.0,0.03162999823689461,-0.009720000438392162,0.00031999999191612005,0.04019000008702278
6572.932233137627,1255352.0,0.030460000038146973,-0.0018599999602884054,-0.005489999894052744,0.04280000180006027
6572.933232909842,1255353.0,0.028389999642968178,0.0027199999894946814,-0.008449999615550041,0.03621000051498413
6572.934232682058,1255354.0,0.02215000055730343,0.012260000221431255,-0.008860000409185886,0.034699998795986176
6572.935232454273,1255355.0,0.015860000625252724,0.010759999975562096,-0.012439999729394913,0.04134000092744827
6572.936232226489,1255356.0,0.011950000189244747,0.01104000024497509,-0.007079999893903732,0.03951000049710274
6572.937231998703,1255357.0,0.007369999773800373,0.01648000068962574,-0.01793999969959259,0.03401000052690506
6572.938231770919,1255358.0,0.0013899999903514981,0.015030000358819962,-0.01107999961823225,0.03621000051498413
6572.939231543134,1255359.0,-0.008539999835193157,0.017389999702572823,-0.010080000385642052,0.03937000036239624
6572.94023131535,1255360.0,-0.019859999418258667,-0.000590000010561198,-0.0036800000816583633,0.03328000009059906
6572.941231087565,1255361.0,-0.0301900003105402,-0.008630000054836273,-0.006219999864697456,0.034290000796318054
6572.9422308597805,1255362.0,-0.0350399985909462,-0.006579999811947346,-0.0036800000816583633,0.03830999881029129
6572.943230631995,1255363.0,-0.03423000127077103,-0.005900000222027302,0.00203999993391335,0.03200000151991844
6572.94423040421,1255364.0,-0.02785000018775463,-0.002589999930933118,-0.001230000052601099,0.037310000509023666
6572.945230176426,1255365.0,-0.015540000051259995,-0.006310000084340572,0.005450000055134296,0.036070000380277634
6572.946229948641,1255366.0,-0.0026100000832229853,-0.005489999894052744,-0.0027699999045580626,0.03136000037193298
6572.947229720857,1255367.0,0.009879999794065952,0.0031300000846385956,0.0024999999441206455,0.037539999932050705
6572.948229493071,1255368.0,0.0185100007802248,0.006130000110715628,0.002589999930933118,0.03139999881386757
6572.949229265287,1255369.0,0.023269999772310257,0.0030400000978261232,0.0017300000181421638,0.03305000066757202
6572.950229037502,1255370.0,0.02686000056564808,0.0013200000394135714,0.004900000058114529,0.03548000007867813
6572.951228809718,1255371.0,0.029069999232888222,0.002859999891370535,0.0022299999836832285,0.029980000108480453
6572.952228581933,1255372.0,0.0282600000500679,0.0031300000846385956,0.00203999993391335,0.035750001668930054
6572.9532283541475,1255373.0,0.026499999687075615,0.004410000052303076,0.002589999930933118,0.03474000096321106
6572.954228126363,1255374.0,0.023719999939203262,-0.006219999864697456,0.015169999562203884,0.029430000111460686
6572.955227898578,1255375.0,0.019990000873804092,-0.01104000024497509,0.004269999917596579,0.031860001385211945
6572.956227670794,1255376.0,0.014550000429153442,-0.009850000031292439,0.003000000026077032,0.03685000166296959
6572.957227443009,1255377.0,0.007770000025629997,0.0014100000262260437,-0.004129999782890081,0.03455999866127968
6572.958227215225,1255378.0,-0.0014400000218302011,-0.005630000028759241,0.0016799999866634607,0.029980000108480453
6572.959226987439,1255379.0,-0.01131999958306551,0.0024999999441206455,0.004679999779909849,0.029430000111460686
6572.960226759655,1255380.0,-0.01940999925136566,0.0083600003272295,0.0012700000079348683,0.03483999893069267
6572.96122653187,1255381.0,-0.026410000398755074,-0.0009500000160187483,0.007360000163316727,0.03621000051498413
6572.962226304086,1255382.0,-0.03117999993264675,-0.010850000195205212,0.00031999999191612005,0.030489999800920486
6572.963226076301,1255383.0,-0.030910000205039978,-0.012760000303387642,-0.004269999917596579,0.02961999922990799
6572.9642258485155,1255384.0,-0.027130000293254852,-0.013120000250637531,-0.0030900000128895044,0.03130999952554703
6572.965225620731,1255385.0,-0.020309999585151672,-0.016209999099373817,-0.002589999930933118,0.03658000007271767
6572.966225392946,1255386.0,-0.014240000396966934,-0.0019099999917671084,-0.003860000055283308,0.030939999967813492
6572.967225165162,1255387.0,-0.007550000213086605,0.00031999999191612005,-0.002360000042244792,0.03012000024318695
6572.968224937377,1255388.0,-0.0012100000167265534,0.00535999983549118,-0.003539999946951866,0.03621000051498413
6572.969224709592,1255389.0,0.001979999942705035,4.999999873689376e-05,-0.00571999978274107,0.03548000007867813
6572.970224481807,1255390.0,0.007009999826550484,0.0027699999045580626,-0.002859999891370535,0.03286999836564064
6572.971224254023,1255391.0,0.009970000013709068,0.008580000139772892,-0.005489999894052744,0.03666999936103821
6572.972224026238,1255392.0,0.0101500004529953,0.007400000002235174,-0.00044999999227002263,0.03378000110387802
6572.973223798454,1255393.0,0.010239999741315842,0.009669999592006207,-0.0033199999015778303,0.03305000066757202
6572.974223570669,1255394.0,0.012310000136494637,0.009039999917149544,-0.002409999957308173,0.03968999907374382
6572.9752233428835,1255395.0,0.014379999600350857,0.0018599999602884054,0.00031999999191612005,0.03310000151395798
6572.976223115099,1255396.0,0.015359999611973763,0.00031999999191612005,-0.003539999946951866,0.039639998227357864
6572.977222887314,1255397.0,0.014109999872744083,-0.004769999999552965,0.001230000052601099,0.032999999821186066
6572.97822265953,1255398.0,0.009159999899566174,-0.0018599999602884054,-0.003809999907389283,0.03937000036239624
6572.979222431745,1255399.0,0.000539999979082495,0.0002300000051036477,0.0016799999866634607,0.03621000051498413
6572.98022220396,1255400.0,-0.009159999899566174,0.001769999973475933,-0.001500000013038516,0.036479998379945755
6572.981221976175,1255401.0,-0.015540000051259995,-0.000859999970998615,0.0024999999441206455,0.04092000052332878
6572.982221748391,1255402.0,-0.02022000029683113,-0.002589999930933118,0.007079999893903732,0.03598000109195709
6572.983221520606,1255403.0,-0.02201000042259693,4.999999873689376e-05,0.001500000013038516,0.04275999963283539
6572.9842212928215,1255404.0,-0.018149999901652336,0.00031999999191612005,0.004220000002533197,0.03612000122666359
6572.985221065037,1255405.0,-0.007639999967068434,0.00031999999191612005,-0.0051299999468028545,0.042890001088380814
6572.9862208372515,1255406.0,0.005439999978989363,-0.004860000219196081,0.00267999991774559,0.037220001220703125
6572.987220609467,1255407.0,0.018869999796152115,-0.003809999907389283,0.005900000222027302,0.04242999851703644
6572.988220381682,1255408.0,0.029559999704360962,0.005400000140070915,-0.0006399999838322401,0.04453999921679497
6572.989220153898,1255409.0,0.03711000084877014,0.024700000882148743,-0.003909999970346689,0.043209999799728394
6572.990219926113,1255410.0,0.04097000136971474,0.016620000824332237,0.00031999999191612005,0.04535999894142151
6572.991219698328,1255411.0,0.043129999190568924,0.013580000028014183,0.0031300000846385956,0.04041999951004982
6572.992219470543,1255412.0,0.044429998844861984,0.006130000110715628,-0.006630000192672014,0.04788000136613846
6572.993219242759,1255413.0,0.04374999925494194,0.002360000042244792,-0.0005000000237487257,0.04129000008106232
6572.994219014974,1255414.0,0.043129999190568924,-0.004449999891221523,-0.0045900000259280205,0.047200001776218414
6572.9952187871895,1255415.0,0.042089998722076416,-0.007899999618530273,-0.002589999930933118,0.044039998203516006
6572.996218559405,1255416.0,0.039799999445676804,-0.01375999953597784,0.003909999970346689,0.047200001776218414
6572.9972183316195,1255417.0,0.03531000018119812,-0.01331000030040741,0.001769999973475933,0.04848000034689903
6572.998218103835,1255418.0,0.027400000020861626,-0.007579999975860119,0.003719999920576811,0.04453999921679497
6572.99921787605,1255419.0,0.018869999796152115,-0.0013599999947473407,-0.007400000002235174,0.05209000036120415
6573.000217648266,1255420.0,0.008179999887943268,-9.000000136438757e-05,-0.0003600000054575503,0.04513999819755554
6573.001217420481,1255421.0,-0.0014400000218302011,0.00031999999191612005,-0.0064500002190470695,0.053050000220537186
6573.002217192696,1255422.0,-0.007230000104755163,-0.002859999891370535,0.0016799999866634607,0.04673999920487404
6573.003216964911,1255423.0,-0.007550000213086605,-0.0045900000259280205,-0.002630000002682209,0.0546099990606308
6573.004216737127,1255424.0,-0.0005799999926239252,-0.008860000409185886,0.00031999999191612005,0.04828999936580658
6573.005216509342,1255425.0,0.00875999964773655,-0.00839999970048666,0.0030400000978261232,0.05451999977231026
6573.0062162815575,1255426.0,0.02012999914586544,-0.006579999811947346,-0.0033599999733269215,0.05113000050187111
6573.007216053773,1255427.0,0.03136000037193298,-0.0015399999683722854,0.00203999993391335,0.05012999847531319
6573.0082158259875,1255428.0,0.04303999990224838,-0.0019499999471008778,0.0028200000524520874,0.05713000148534775
6573.009215598203,1255429.0,0.051259998232126236,-0.002859999891370535,-0.0031300000846385956,0.05034999921917915
6573.010215370418,1255430.0,0.054269999265670776,0.0052200001664459705,4.999999873689376e-05,0.05869000032544136
6573.011215142634,1255431.0,0.052469998598098755,0.005950000137090683,0.00031999999191612005,0.05195999890565872
6573.012214914849,1255432.0,0.04936999827623367,0.004900000058114529,-0.002589999930933118,0.0546099990606308
6573.013214687064,1255433.0,0.04560000076889992,-0.002859999891370535,-0.0010400000028312206,0.05919000133872032
6573.014214459279,1255434.0,0.04326000064611435,-0.006039999891072512,0.0033199999015778303,0.05397000163793564
6573.015214231495,1255435.0,0.04106000065803528,-0.006680000107735395,0.003909999970346689,0.0596500001847744
6573.01621400371,1255436.0,0.04056999832391739,0.006130000110715628,0.0027699999045580626,0.0603800006210804
6573.0172137759255,1255437.0,0.038270000368356705,0.008170000277459621,0.0013200000394135714,0.05565999820828438
6573.01821354814,1255438.0,0.029650000855326653,0.013899999670684338,-0.0021800000686198473,0.06160999834537506
6573.019213320355,1255439.0,0.01841999962925911,0.013399999588727951,-0.004310000222176313,0.05982999876141548
6573.020213092571,1255440.0,0.007009999826550484,0.018120000138878822,-0.00571999978274107,0.06212000176310539
6573.021212864786,1255441.0,-0.0017500000540167093,0.012670000083744526,-0.0019099999917671084,0.05849999934434891
6573.022212637002,1255442.0,-0.007910000160336494,0.005810000002384186,-0.0022299999836832285,0.0652799978852272
6573.023212409217,1255443.0,-0.009879999794065952,-0.004769999999552965,-0.00203999993391335,0.059459999203681946
6573.024212181432,1255444.0,-0.007459999993443489,-0.013810000382363796,0.004679999779909849,0.06696999818086624
6573.025211953647,1255445.0,-0.0020699999295175076,-0.011309999972581863,-0.002950000111013651,0.061569999903440475
6573.026211725863,1255446.0,0.005030000116676092,-0.006769999861717224,0.00203999993391335,0.06820999830961227
6573.027211498078,1255447.0,0.013249999843537807,-0.006130000110715628,-0.004629999864846468,0.0618400014936924
6573.0282112702935,1255448.0,0.021199999377131462,0.0014100000262260437,-0.0008200000156648457,0.07054000347852707
6573.029211042508,1255449.0,0.0258799996227026,-0.0016799999866634607,-0.0002699999895412475,0.06372000277042389
6573.030210814723,1255450.0,0.0258799996227026,-0.0033199999015778303,0.004129999782890081,0.07136999815702438
6573.031210586939,1255451.0,0.022509999573230743,-0.001820000004954636,-0.00014000000373926014,0.06476999819278717
6573.032210359154,1255452.0,0.01891000010073185,-0.0015899999998509884,-0.0030400000978261232,0.06885000318288803
6573.03321013137,1255453.0,0.01679999940097332,0.0002699999895412475,-0.0035000001080334187,0.07062999904155731
6573.034209903584,1255454.0,0.015230000019073486,-0.0016799999866634607,0.001449999981559813,0.06908000260591507
6573.0352096758,1255455.0,0.014639999717473984,0.00014000000373926014,-0.002589999930933118,0.07300999760627747
6573.036209448015,1255456.0,0.009119999594986439,-0.002589999930933118,-0.0003600000054575503,0.0674699991941452
6573.037209220231,1255457.0,0.0002699999895412475,0.0007699999841861427,0.0014100000262260437,0.0758500024676323
6573.038208992446,1255458.0,-0.0088900001719594,0.0030400000978261232,-0.00203999993391335,0.06898000091314316
6573.039208764661,1255459.0,-0.0185100007802248,0.0024500000290572643,0.0018599999602884054,0.07297000288963318
6573.040208536876,1255460.0,-0.02776000089943409,-0.005810000002384186,-0.0031300000846385956,0.0751200020313263
6573.041208309091,1255461.0,-0.03468000143766403,0.0018599999602884054,0.0010400000028312206,0.07292000204324722
6573.042208081307,1255462.0,-0.0370200015604496,0.0013200000394135714,-0.0027199999894946814,0.07648999989032745
6573.043207853522,1255463.0,-0.03570999950170517,-0.001769999973475933,-0.003220000071451068,0.07191000133752823
6573.044207625738,1255464.0,-0.03297000005841255,-0.005770000163465738,0.00018000000272877514,0.07795999944210052
6573.045207397952,1255465.0,-0.02443999983370304,-0.00571999978274107,-0.0028200000524520874,0.0731000006198883
6573.046207170168,1255466.0,-0.012040000408887863,-0.0033599999733269215,-0.001500000013038516,0.07851000130176544
6573.047206942383,1255467.0,0.001979999942705035,-0.0036800000816583633,-0.00203999993391335,0.07401999831199646
6573.048206714599,1255468.0,0.015769999474287033,0.005770000163465738,-0.0003600000054575503,0.08152999728918076
6573.049206486814,1255469.0,0.023809999227523804,0.005040000192821026,-0.002589999930933118,0.07924000173807144
6573.050206259029,1255470.0,0.02622999995946884,-0.009039999917149544,-0.00014000000373926014,0.07457000017166138
6573.051206031244,1255471.0,0.025340000167489052,-0.04328000172972679,-0.0010400000028312206,0.0832199975848198
6573.052205803459,1255472.0,0.021740000694990158,-0.034790001809597015,0.003220000071451068,0.08033999800682068
6573.053205575675,1255473.0,0.0175199992954731,-0.009359999559819698,0.002859999891370535,0.07613000273704529
6573.05420534789,1255474.0,0.01508999988436699,0.00031999999191612005,-0.0002699999895412475,0.08367999643087387
6573.055205120106,1255475.0,0.014960000291466713,0.025019999593496323,0.0072200000286102295,0.0816200003027916
6573.05620489232,1255476.0,0.01508999988436699,0.020659999921917915,-0.003909999970346689,0.07648999989032745
6573.057204664536,1255477.0,0.014109999872744083,0.021209999918937683,0.0031799999997019768,0.08459000289440155
6573.058204436751,1255478.0,0.007230000104755163,0.019619999453425407,0.001180000021122396,0.07732000201940536
6573.059204208967,1255479.0,-0.005570000037550926,0.019940000027418137,-0.0036800000816583633,0.08079999685287476
6573.060203981182,1255480.0,-0.020309999585151672,0.016580000519752502,-0.0010400000028312206,0.0840499997138977
6573.061203753397,1255481.0,-0.03181000053882599,0.01720999926328659,-0.007670000195503235,0.0775500014424324
6573.062203525612,1255482.0,-0.03584999963641167,0.014440000057220459,-0.0051299999468028545,0.07970000058412552
6573.063203297827,1255483.0,-0.03558000177145004,0.0019499999471008778,-0.004000000189989805,0.08533000200986862
6573.064203070043,1255484.0,-0.03162999823689461,-0.003000000026077032,-0.00018000000272877514,0.08340000361204147
6573.065202842258,1255485.0,-0.024979999288916588,-0.00267999991774559,-0.0011399999493733048,0.07831999659538269
6573.066202614474,1255486.0,-0.016850000247359276,0.0019499999471008778,-0.0016299999551847577,0.07868999987840652
6573.067202386688,1255487.0,-0.005929999984800816,-0.00041000000783242285,0.00031999999191612005,0.08545999974012375
6573.068202158904,1255488.0,0.0053900000639259815,-0.0007300000288523734,0.00494999997317791,0.07937999814748764
6573.069201931119,1255489.0,0.014109999872744083,0.00031999999191612005,0.005810000002384186,0.07896000146865845
6573.0702017033345,1255490.0,0.021069999784231186,-0.0013200000394135714,0.002859999891370535,0.08629000186920166
6573.07120147555,1255491.0,0.025340000167489052,-0.0011399999493733048,0.00031999999191612005,0.0798799991607666
6573.072201247765,1255492.0,0.026499999687075615,0.004310000222176313,-0.0017300000181421638,0.07919000089168549
6573.07320101998,1255493.0,0.02215000055730343,0.00018000000272877514,-0.006039999891072512,0.08601000159978867
6573.074200792195,1255494.0,0.013659999705851078,0.00686000008136034,-0.0018599999602884054,0.08449999988079071
6573.075200564411,1255495.0,0.006060000043362379,0.0059899999760091305,-0.006219999864697456,0.07863999903202057
6573.076200336626,1255496.0,-0.0008099999977275729,-0.0003600000054575503,-0.002090000081807375,0.08632999658584595
6573.077200108842,1255497.0,-0.006020000204443932,0.003719999920576811,0.007449999917298555,0.08363000303506851
6573.078199881056,1255498.0,-0.013570000417530537,0.0009500000160187483,0.01558000035583973,0.07896000146865845
6573.079199653272,1255499.0,-0.02151999995112419,-0.002589999930933118,0.009850000031292439,0.08344999700784683
6573.080199425487,1255500.0,-0.02928999997675419,0.0027199999894946814,0.0072200000286102295,0.08513999730348587
6573.0811991977025,1255501.0,-0.037289999425411224,-0.003539999946951866,-0.0002300000051036477,0.0782800018787384
6573.082198969918,1255502.0,-0.040300000458955765,-0.0003600000054575503,-0.000539999979082495,0.08038000017404556
6573.0831987421325,1255503.0,-0.03886000066995621,-0.006039999891072512,-0.004040000028908253,0.08463999629020691
6573.084198514348,1255504.0,-0.031539998948574066,-0.007860000245273113,-0.0033199999015778303,0.07831999659538269
6573.085198286563,1255505.0,-0.022059999406337738,-0.0071299998089671135,-0.0010400000028312206,0.08414000272750854
6573.086198058779,1255506.0,-0.011950000189244747,-0.00989999994635582,-0.002589999930933118,0.0823500007390976
6573.087197830994,1255507.0,-0.0014400000218302011,-0.00839999970048666,-0.002319999970495701,0.07886999845504761
6573.08819760321,1255508.0,0.009879999794065952,-0.0024500000290572643,-0.002630000002682209,0.08367999643087387
6573.089197375424,1255509.0,0.01769999973475933,-0.004040000028908253,-0.004410000052303076,0.07777000218629837
6573.09019714764,1255510.0,0.023000000044703484,0.007579999975860119,0.0009500000160187483,0.08371999859809875
6573.091196919855,1255511.0,0.023809999227523804,0.008899999782443047,-0.0022299999836832285,0.08124999701976776
6573.0921966920705,1255512.0,0.020309999585151672,0.002859999891370535,-0.005770000163465738,0.07575999945402145
6573.093196464286,1255513.0,0.0147299999371171,0.005270000081509352,0.00031999999191612005,0.08376999944448471
6573.0941962365005,1255514.0,0.010200000368058681,-0.0005000000237487257,-0.005489999894052744,0.07616999745368958
6573.095196008716,1255515.0,0.005880000069737434,0.007079999893903732,-0.0013200000394135714,0.07831999659538269
6573.096195780931,1255516.0,0.0027000000700354576,0.0019499999471008778,-0.0018599999602884054,0.08225999772548676
6573.097195553147,1255517.0,-0.0033199999015778303,0.008129999972879887,-0.0010400000028312206,0.07553000003099442
6573.098195325362,1255518.0,-0.011500000022351742,0.0059899999760091305,0.004310000222176313,0.0830800011754036
6573.099195097577,1255519.0,-0.01971999928355217,0.004679999779909849,-0.003539999946951866,0.07502999901771545
6573.100194869792,1255520.0,-0.028030000627040863,0.008990000002086163,0.0037700000684708357,0.07744999974966049
6573.101194642008,1255521.0,-0.031449999660253525,-0.0029100000392645597,0.001449999981559813,0.07997000217437744
6573.102194414223,1255522.0,-0.032340001314878464,-0.004129999782890081,-0.0010000000474974513,0.07378999888896942
6573.1031941864385,1255523.0,-0.03109000064432621,-0.007670000195503235,0.006130000110715628,0.08043000102043152
6573.104193958654,1255524.0,-0.025340000167489052,-0.007040000054985285,-0.0015399999683722854,0.07419999688863754
6573.105193730868,1255525.0,-0.015230000019073486,0.00018000000272877514,-0.000910000002477318,0.08056999742984772
6573.106193503084,1255526.0,-0.004720000084489584,-0.000859999970998615,-0.0016799999866634607,0.07320000231266022
6573.107193275299,1255527.0,0.004540000110864639,-0.0006799999973736703,-0.005900000222027302,0.08051999658346176
6573.108193047515,1255528.0,0.014550000429153442,-9.000000136438757e-05,-0.0027699999045580626,0.07712999731302261
6573.10919281973,1255529.0,0.023000000044703484,0.007449999917298555,0.001769999973475933,0.0726500004529953
6573.110192591945,1255530.0,0.03229999914765358,0.005539999809116125,0.007809999864548445,0.07927999645471573
6573.11119236416,1255531.0,0.03822999820113182,-0.0002699999895412475,0.0031300000846385956,0.07219000160694122
6573.112192136376,1255532.0,0.04097000136971474,0.0024500000290572643,0.005400000140070915,0.07795999944210052
6573.113191908591,1255533.0,0.04066000133752823,0.002630000002682209,0.0018599999602884054,0.07419999688863754
6573.1141916808065,1255534.0,0.037470001727342606,0.00203999993391335,0.003220000071451068,0.07219000160694122
6573.115191453022,1255535.0,0.033649999648332596,-0.004679999779909849,-0.005090000107884407,0.07777000218629837
6573.116191225236,1255536.0,0.0301900003105402,-0.004269999917596579,-0.003590000094845891,0.07062999904155731
6573.117190997452,1255537.0,0.026639999821782112,-0.003449999960139394,-0.0036800000816583633,0.07795999944210052
6573.118190769667,1255538.0,0.02102000080049038,0.0024999999441206455,-0.001769999973475933,0.07539000362157822
6573.119190541883,1255539.0,0.01384000014513731,0.014120000414550304,-0.014709999784827232,0.07346999645233154
6573.120190314098,1255540.0,0.00547999981790781,0.01370999962091446,-0.020029999315738678,0.07558000087738037
6573.121190086313,1255541.0,-0.0033199999015778303,0.011719999834895134,-0.011939999647438526,0.07062999904155731
6573.122189858528,1255542.0,-0.00925000011920929,0.005900000222027302,-0.008670000359416008,0.07635000348091125
6573.123189630744,1255543.0,-0.011769999749958515,0.005900000222027302,-0.00267999991774559,0.06911999732255936
6573.124189402959,1255544.0,-0.0101500004529953,0.0010400000028312206,-0.0013200000394135714,0.07530000060796738
6573.1251891751745,1255545.0,-0.005080000031739473,0.0010400000028312206,0.013399999588727951,0.06976000219583511
6573.12618894739,1255546.0,0.0033199999015778303,-0.00267999991774559,0.016030000522732735,0.07613000273704529
6573.127188719604,1255547.0,0.01348000019788742,-0.010940000414848328,0.02184000052511692,0.06916999816894531
6573.12818849182,1255548.0,0.025469999760389328,-0.014259999617934227,0.021929999813437462,0.07581000030040741
6573.129188264035,1255549.0,0.035259999334812164,-0.011669999919831753,0.028519999235868454,0.06916999816894531
6573.130188036251,1255550.0,0.03971000015735626,-0.012529999949038029,0.018120000138878822,0.07539000362157822
6573.131187808466,1255551.0,0.041999999433755875,0.001769999973475933,0.005489999894052744,0.06843999773263931
6573.132187580681,1255552.0,0.04205000028014183,0.006810000166296959,-0.017170000821352005,0.07489000260829926
6573.133187352896,1255553.0,0.04052000120282173,0.00031999999191612005,-0.022929999977350235,0.06838999688625336
6573.134187125112,1255554.0,0.03809000179171562,-0.003860000055283308,-0.027470000088214874,0.07466000318527222
6573.135186897327,1255555.0,0.03711000084877014,-0.0051299999468028545,-0.02816000021994114,0.06765999644994736
6573.136186669542,1255556.0,0.03472999855875969,-0.002589999930933118,-0.019300000742077827,0.0748400017619133
6573.137186441758,1255557.0,0.028750000521540642,0.00267999991774559,-0.0011399999493733048,0.06779000163078308
6573.138186213972,1255558.0,0.02012999914586544,0.0072200000286102295,0.009359999559819698,0.07383999973535538
6573.139185986188,1255559.0,0.010420000180602074,0.008670000359416008,0.02061999961733818,0.06719999760389328
6573.140185758403,1255560.0,-0.0016199999954551458,0.0021800000686198473,0.022029999643564224,0.0733800008893013
6573.141185530619,1255561.0,-0.010239999741315842,-0.003860000055283308,0.023019999265670776,0.06724999845027924
6573.142185302834,1255562.0,-0.013930000364780426,-0.012439999729394913,0.0272000003606081,0.07346999645233154
6573.143185075049,1255563.0,-0.01384000014513731,-0.011989999562501907,0.020479999482631683,0.06641999632120132
6573.144184847264,1255564.0,-0.00610999995842576,-0.00686000008136034,0.008170000277459621,0.0731000006198883
6573.14518461948,1255565.0,0.004310000222176313,-0.012760000303387642,0.002409999957308173,0.06641999632120132
6573.146184391695,1255566.0,0.016259999945759773,-0.01066999975591898,-0.014940000139176846,0.07292000204324722
6573.14718416391,1255567.0,0.02785000018775463,-0.0059899999760091305,-0.015890000388026237,0.06577999889850616
6573.148183936125,1255568.0,0.03773999959230423,-9.000000136438757e-05,-0.023070000112056732,0.06769999861717224
6573.14918370834,1255569.0,0.04307999834418297,0.00571999978274107,-0.019659999758005142,0.07158999890089035
6573.150183480556,1255570.0,0.0456399992108345,0.00031999999191612005,-0.014990000054240227,0.065870001912117
6573.151183252771,1255571.0,0.04456000030040741,-0.0009500000160187483,-0.01711999997496605,0.06943999975919724
6573.152183024987,1255572.0,0.04154999926686287,0.007579999975860119,-0.01181000005453825,0.07173000276088715
6573.153182797202,1255573.0,0.03531000018119812,-0.005950000137090683,-0.00571999978274107,0.06545999646186829
6573.154182569417,1255574.0,0.03027999959886074,-0.002319999970495701,-0.00014000000373926014,0.06473000347614288
6573.155182341632,1255575.0,0.024800000712275505,-0.0013200000394135714,0.006579999811947346,0.07173000276088715
6573.1561821138475,1255576.0,0.019680000841617584,0.003220000071451068,0.0031799999997019768,0.07282999902963638
6573.157181886063,1255577.0,0.01348000019788742,0.010850000195205212,-0.0007699999841861427,0.07039999961853027
6573.158181658278,1255578.0,0.0034099998883903027,0.006490000057965517,0.005590000189840794,0.06560000032186508
6573.159181430493,1255579.0,-0.007860000245273113,0.004310000222176313,0.0017300000181421638,0.06853000074625015
6573.160181202708,1255580.0,-0.020080000162124634,0.005950000137090683,0.001230000052601099,0.07173000276088715
6573.161180974924,1255581.0,-0.02889000065624714,0.005400000140070915,-0.0036299999337643385,0.06984999775886536
6573.162180747139,1255582.0,-0.03531000018119812,0.004360000137239695,-0.00267999991774559,0.06509000062942505
6573.163180519355,1255583.0,-0.037470001727342606,0.004769999999552965,-0.0006399999838322401,0.07209999859333038
6573.164180291569,1255584.0,-0.03413999825716019,-0.004040000028908253,0.0014100000262260437,0.07062999904155731
6573.165180063785,1255585.0,-0.026499999687075615,-0.00839999970048666,-0.007720000110566616,0.06545999646186829
6573.166179836,1255586.0,-0.015629999339580536,-0.0033199999015778303,-0.006949999835342169,0.07209999859333038
6573.1671796082155,1255587.0,-0.00279000005684793,-0.004809999838471413,-0.000859999970998615,0.06476999819278717
6573.168179380431,1255588.0,0.009610000066459179,-0.0052200001664459705,-0.0033199999015778303,0.07292000204324722
6573.169179152646,1255589.0,0.01779000088572502,0.0002699999895412475,0.002409999957308173,0.06623999774456024
6573.170178924861,1255590.0,0.02102000080049038,0.0017300000181421638,0.0059899999760091305,0.06650999933481216
6573.171178697076,1255591.0,0.020260000601410866,0.00267999991774559,0.00989999994635582,0.07355999946594238
6573.172178469292,1255592.0,0.01689000055193901,0.00031999999191612005,0.013489999808371067,0.06696999818086624
6573.173178241507,1255593.0,0.008489999920129776,-0.005590000189840794,0.014310000464320183,0.06560000032186508
6573.174178013723,1255594.0,-0.000539999979082495,-0.001180000021122396,0.008310000412166119,0.07401999831199646
6573.175177785937,1255595.0,-0.009970000013709068,-0.00018000000272877514,0.009449999779462814,0.07181999832391739
6573.176177558153,1255596.0,-0.021789999678730965,-0.0045900000259280205,0.0024999999441206455,0.06802000105381012
6573.177177330368,1255597.0,-0.03513000160455704,0.001180000021122396,-0.002409999957308173,0.07451999932527542
6573.1781771025835,1255598.0,-0.053050000220537186,0.00203999993391335,-0.009039999917149544,0.06807000190019608
6573.179176874799,1255599.0,-0.07384999841451645,0.0010900000343099236,-0.014940000139176846,0.07562000304460526
6573.180176647014,1255600.0,-0.09460999816656113,0.004900000058114529,-0.006630000192672014,0.07320000231266022
6573.181176419229,1255601.0,-0.11225999891757965,0.002319999970495701,-0.007269999943673611,0.06888999789953232
6573.182176191444,1255602.0,-0.12533000111579895,-0.0033199999015778303,-0.010579999536275864,0.07639999687671661
6573.18317596366,1255603.0,-0.13494999706745148,0.0021299999207258224,0.002090000081807375,0.07539000362157822
6573.184175735875,1255604.0,-0.14069999754428864,-0.008899999782443047,-0.001769999973475933,0.06989999860525131
6573.185175508091,1255605.0,-0.14590999484062195,-0.0027199999894946814,0.003949999809265137,0.07022000104188919
6573.186175280305,1255606.0,-0.1507599949836731,-0.003590000094845891,-0.002950000111013651,0.07805000245571136
6573.187175052521,1255607.0,-0.15395000576972961,-0.0022299999836832285,0.007079999893903732,0.07562000304460526
6573.188174824736,1255608.0,-0.1544400006532669,-0.0015399999683722854,0.00031999999191612005,0.07186999917030334
6573.1891745969515,1255609.0,-0.15498000383377075,0.003949999809265137,0.002630000002682209,0.07269000262022018
6573.190174369167,1255610.0,-0.15826000273227692,0.011939999647438526,-0.002090000081807375,0.07896000146865845
6573.191174141382,1255611.0,-0.1609099954366684,0.011579999700188637,-0.0027199999894946814,0.07795999944210052
6573.192173913597,1255612.0,-0.16154000163078308,0.007770000025629997,0.00018000000272877514,0.07282999902963638
6573.193173685812,1255613.0,-0.16186000406742096,0.0017300000181421638,-0.001230000052601099,0.07232999801635742
6573.194173458028,1255614.0,-0.16001999378204346,0.004040000028908253,0.0021299999207258224,0.07927999645471573
6573.195173230243,1255615.0,-0.15723000466823578,0.0025400000158697367,-0.0013599999947473407,0.08028999716043472
6573.196173002459,1255616.0,-0.15067000687122345,-0.006039999891072512,0.004679999779909849,0.07442999631166458
6573.197172774673,1255617.0,-0.14101000130176544,0.0027699999045580626,-0.0007699999841861427,0.07442999631166458
6573.198172546889,1255618.0,-0.13530999422073364,0.004269999917596579,0.003719999920576811,0.08298999816179276
6573.199172319104,1255619.0,-0.13243000209331512,0.0028200000524520874,-0.000910000002477318,0.08025000244379044
6573.2001720913195,1255620.0,-0.125560000538826,0.003220000071451068,9.000000136438757e-05,0.07553000003099442
6573.201171863535,1255621.0,-0.11445999890565872,0.004040000028908253,-0.000539999979082495,0.07942000031471252
6573.20217163575,1255622.0,-0.09560000151395798,-0.0005000000237487257,-0.001230000052601099,0.0840499997138977
6573.203171407965,1255623.0,-0.07116000354290009,0.002589999930933118,0.00018000000272877514,0.0831800028681755
6573.20417118018,1255624.0,-0.038270000368356705,0.005770000163465738,-0.0036800000816583633,0.07750000059604645
6573.205170952396,1255625.0,0.0033199999015778303,-0.0011399999493733048,0.00031999999191612005,0.07891999930143356
6573.206170724611,1255626.0,0.052469998598098755,0.005539999809116125,0.003449999960139394,0.08079999685287476
6573.207170496827,1255627.0,0.09882999956607819,0.0017300000181421638,0.0021800000686198473,0.0863799974322319
6573.208170269041,1255628.0,0.1362999975681305,-0.000539999979082495,0.004360000137239695,0.08601000159978867
6573.209170041257,1255629.0,0.16315999627113342,0.00031999999191612005,0.001769999973475933,0.07970000058412552
6573.210169813472,1255630.0,0.1784300059080124,0.0019499999471008778,0.006949999835342169,0.07997000217437744
6573.2111695856875,1255631.0,0.1808599978685379,-0.0017300000181421638,0.001769999973475933,0.08629000186920166
6573.212169357903,1255632.0,0.18615999817848206,0.002090000081807375,-0.0021800000686198473,0.0872500017285347
6573.213169130117,1255633.0,0.2003600001335144,0.0014100000262260437,0.006089999806135893,0.0808899998664856
6573.214168902333,1255634.0,0.22362999618053436,0.00031999999191612005,-0.0031300000846385956,0.0817599967122078
6573.215168674548,1255635.0,0.2500399947166443,-0.001500000013038516,0.0030900000128895044,0.08806999772787094
6573.216168446764,1255636.0,0.26993998885154724,0.00031999999191612005,-0.0015399999683722854,0.08821000158786774
6573.217168218979,1255637.0,0.27978000044822693,0.002409999957308173,-0.004720000084489584,0.08720000088214874
6573.218167991195,1255638.0,0.2851699888706207,0.0030900000128895044,0.00031999999191612005,0.0823500007390976
6573.219167763409,1255639.0,0.28769001364707947,-0.00041000000783242285,-0.003449999960139394,0.0823500007390976
6573.220167535625,1255640.0,0.28341999650001526,0.0035000001080334187,0.00018000000272877514,0.0863799974322319
6573.22116730784,1255641.0,0.27312999963760376,0.0011399999493733048,-0.0002300000051036477,0.09096000343561172
6573.222167080055,1255642.0,0.2574099898338318,-0.0051299999468028545,0.0027699999045580626,0.08976999670267105
6573.223166852271,1255643.0,0.2415499985218048,-0.00803999975323677,0.003449999960139394,0.08376999944448471
6573.224166624485,1255644.0,0.2332800030708313,-0.008949999697506428,-0.004860000219196081,0.08437000215053558
6573.225166396701,1255645.0,0.22987000644207,-0.004410000052303076,0.00031999999191612005,0.08449999988079071
6573.226166168916,1255646.0,0.22914999723434448,-0.00014000000373926014,-0.004809999838471413,0.08816999942064285
6573.227165941132,1255647.0,0.23071999847888947,0.003860000055283308,-0.008860000409185886,0.09114000201225281
6573.228165713347,1255648.0,0.23309999704360962,0.003220000071451068,0.001769999973475933,0.0888499990105629
6573.229165485563,1255649.0,0.23701000213623047,-0.0014100000262260437,-0.003909999970346689,0.08399999886751175
6573.230165257777,1255650.0,0.23592999577522278,-4.999999873689376e-05,0.0021299999207258224,0.08574000000953674
6573.231165029993,1255651.0,0.22191999852657318,0.0018599999602884054,-0.001449999981559813,0.0914200022816658
6573.232164802208,1255652.0,0.20000000298023224,0.006680000107735395,0.0014100000262260437,0.08922000229358673
6573.233164574423,1255653.0,0.17735999822616577,0.010759999975562096,-0.0015399999683722854,0.08344999700784683
6573.234164346639,1255654.0,0.15515999495983124,0.0044999998062849045,0.0027699999045580626,0.08371999859809875
6573.235164118853,1255655.0,0.13117000460624695,0.00014000000373926014,-0.0002699999895412475,0.09072999656200409
6573.236163891069,1255656.0,0.10395000129938126,-0.0013599999947473407,0.0024999999441206455,0.0824899971485138
6573.237163663284,1255657.0,0.07614000141620636,0.00018000000272877514,0.003220000071451068,0.08707000315189362
6573.2381634355,1255658.0,0.04820000007748604,0.00571999978274107,-0.004040000028908253,0.08821000158786774
6573.239163207715,1255659.0,0.021199999377131462,0.006130000110715628,0.001180000021122396,0.08271999657154083
6573.24016297993,1255660.0,-0.004629999864846468,0.006719999946653843,0.002090000081807375,0.08968000113964081
6573.241162752145,1255661.0,-0.026909999549388885,-0.001230000052601099,0.003449999960139394,0.0817599967122078
6573.2421625243605,1255662.0,-0.042319998145103455,-0.001180000021122396,-0.0003600000054575503,0.08675000071525574
6573.243162296576,1255663.0,-0.05355000123381615,-0.0036800000816583633,-0.004410000052303076,0.08156999945640564
6573.244162068791,1255664.0,-0.058889999985694885,-0.006039999891072512,-0.004040000028908253,0.0808899998664856
6573.245161841007,1255665.0,-0.05993000045418739,-0.0045900000259280205,-0.004129999782890081,0.08587999641895294
6573.246161613221,1255666.0,-0.05691999942064285,-0.0031799999997019768,-0.0031799999997019768,0.07878000289201736
6573.247161385437,1255667.0,-0.050039999186992645,-0.005900000222027302,-0.005489999894052744,0.08568999916315079
6573.248161157652,1255668.0,-0.041280001401901245,-0.001500000013038516,0.00031999999191612005,0.07813999801874161
6573.249160929868,1255669.0,-0.03539999946951866,-0.0002699999895412475,-0.0051299999468028545,0.08500999957323074
6573.250160702083,1255670.0,-0.030910000205039978,0.003949999809265137,0.0024999999441206455,0.07777000218629837
6573.251160474298,1255671.0,-0.028389999642968178,0.005040000192821026,0.00031999999191612005,0.08033999800682068
6573.252160246513,1255672.0,-0.027939999476075172,0.00418000016361475,0.006990000139921904,0.0808899998664856
6573.2531600187285,1255673.0,-0.030820000916719437,0.00031999999191612005,0.0014100000262260437,0.07635000348091125
6573.254159790944,1255674.0,-0.03297000005841255,0.00031999999191612005,-0.00041000000783242285,0.08070000261068344
6573.255159563159,1255675.0,-0.03311000019311905,-0.001769999973475933,0.013120000250637531,0.07383999973535538
6573.256159335375,1255676.0,-0.03423000127077103,-0.010940000414848328,0.01298999972641468,0.08038000017404556
6573.257159107589,1255677.0,-0.03621000051498413,-0.006579999811947346,0.012620000168681145,0.07259999960660934
6573.258158879805,1255678.0,-0.042319998145103455,0.003449999960139394,0.0031300000846385956,0.07863999903202057
6573.25915865202,1255679.0,-0.05144000053405762,0.006539999973028898,-0.002950000111013651,0.07062999904155731
6573.260158424236,1255680.0,-0.06216999888420105,0.007579999975860119,-0.00839999970048666,0.07154999673366547
6573.261158196451,1255681.0,-0.06989999860525131,0.007770000025629997,-0.004769999999552965,0.07434000074863434
6573.262157968666,1255682.0,-0.07489000260829926,-0.003860000055283308,-0.008170000277459621,0.07062999904155731
6573.263157740881,1255683.0,-0.07614000141620636,-0.003860000055283308,-0.005489999894052744,0.06769999861717224
6573.2641575130965,1255684.0,-0.07232999801635742,-0.004720000084489584,-0.008580000139772892,0.07259999960660934
6573.265157285312,1255685.0,-0.06451000273227692,-0.00839999970048666,-0.002090000081807375,0.06623999774456024
6573.266157057527,1255686.0,-0.05502999946475029,-0.004769999999552965,-0.005489999894052744,0.07118000090122223
6573.267156829743,1255687.0,-0.04586999863386154,-0.004089999943971634,-0.0019499999471008778,0.0692100003361702
6573.268156601957,1255688.0,-0.0370200015604496,-0.0019099999917671084,-0.00839999970048666,0.066600002348423
6573.269156374173,1255689.0,-0.0301900003105402,0.00014000000373926014,-0.0036800000816583633,0.06769999861717224
6573.270156146388,1255690.0,-0.025830000638961792,0.003809999907389283,-0.0019099999917671084,0.0618400014936924
6573.271155918604,1255691.0,-0.024800000712275505,0.003949999809265137,0.0015399999683722854,0.06769999861717224
6573.272155690819,1255692.0,-0.02384999953210354,0.0044999998062849045,-0.002859999891370535,0.06088000163435936
6573.273155463034,1255693.0,-0.02402999997138977,0.0071299998089671135,-0.00014000000373926014,0.06618999689817429
6573.274155235249,1255694.0,-0.023719999939203262,0.003000000026077032,-0.0033199999015778303,0.06322000175714493
6573.2751550074645,1255695.0,-0.023089999333024025,0.0016799999866634607,-0.003860000055283308,0.06061000004410744
6573.27615477968,1255696.0,-0.02314000017940998,0.0072200000286102295,-0.0063599999994039536,0.06244000047445297
6573.277154551895,1255697.0,-0.02507000043988228,0.008310000412166119,-0.0036800000816583633,0.055980000644922256
6573.27815432411,1255698.0,-0.03189999982714653,0.005770000163465738,-0.006130000110715628,0.06171000003814697
6573.279154096325,1255699.0,-0.039080001413822174,0.011260000057518482,-0.0006399999838322401,0.05483999848365784
6573.280153868541,1255700.0,-0.048340000212192535,0.007040000054985285,0.0037700000684708357,0.059369999915361404
6573.281153640756,1255701.0,-0.056060001254081726,-0.0015899999998509884,0.0059899999760091305,0.054019998759031296
6573.282153412972,1255702.0,-0.0611799992620945,-0.006579999811947346,0.015990000218153,0.057999998331069946
6573.283153185187,1255703.0,-0.060509998351335526,-0.014990000054240227,0.018120000138878822,0.052000001072883606
6573.284152957402,1255704.0,-0.054090000689029694,-0.016030000522732735,0.014670000411570072,0.055980000644922256
6573.285152729617,1255705.0,-0.043310001492500305,-0.01221999991685152,0.006810000166296959,0.05415000021457672
6573.2861525018325,1255706.0,-0.030640000477433205,-0.006579999811947346,0.003220000071451068,0.04966999962925911
6573.287152274048,1255707.0,-0.017969999462366104,-0.0012700000079348683,-0.001500000013038516,0.05525000020861626
6573.288152046263,1255708.0,-0.00547999981790781,-0.0011399999493733048,-0.008270000107586384,0.047929998487234116
6573.289151818478,1255709.0,0.002520000096410513,0.004679999779909849,-0.01107999961823225,0.053279999643564224
6573.290151590693,1255710.0,0.008179999887943268,0.0014100000262260437,-0.003449999960139394,0.05031000077724457
6573.291151362909,1255711.0,0.01181000005453825,0.002409999957308173,-0.006769999861717224,0.045409999787807465
6573.292151135124,1255712.0,0.013749999925494194,0.00031999999191612005,0.0016799999866634607,0.05121999979019165
6573.29315090734,1255713.0,0.01128000020980835,0.006399999838322401,-0.000910000002477318,0.04366999864578247
6573.294150679555,1255714.0,0.008980000391602516,0.003220000071451068,-0.006039999891072512,0.05067000165581703
6573.29515045177,1255715.0,0.009789999574422836,0.002409999957308173,0.002859999891370535,0.04293999820947647
6573.296150223985,1255716.0,0.01271000038832426,0.001769999973475933,-0.004769999999552965,0.04334999993443489
6573.2971499962005,1255717.0,0.013659999705851078,0.004679999779909849,-0.0022299999836832285,0.0456399992108345
6573.298149768416,1255718.0,0.007770000025629997,0.005950000137090683,-0.004089999943971634,0.04024000093340874
6573.299149540631,1255719.0,-0.0017999999690800905,0.006130000110715628,-0.005489999894052744,0.045499999076128006
6573.300149312846,1255720.0,-0.01217000000178814,0.006680000107735395,0.002319999970495701,0.0384100005030632
6573.301149085061,1255721.0,-0.020309999585151672,0.0037700000684708357,-0.0034099998883903027,0.041110001504421234
6573.302148857277,1255722.0,-0.028030000627040863,-0.005489999894052744,0.0013200000394135714,0.04317000135779381
6573.303148629492,1255723.0,-0.03279000148177147,-0.00880999956279993,-0.0033199999015778303,0.03658000007271767
6573.304148401708,1255724.0,-0.030009999871253967,-0.01063000038266182,-0.0022700000554323196,0.03401000052690506
6573.305148173922,1255725.0,-0.021379999816417694,-0.010400000028312206,-0.005489999894052744,0.04123999923467636
6573.306147946138,1255726.0,-0.010239999741315842,-0.0033199999015778303,-0.0052200001664459705,0.0391400009393692
6573.307147718353,1255727.0,0.0023399998899549246,-0.0019099999917671084,-0.0006399999838322401,0.03282000124454498
6573.308147490568,1255728.0,0.009840000420808792,-0.000859999970998615,-0.00044999999227002263,0.03181000053882599
6573.309147262784,1255729.0,0.015270000323653221,0.006130000110715628,0.005770000163465738,0.032910000532865524
6573.310147034999,1255730.0,0.018869999796152115,0.009039999917149544,0.007809999864548445,0.03694000095129013
6573.311146807214,1255731.0,0.02022000029683113,-0.0034099998883903027,0.00494999997317791,0.0340999998152256
6573.312146579429,1255732.0,0.019179999828338623,-0.0019099999917671084,-0.0008200000156648457,0.028880000114440918
6573.313146351645,1255733.0,0.017389999702572823,0.0006399999838322401,-0.0037700000684708357,0.026690000668168068
6573.31414612386,1255734.0,0.015449999831616879,0.005590000189840794,0.0021299999207258224,0.030619999393820763
6573.315145896076,1255735.0,0.0142000000923872,0.002859999891370535,0.0010400000028312206,0.03254999965429306
6573.31614566829,1255736.0,0.0147299999371171,0.011669999919831753,-0.0051299999468028545,0.02961999922990799
6573.317145440506,1255737.0,0.014999999664723873,0.005270000081509352,9.000000136438757e-05,0.024809999391436577
6573.318145212721,1255738.0,0.011680000461637974,0.00031999999191612005,-0.005179999861866236,0.02339000068604946
6573.319144984936,1255739.0,0.005750000011175871,0.004000000189989805,-0.002859999891370535,0.028750000521540642
6573.320144757152,1255740.0,0.0002699999895412475,0.0024999999441206455,0.0010400000028312206,0.026820000261068344
6573.321144529367,1255741.0,-0.005750000011175871,-0.00267999991774559,0.002859999891370535,0.021330000832676888
6573.322144301582,1255742.0,-0.007819999940693378,-0.003860000055283308,0.007540000136941671,0.019360000267624855
6573.323144073797,1255743.0,-0.00773000018671155,-0.0033599999733269215,0.003590000094845891,0.026000000536441803
6573.324143846013,1255744.0,-0.004670000169426203,-0.005859999917447567,0.004679999779909849,0.02266000024974346
6573.325143618228,1255745.0,0.0027000000700354576,-0.003719999920576811,0.0010000000474974513,0.017810000106692314
6573.326143390444,1255746.0,0.013120000250637531,-0.000590000010561198,0.006130000110715628,0.019130000844597816
6573.327143162658,1255747.0,0.02363000065088272,-0.0002300000051036477,-0.004540000110864639,0.0221599992364645
6573.3281429348735,1255748.0,0.03288000077009201,0.004310000222176313,-0.005900000222027302,0.02087000012397766
6573.329142707089,1255749.0,0.03863000124692917,-4.999999873689376e-05,0.0002300000051036477,0.01899999938905239
6573.330142479304,1255750.0,0.04106000065803528,9.000000136438757e-05,-0.002950000111013651,0.014419999904930592
6573.33114225152,1255751.0,0.042500000447034836,0.00031999999191612005,-0.004769999999552965,0.012590000405907631
6573.332142023735,1255752.0,0.043310001492500305,0.003000000026077032,-0.00014000000373926014,0.01181000005453825
6573.33314179595,1255753.0,0.04222999885678291,0.003809999907389283,0.003909999970346689,0.014139999635517597
6573.334141568165,1255754.0,0.04052000120282173,-0.0022700000554323196,-0.0016799999866634607,0.016429999843239784
6573.335141340381,1255755.0,0.03612000122666359,-0.0002300000051036477,-0.0021800000686198473,0.013869999907910824
6573.336141112596,1255756.0,0.032340001314878464,0.0018599999602884054,0.0045900000259280205,0.009290000423789024
6573.337140884812,1255757.0,0.028119999915361404,0.003809999907389283,0.005489999894052744,0.008150000125169754
6573.338140657026,1255758.0,0.021290000528097153,0.003949999809265137,0.0016799999866634607,0.007189999800175428
6573.3391404292415,1255759.0,0.010239999741315842,0.0017300000181421638,-0.000539999979082495,0.009929999709129333
6573.340140201457,1255760.0,-0.0023399998899549246,0.0007300000288523734,0.004310000222176313,0.010569999925792217
6573.341139973672,1255761.0,-0.01384000014513731,-0.0012700000079348683,-0.0033199999015778303,0.011169999837875366
6573.342139745888,1255762.0,-0.018149999901652336,0.0024500000290572643,-0.014440000057220459,0.010710000060498714
6573.343139518102,1255763.0,-0.018330000340938568,-0.006680000107735395,-0.006630000192672014,0.004530000034719706
6573.344139290318,1255764.0,-0.0142000000923872,-0.00494999997317791,-0.013810000382363796,0.0030700000934302807
6573.345139062533,1255765.0,-0.00646999990567565,-0.00494999997317791,-0.007040000054985285,0.009340000338852406
6573.346138834749,1255766.0,0.00107999995816499,-0.0037700000684708357,-0.006219999864697456,0.006180000025779009
6573.347138606964,1255767.0,0.008449999615550041,-0.0007699999841861427,-0.001500000013038516,0.002469999948516488
6573.3481383791795,1255768.0,0.014290000312030315,0.003220000071451068,0.010490000247955322,0.0017900000093504786
6573.349138151394,1255769.0,0.017340000718832016,0.00031999999191612005,0.009850000031292439,0.00031999999191612005
6573.3501379236095,1255770.0,0.017249999567866325,0.001500000013038516,0.011219999752938747,-0.0006399999838322401
6573.351137695825,1255771.0,0.018869999796152115,-0.0011399999493733048,0.009220000356435776,-0.0013699999544769526
6573.35213746804,1255772.0,0.018959999084472656,-0.0031300000846385956,0.010350000113248825,-0.0019199999514967203
6573.353137240256,1255773.0,0.018869999796152115,-0.0064500002190470695,0.008310000412166119,-0.00279000005684793
6573.35413701247,1255774.0,0.016979999840259552,-0.005859999917447567,-0.003949999809265137,-0.003710000077262521
6573.355136784686,1255775.0,0.012260000221431255,-0.0016799999866634607,-0.00839999970048666,-0.0029800001066178083
6573.356136556901,1255776.0,0.008449999615550041,0.002589999930933118,-0.005489999894052744,0.0017900000093504786
6573.357136329117,1255777.0,0.004490000195801258,0.005040000192821026,0.003220000071451068,0.0014199999859556556
6573.358136101332,1255778.0,-0.004220000002533197,0.004629999864846468,-0.001230000052601099,-0.0007800000021234155
6573.3591358735475,1255779.0,-0.017249999567866325,0.004679999779909849,-0.002409999957308173,-0.005539999809116125
6573.360135645762,1255780.0,-0.030950000509619713,0.0076299998909235,0.002589999930933118,-0.0064500002190470695
6573.3611354179775,1255781.0,-0.04340000078082085,0.009990000165998936,-0.003539999946951866,-0.0011899999808520079
6573.362135190193,1255782.0,-0.05138999968767166,0.004089999943971634,-0.005179999861866236,-0.001879999996162951
6573.363134962408,1255783.0,-0.05516999959945679,-0.0036800000816583633,0.01140000019222498,-0.0035699999425560236
6573.364134734624,1255784.0,-0.05282999947667122,-0.008080000057816505,0.007579999975860119,-0.007780000101774931
6573.365134506838,1255785.0,-0.04569000005722046,-0.005950000137090683,0.00031999999191612005,-0.009060000069439411
6573.366134279054,1255786.0,-0.03558000177145004,-0.005770000163465738,-0.003539999946951866,-0.007639999967068434
6573.367134051269,1255787.0,-0.02384999953210354,0.00203999993391335,0.0010000000474974513,-0.0048500001430511475
6573.368133823485,1255788.0,-0.014019999653100967,-0.006219999864697456,-0.00031999999191612005,-0.00750999990850687
6573.3691335957,1255789.0,-0.008980000391602516,0.001230000052601099,-0.0071299998089671135,-0.011950000189244747
6573.370133367915,1255790.0,-0.009069999679923058,0.002589999930933118,0.003590000094845891,-0.01140000019222498
6573.37113314013,1255791.0,-0.011950000189244747,0.003220000071451068,0.001230000052601099,-0.008150000125169754
6573.3721329123455,1255792.0,-0.014150000177323818,0.0013200000394135714,-0.005950000137090683,-0.008150000125169754
6573.373132684561,1255793.0,-0.016170000657439232,0.004679999779909849,-0.005859999917447567,-0.01322999969124794
6573.374132456776,1255794.0,-0.019179999828338623,0.002319999970495701,-0.013580000028014183,-0.015239999629557133
6573.375132228992,1255795.0,-0.023000000044703484,0.00031999999191612005,-0.00880999956279993,-0.015200000256299973
6573.376132001206,1255796.0,-0.026149999350309372,-0.003809999907389283,-0.004000000189989805,-0.01066999975591898
6573.377131773422,1255797.0,-0.028349999338388443,0.00031999999191612005,-0.004999999888241291,-0.01322999969124794
6573.378131545637,1255798.0,-0.03305999934673309,0.00686000008136034,0.007309999782592058,-0.018449999392032623
6573.379131317853,1255799.0,-0.04267999902367592,0.014120000414550304,0.00031999999191612005,-0.012269999831914902
6573.380131090068,1255800.0,-0.053279999643564224,0.019209999591112137,0.003949999809265137,-0.014560000039637089
6573.381130862283,1255801.0,-0.0627100020647049,0.01331000030040741,-0.004720000084489584,-0.019179999828338623
6573.382130634498,1255802.0,-0.06577000021934509,0.004679999779909849,-0.0020000000949949026,-0.021290000528097153
6573.3831304067135,1255803.0,-0.06406000256538391,0.0021299999207258224,-0.0015899999998509884,-0.015790000557899475
6573.384130178929,1255804.0,-0.0587100014090538,-0.00041000000783242285,0.002950000111013651,-0.01785000041127205
6573.385129951144,1255805.0,-0.0514799989759922,-0.011490000411868095,0.004809999838471413,-0.022019999101758003
6573.38612972336,1255806.0,-0.04267999902367592,-0.015300000086426735,0.004310000222176313,-0.022520000115036964
6573.387129495574,1255807.0,-0.035349998623132706,-0.012529999949038029,0.003909999970346689,-0.017990000545978546
6573.38812926779,1255808.0,-0.029109999537467957,-0.005489999894052744,0.00571999978274107,-0.019680000841617584
6573.389129040005,1255809.0,-0.02515999972820282,-0.002589999930933118,0.013620000332593918,-0.024080000817775726
6573.390128812221,1255810.0,-0.019950000569224358,0.0037700000684708357,0.013439999893307686,-0.02457999996840954
6573.391128584436,1255811.0,-0.015809999778866768,0.0002699999895412475,0.002090000081807375,-0.020099999383091927
6573.392128356651,1255812.0,-0.014379999600350857,-0.0022299999836832285,-0.012439999729394913,-0.023159999400377274
6573.393128128866,1255813.0,-0.01779000088572502,-0.001820000004954636,-0.012620000168681145,-0.027149999514222145
6573.394127901081,1255814.0,-0.024170000106096268,0.003909999970346689,-0.008990000002086163,-0.028470000252127647
6573.395127673297,1255815.0,-0.0276699997484684,0.001230000052601099,-0.006219999864697456,-0.02311999909579754
6573.396127445512,1255816.0,-0.02848000079393387,-0.001500000013038516,0.008310000412166119,-0.024809999391436577
6573.397127217728,1255817.0,-0.030640000477433205,0.0036800000816583633,0.005400000140070915,-0.02897999994456768
6573.398126989942,1255818.0,-0.03832000121474266,0.0017300000181421638,0.012489999644458294,-0.030810000374913216
6573.399126762158,1255819.0,-0.050450000911951065,0.0029100000392645597,0.014310000464320183,-0.028149999678134918
6573.400126534373,1255820.0,-0.06451000273227692,0.00795000046491623,0.00795000046491623,-0.026319999247789383
6573.401126306589,1255821.0,-0.07384999841451645,0.004629999864846468,0.002950000111013651,-0.03130999952554703
6573.402126078804,1255822.0,-0.0768200010061264,-0.004220000002533197,-0.0045900000259280205,-0.03373999893665314
6573.403125851019,1255823.0,-0.0734499990940094,-0.001449999981559813,-0.007040000054985285,-0.028109999373555183
6573.404125623234,1255824.0,-0.06532000005245209,-0.004629999864846468,-0.011309999972581863,-0.02897999994456768
6573.405125395449,1255825.0,-0.05575000122189522,-0.005679999943822622,-0.007040000054985285,-0.0333699993789196
6573.406125167665,1255826.0,-0.0471699982881546,-0.00749000022187829,-0.015169999562203884,-0.03539000079035759
6573.40712493988,1255827.0,-0.039799999445676804,-0.006719999946653843,-0.008860000409185886,-0.03067000024020672
6573.408124712095,1255828.0,-0.034949999302625656,-0.006990000139921904,-0.013399999588727951,-0.030260000377893448
6573.40912448431,1255829.0,-0.030549999326467514,-0.003539999946951866,-0.012529999949038029,-0.03505999967455864
6573.410124256526,1255830.0,-0.02694999985396862,-0.0015399999683722854,-0.008580000139772892,-0.03711999952793121
6573.411124028741,1255831.0,-0.024890000000596046,0.0002300000051036477,0.0016299999551847577,-0.0327799990773201
6573.412123800957,1255832.0,-0.025609999895095825,0.003220000071451068,0.0018599999602884054,-0.03214000165462494
6573.413123573172,1255833.0,-0.029109999537467957,0.005950000137090683,0.0052200001664459705,-0.034290000796318054
6573.4141233453865,1255834.0,-0.030009999871253967,0.002319999970495701,0.004999999888241291,-0.037769999355077744
6573.415123117602,1255835.0,-0.029330000281333923,0.0021299999207258224,0.003949999809265137,-0.037220001220703125
6573.416122889817,1255836.0,-0.0276699997484684,0.006810000166296959,0.005770000163465738,-0.0333699993789196
6573.417122662033,1255837.0,-0.028030000627040863,0.008310000412166119,0.004089999943971634,-0.03483999893069267
6573.418122434248,1255838.0,-0.03378000110387802,0.008170000277459621,0.006630000192672014,-0.03844999894499779
6573.419122206463,1255839.0,-0.0436599999666214,0.008080000057816505,0.0008200000156648457,-0.04033000022172928
6573.420121978678,1255840.0,-0.05431000143289566,0.005950000137090683,-0.00267999991774559,-0.03612000122666359
6573.421121750894,1255841.0,-0.0631600022315979,0.008630000054836273,-0.00014000000373926014,-0.03539000079035759
6573.422121523109,1255842.0,-0.0666700005531311,0.0031799999997019768,-0.002589999930933118,-0.039319999516010284
6573.423121295325,1255843.0,-0.06639999896287918,-0.005539999809116125,0.001230000052601099,-0.041200000792741776
6573.42412106754,1255844.0,-0.06235000118613243,-0.008220000192523003,0.000910000002477318,-0.03849999979138374
6573.4251208397545,1255845.0,-0.05431000143289566,-0.007670000195503235,0.005630000028759241,-0.035750001668930054
6573.42612061197,1255846.0,-0.04349000006914139,-0.008860000409185886,0.00418000016361475,-0.039730001240968704
6573.427120384185,1255847.0,-0.032340001314878464,-0.0009500000160187483,0.004269999917596579,-0.04197999835014343
6573.428120156401,1255848.0,-0.02273000031709671,-0.0015899999998509884,0.002409999957308173,-0.036389999091625214
6573.429119928616,1255849.0,-0.017069999128580093,-0.010080000385642052,0.006130000110715628,-0.03830999881029129
6573.430119700831,1255850.0,-0.013340000063180923,-0.001769999973475933,0.007360000163316727,-0.041430000215768814
6573.431119473046,1255851.0,-0.011049999855458736,0.006680000107735395,-0.0016799999866634607,-0.04170000180602074
6573.432119245262,1255852.0,-0.010599999688565731,0.007269999943673611,-0.0019099999917671084,-0.03658000007271767
6573.433119017477,1255853.0,-0.012040000408887863,-0.004129999782890081,-0.01143999956548214,-0.03895999863743782
6573.434118789693,1255854.0,-0.016440000385046005,0.0019499999471008778,-0.004310000222176313,-0.042249999940395355
6573.435118561907,1255855.0,-0.02012999914586544,0.00031999999191612005,-0.005900000222027302,-0.04270999878644943
6573.4361183341225,1255856.0,-0.022460000589489937,-0.004999999888241291,-0.005679999943822622,-0.037310000509023666
6573.437118106338,1255857.0,-0.02345000021159649,0.004999999888241291,-0.004540000110864639,-0.039090000092983246
6573.438117878553,1255858.0,-0.025919999927282333,0.0045900000259280205,-0.004900000058114529,-0.042160000652074814
6573.439117650769,1255859.0,-0.032519999891519547,0.001230000052601099,0.00031999999191612005,-0.04366999864578247
6573.440117422984,1255860.0,-0.040789999067783356,0.004679999779909849,-0.010490000247955322,-0.04106000065803528
6573.441117195199,1255861.0,-0.047029998153448105,0.007809999864548445,-0.015709999948740005,-0.037769999355077744
6573.442116967414,1255862.0,-0.04806999862194061,0.002409999957308173,-0.013810000382363796,-0.0392800010740757
6573.44311673963,1255863.0,-0.04433999955654144,-0.001180000021122396,-0.012129999697208405,-0.04261999949812889
6573.444116511845,1255864.0,-0.036070000380277634,-0.0063599999994039536,-0.0028200000524520874,-0.03849999979138374
6573.4451162840605,1255865.0,-0.024620000272989273,0.0017300000181421638,-0.002859999891370535,-0.0391400009393692
6573.446116056275,1255866.0,-0.012040000408887863,0.0014100000262260437,0.0022700000554323196,-0.042980000376701355
6573.4471158284905,1255867.0,0.0006300000241026282,-0.0019099999917671084,0.010259999893605709,-0.03982999920845032
6573.448115600706,1255868.0,0.008799999952316284,-0.005859999917447567,0.023569999262690544,-0.03977999836206436
6573.449115372921,1255869.0,0.01221999991685152,-0.0064500002190470695,0.020029999315738678,-0.042980000376701355
6573.450115145137,1255870.0,0.01384000014513731,-0.008899999782443047,0.03446999937295914,-0.03853999823331833
6573.451114917352,1255871.0,0.013930000364780426,-0.0044999998062849045,0.02710999920964241,-0.04343999922275543
6573.452114689567,1255872.0,0.012079999782145023,0.00031999999191612005,0.016759999096393585,-0.03739999979734421
6573.453114461782,1255873.0,0.00925000011920929,0.009039999917149544,0.011169999837875366,-0.04253000020980835
6573.454114233998,1255874.0,0.006829999852925539,0.0010400000028312206,0.0029100000392645597,-0.037629999220371246
6573.455114006213,1255875.0,0.006920000072568655,-0.003860000055283308,-0.0036800000816583633,-0.04326000064611435
6573.4561137784285,1255876.0,0.00925000011920929,-0.007540000136941671,-0.003860000055283308,-0.038359999656677246
6573.457113550643,1255877.0,0.010689999908208847,-0.00018000000272877514,-0.004360000137239695,-0.04362000152468681
6573.4581133228585,1255878.0,0.005929999984800816,0.009949999861419201,-0.020390000194311142,-0.03809000179171562
6573.459113095074,1255879.0,-0.0018899999558925629,0.012670000083744526,-0.021390000358223915,-0.04242999851703644
6573.460112867289,1255880.0,-0.011640000157058239,0.008449999615550041,-0.024480000138282776,-0.03923000022768974
6573.461112639505,1255881.0,-0.019139999523758888,0.004540000110864639,-0.019659999758005142,-0.04334999993443489
6573.46211241172,1255882.0,-0.02363000065088272,0.001230000052601099,-0.014259999617934227,-0.037769999355077744
6573.463112183935,1255883.0,-0.023989999666810036,-0.004410000052303076,0.002589999930933118,-0.03809000179171562
6573.46411195615,1255884.0,-0.01899999938905239,-0.002409999957308173,-0.00031999999191612005,-0.04129000008106232
6573.465111728366,1255885.0,-0.012980000115931034,-0.0064500002190470695,0.0014100000262260437,-0.04202000051736832
6573.466111500581,1255886.0,-0.004220000002533197,-0.00803999975323677,0.005859999917447567,-0.03658000007271767
6573.4671112727965,1255887.0,0.004579999949783087,-0.008899999782443047,0.00749000022187829,-0.037769999355077744
6573.468111045011,1255888.0,0.012760000303387642,-0.0006799999973736703,0.013899999670684338,-0.040699999779462814
6573.4691108172265,1255889.0,0.015990000218153,0.00686000008136034,0.007449999917298555,-0.041839998215436935
6573.470110589442,1255890.0,0.013700000010430813,0.001230000052601099,0.00494999997317791,-0.035930000245571136
6573.471110361657,1255891.0,0.008980000391602516,0.0016299999551847577,4.999999873689376e-05,-0.03689999878406525
6573.472110133873,1255892.0,0.0026499999221414328,0.0034099998883903027,-0.0015899999998509884,-0.04010000079870224
6573.473109906087,1255893.0,-0.0005799999926239252,0.0010000000474974513,-0.011850000359117985,-0.041749998927116394
6573.474109678303,1255894.0,-0.0030499999411404133,0.00267999991774559,-0.02053000032901764,-0.037859998643398285
6573.475109450518,1255895.0,-0.004040000028908253,0.003590000094845891,-0.013120000250637531,-0.035930000245571136
6573.476109222734,1255896.0,-0.006380000151693821,0.00031999999191612005,-0.012400000356137753,-0.03954999893903732
6573.477108994949,1255897.0,-0.0101500004529953,0.00031999999191612005,0.002950000111013651,-0.04123999923467636
6573.4781087671645,1255898.0,-0.018640000373125076,0.007670000195503235,0.005539999809116125,-0.03945999965071678
6573.479108539379,1255899.0,-0.028389999642968178,0.009850000031292439,0.00949000008404255,-0.03483999893069267
6573.480108311594,1255900.0,-0.03782999888062477,0.0071299998089671135,0.005950000137090683,-0.03675999864935875
6573.48110808381,1255901.0,-0.04546000063419342,-0.005090000107884407,0.003949999809265137,-0.040049999952316284
6573.482107856025,1255902.0,-0.0500900000333786,-0.002589999930933118,0.008170000277459621,-0.037769999355077744
6573.483107628241,1255903.0,-0.053369998931884766,0.0025400000158697367,0.010490000247955322,-0.03516000136733055
6573.484107400455,1255904.0,-0.05144000053405762,-0.0031300000846385956,0.012310000136494637,-0.03881999850273132
6573.485107172671,1255905.0,-0.045010000467300415,-0.006399999838322401,0.0037700000684708357,-0.03991999849677086
6573.486106944886,1255906.0,-0.037379998713731766,-0.002589999930933118,-0.008949999697506428,-0.033649999648332596
6573.487106717102,1255907.0,-0.03068000078201294,0.001769999973475933,-0.012620000168681145,-0.03483999893069267
6573.488106489317,1255908.0,-0.02525000087916851,-0.002950000111013651,-0.015030000358819962,-0.03813000023365021
6573.4891062615325,1255909.0,-0.021560000255703926,-0.0008200000156648457,-0.01711999997496605,-0.03954999893903732
6573.490106033747,1255910.0,-0.01860000006854534,-0.003539999946951866,-0.011719999834895134,-0.03579999879002571
6573.491105805962,1255911.0,-0.019179999828338623,-0.004410000052303076,-0.01803000085055828,-0.03310000151395798
6573.492105578178,1255912.0,-0.019950000569224358,0.0010000000474974513,-0.008630000054836273,-0.037220001220703125
6573.493105350393,1255913.0,-0.020260000601410866,0.001769999973475933,0.004310000222176313,-0.03895999863743782
6573.494105122609,1255914.0,-0.0200399998575449,0.00031999999191612005,0.003949999809265137,-0.03519999980926514
6573.495104894823,1255915.0,-0.021469999104738235,-0.002589999930933118,0.013260000385344028,-0.032269999384880066
6573.496104667039,1255916.0,-0.022369999438524246,-0.0012700000079348683,0.019209999591112137,-0.03635000064969063
6573.497104439254,1255917.0,-0.023490000516176224,0.006130000110715628,0.019209999591112137,-0.03685000166296959
6573.49810421147,1255918.0,-0.02928999997675419,0.008860000409185886,0.015939999371767044,-0.03739999979734421
6573.499103983685,1255919.0,-0.038989998400211334,0.020069999620318413,0.007540000136941671,-0.03488000109791756
6573.5001037558995,1255920.0,-0.05121000111103058,0.010130000300705433,0.009399999864399433,-0.03200000151991844
6573.501103528115,1255921.0,-0.061769999563694,-0.0008200000156648457,0.00795000046491623,-0.03158999979496002
6573.50210330033,1255922.0,-0.06729000061750412,-0.0035000001080334187,0.0044999998062849045,-0.03209000080823898
6573.503103072546,1255923.0,-0.06909000128507614,-0.006579999811947346,-0.009309999644756317,-0.0349700003862381
6573.504102844761,1255924.0,-0.06396999955177307,-0.01063000038266182,-0.012439999729394913,-0.03666999936103821
6573.505102616977,1255925.0,-0.05192999914288521,-0.01298999972641468,-0.008630000054836273,-0.0326399989426136
6573.506102389191,1255926.0,-0.03809000179171562,-0.009759999811649323,-0.019750000908970833,-0.030300000682473183
6573.507102161407,1255927.0,-0.0276699997484684,-0.011309999972581863,-0.016259999945759773,-0.03418999910354614
6573.508101933622,1255928.0,-0.017249999567866325,0.003220000071451068,-0.011939999647438526,-0.03505999967455864
6573.509101705838,1255929.0,-0.007819999940693378,0.0036299999337643385,-0.015850000083446503,-0.029020000249147415
6573.510101478053,1255930.0,-0.001979999942705035,0.00880999956279993,-0.018619999289512634,-0.0327799990773201
6573.5111012502675,1255931.0,0.0009899999713525176,0.014310000464320183,-0.01408000010997057,-0.03392000123858452
6573.512101022483,1255932.0,0.002520000096410513,0.010490000247955322,-0.012849999591708183,-0.02792000025510788
6573.513100794698,1255933.0,0.0017099999822676182,0.003590000094845891,-0.0024999999441206455,-0.0326399989426136
6573.514100566914,1255934.0,-0.0002699999895412475,0.0024500000290572643,0.0045900000259280205,-0.028610000386834145
6573.515100339129,1255935.0,-0.003229999914765358,-0.0015899999998509884,0.011529999785125256,-0.031539998948574066
6573.516100111345,1255936.0,-0.003949999809265137,-0.0018599999602884054,0.004310000222176313,-0.026639999821782112
6573.517099883559,1255937.0,-0.008129999972879887,0.00031999999191612005,0.019619999453425407,-0.0319099985063076
6573.518099655775,1255938.0,-0.018729999661445618,0.00872000027447939,0.0027699999045580626,-0.02622999995946884
6573.51909942799,1255939.0,-0.03359999880194664,0.010850000195205212,0.00014000000373926014,-0.03209000080823898
6573.520099200206,1255940.0,-0.046539999544620514,0.004720000084489584,0.005270000081509352,-0.027650000527501106
6573.521098972421,1255941.0,-0.055479999631643295,0.0033599999733269215,0.009039999917149544,-0.029890000820159912
6573.5220987446355,1255942.0,-0.05906999856233597,-0.003860000055283308,0.01566999964416027,-0.02727999910712242
6573.523098516851,1255943.0,-0.05435999855399132,-0.004000000189989805,0.02298000082373619,-0.026690000668168068
6573.524098289066,1255944.0,-0.0422700010240078,-0.013670000247657299,0.021159999072551727,-0.029020000249147415
6573.525098061282,1255945.0,-0.02645999938249588,-0.015490000136196613,0.022840000689029694,-0.02443999983370304
6573.526097833497,1255946.0,-0.011950000189244747,-0.010579999536275864,0.006130000110715628,-0.025450000539422035
6573.527097605713,1255947.0,0.003590000094845891,-0.0015899999998509884,0.0034099998883903027,-0.029160000383853912
6573.528097377927,1255948.0,0.01607999950647354,-0.004220000002533197,0.004679999779909849,-0.022749999538064003
6573.529097150143,1255949.0,0.022549999877810478,-0.00014000000373926014,-0.004410000052303076,-0.02741999924182892
6573.530096922358,1255950.0,0.02597000077366829,0.00014000000373926014,-0.0027699999045580626,-0.025769999250769615
6573.5310966945735,1255951.0,0.02606000006198883,-9.000000136438757e-05,-0.0036800000816583633,-0.023159999400377274
6573.532096466789,1255952.0,0.024529999122023582,-0.0036800000816583633,-0.010449999943375587,-0.027879999950528145
6573.5330962390035,1255953.0,0.024119999259710312,-0.0007699999841861427,-0.0033199999015778303,-0.02370999939739704
6573.534096011219,1255954.0,0.025429999455809593,-0.005679999943822622,-0.004449999891221523,-0.020649999380111694
6573.535095783434,1255955.0,0.02735999971628189,-0.00203999993391335,-0.014940000139176846,-0.020829999819397926
6573.53609555565,1255956.0,0.027720000594854355,0.0021299999207258224,-0.016119999811053276,-0.024769999086856842
6573.537095327865,1255957.0,0.027990000322461128,0.005270000081509352,-0.016300000250339508,-0.025499999523162842
6573.53809510008,1255958.0,0.023180000483989716,0.014670000411570072,-0.014940000139176846,-0.024080000817775726
6573.539094872295,1255959.0,0.013120000250637531,0.00839999970048666,-0.008860000409185886,-0.018540000542998314
6573.540094644511,1255960.0,0.0003100000030826777,0.005400000140070915,-0.008860000409185886,-0.020509999245405197
6573.541094416726,1255961.0,-0.010420000180602074,0.006810000166296959,-0.002950000111013651,-0.02339000068604946
6573.5420941889415,1255962.0,-0.016620000824332237,0.009039999917149544,-0.009359999559819698,-0.02339000068604946
6573.543093961157,1255963.0,-0.017650000751018524,0.0010400000028312206,0.0014100000262260437,-0.01752999983727932
6573.5440937333715,1255964.0,-0.012400000356137753,0.007579999975860119,0.00031999999191612005,-0.016979999840259552
6573.545093505587,1255965.0,-0.0017099999822676182,0.007809999864548445,-0.001449999981559813,-0.021290000528097153
6573.546093277802,1255966.0,0.010110000148415565,-0.001230000052601099,0.003220000071451068,-0.022290000692009926
6573.547093050018,1255967.0,0.02092999964952469,-0.002950000111013651,0.001449999981559813,-0.017489999532699585
6573.548092822233,1255968.0,0.030729999765753746,0.001769999973475933,0.0018599999602884054,-0.015879999846220016
6573.549092594448,1255969.0,0.0370200015604496,0.002090000081807375,0.0015899999998509884,-0.017489999532699585
6573.550092366663,1255970.0,0.04114999994635582,0.0002699999895412475,0.00795000046491623,-0.02027999982237816
6573.551092138879,1255971.0,0.04222999885678291,-0.0036800000816583633,0.008220000192523003,-0.020829999819397926
6573.552091911094,1255972.0,0.03880999982357025,-0.010579999536275864,0.01331000030040741,-0.014829999767243862
6573.5530916833095,1255973.0,0.03347000107169151,-0.007899999618530273,0.0030900000128895044,-0.015110000036656857
6573.554091455525,1255974.0,0.02785000018775463,-0.000859999970998615,-0.004410000052303076,-0.01909000054001808
6573.5550912277395,1255975.0,0.023809999227523804,-0.0006799999973736703,-0.00913000013679266,-0.01909000054001808
6573.556090999955,1255976.0,0.022190000861883163,-0.002589999930933118,-0.00014000000373926014,-0.012860000133514404
6573.55709077217,1255977.0,0.01923000067472458,0.0071299998089671135,-0.0022299999836832285,-0.014469999819993973
6573.558090544386,1255978.0,0.01221999991685152,0.01576000079512596,0.0017300000181421638,-0.017260000109672546
6573.559090316601,1255979.0,0.0012600000482052565,0.00686000008136034,0.002589999930933118,-0.01816999912261963
6573.560090088816,1255980.0,-0.008980000391602516,0.0028200000524520874,0.001769999973475933,-0.014689999632537365
6573.561089861031,1255981.0,-0.018149999901652336,-0.0013599999947473407,-0.0016799999866634607,-0.01066999975591898
6573.562089633247,1255982.0,-0.023180000483989716,-0.004769999999552965,-0.002950000111013651,-0.012860000133514404
6573.563089405462,1255983.0,-0.02425999939441681,-0.0027699999045580626,0.0044999998062849045,-0.01597999967634678
6573.5640891776775,1255984.0,-0.020479999482631683,-0.00041000000783242285,-0.0016799999866634607,-0.016529999673366547
6573.565088949892,1255985.0,-0.01348000019788742,-0.009220000356435776,0.0035000001080334187,-0.01143999956548214
6573.566088722107,1255986.0,-0.00674000009894371,-0.007360000163316727,-0.000859999970998615,-0.01006999984383583
6573.567088494323,1255987.0,0.0009399999980814755,-0.002090000081807375,0.005040000192821026,-0.011579999700188637
6573.568088266538,1255988.0,0.008129999972879887,-0.006949999835342169,-0.00203999993391335,-0.015010000206530094
6573.569088038754,1255989.0,0.012889999896287918,-0.0035000001080334187,-0.01947999931871891,-0.015519999898970127
6573.570087810969,1255990.0,0.01940999925136566,0.001230000052601099,-0.012529999949038029,-0.015469999983906746
6573.571087583184,1255991.0,0.021199999377131462,0.00031999999191612005,-0.004629999864846468,-0.014600000344216824
6573.572087355399,1255992.0,0.021740000694990158,0.001500000013038516,-0.002409999957308173,-0.012500000186264515
6573.573087127615,1255993.0,0.02092999964952469,0.00267999991774559,-0.007180000189691782,-0.01006999984383583
6573.57408689983,1255994.0,0.019500000402331352,0.0021299999207258224,-0.000539999979082495,-0.009019999764859676
6573.5750866720455,1255995.0,0.01841999962925911,0.004629999864846468,0.004220000002533197,-0.006769999861717224
6573.57608644426,1255996.0,0.01891000010073185,0.01671000011265278,0.0012700000079348683,-0.005539999809116125
6573.577086216475,1255997.0,0.01711999997496605,0.0071299998089671135,0.0031300000846385956,-0.005539999809116125
6573.578085988691,1255998.0,0.010289999656379223,0.0021299999207258224,-0.0006399999838322401,-0.0048500001430511475
6573.579085760906,1255999.0,-0.00107999995816499,0.002409999957308173,0.005950000137090683,-0.006089999806135893
6573.580085533122,1256000.0,-0.012400000356137753,0.005400000140070915,0.00494999997317791,-0.006909999996423721
6573.581085305337,1256001.0,-0.021290000528097153,-0.0018599999602884054,0.006130000110715628,-0.009519999846816063
6573.582085077552,1256002.0,-0.025609999895095825,-0.003269999986514449,0.00686000008136034,-0.009979999624192715
6573.583084849767,1256003.0,-0.02622999995946884,-0.0011399999493733048,0.0016299999551847577,-0.005539999809116125
6573.584084621983,1256004.0,-0.02201000042259693,-0.004769999999552965,-0.019530000165104866,-0.00279000005684793
6573.585084394198,1256005.0,-0.01508999988436699,-0.003860000055283308,-0.027380000799894333,-0.0028800000436604023
6573.5860841664135,1256006.0,-0.006779999937862158,-0.009850000031292439,0.00031999999191612005,-0.0031999999191612005
6573.587083938628,1256007.0,0.0023399998899549246,-0.010219999589025974,0.01816999912261963,-0.0035699999425560236
6573.588083710843,1256008.0,0.012260000221431255,-0.003449999960139394,0.03010999970138073,-0.005909999832510948
6573.589083483059,1256009.0,0.018330000340938568,0.003449999960139394,0.026429999619722366,-0.005539999809116125
6573.590083255274,1256010.0,0.021609999239444733,0.000859999970998615,0.019940000027418137,-0.007280000019818544
6573.59108302749,1256011.0,0.022460000589489937,0.0024999999441206455,0.026979999616742134,-0.0006399999838322401
6573.592082799705,1256012.0,0.023310000076889992,0.0031300000846385956,0.010400000028312206,0.00031999999191612005
6573.59308257192,1256013.0,0.021649999544024467,-0.0002699999895412475,-0.0011399999493733048,-0.003659999929368496
6573.594082344135,1256014.0,0.0200399998575449,-0.0015899999998509884,-0.00418000016361475,-0.003710000077262521
6573.595082116351,1256015.0,0.017340000718832016,0.001769999973475933,-0.006719999946653843,-0.0013699999544769526
6573.596081888566,1256016.0,0.016039999201893806,0.0030400000978261232,-0.010259999893605709,0.002469999948516488
6573.597081660781,1256017.0,0.013030000030994415,0.00014000000373926014,-0.017669999971985817,-0.0021100000012665987
6573.598081432996,1256018.0,0.007230000104755163,0.007309999782592058,-0.019750000908970833,-0.002199999988079071
6573.599081205211,1256019.0,-0.0011699999449774623,0.004449999891221523,-0.029109999537467957,0.0047599999234080315
6573.600080977427,1256020.0,-0.01131999958306551,-0.0007300000288523734,-0.02710999920964241,0.004619999788701534
6573.601080749642,1256021.0,-0.0200399998575449,0.005590000189840794,-0.01711999997496605,0.00471000000834465
6573.602080521858,1256022.0,-0.025340000167489052,0.0018599999602884054,-0.008270000107586384,0.00430000014603138
6573.603080294072,1256023.0,-0.024660000577569008,0.0024500000290572643,0.004679999779909849,0.0012799999676644802
6573.604080066288,1256024.0,-0.019589999690651894,-0.005489999894052744,-0.004809999838471413,0.0016899999463930726
6573.605079838503,1256025.0,-0.013880000449717045,-0.009259999729692936,-0.025340000167489052,0.00215000007301569
6573.606079610719,1256026.0,-0.005030000116676092,-0.0076299998909235,-0.01906999945640564,0.0023300000466406345
6573.607079382934,1256027.0,0.003229999914765358,-0.006949999835342169,-0.01689000055193901,0.002749999985098839
6573.608079155149,1256028.0,0.01128000020980835,-0.0015899999998509884,-0.006579999811947346,0.009109999984502792
6573.609078927364,1256029.0,0.017160000279545784,0.002360000042244792,0.010490000247955322,0.00892999954521656
6573.610078699579,1256030.0,0.02092999964952469,0.0024500000290572643,0.013939999975264072,0.0052200001664459705
6573.611078471795,1256031.0,0.02314000017940998,0.00014000000373926014,0.030740000307559967,0.00394000019878149
6573.61207824401,1256032.0,0.023269999772310257,0.00494999997317791,0.036649998277425766,0.01143999956548214
6573.613078016226,1256033.0,0.02363000065088272,0.005950000137090683,0.03302000090479851,0.00965999998152256
6573.61407778844,1256034.0,0.02443999983370304,0.0012700000079348683,0.03156000003218651,0.006130000110715628
6573.615077560656,1256035.0,0.024620000272989273,-0.0009500000160187483,0.00749000022187829,0.006819999776780605
6573.616077332871,1256036.0,0.024080000817775726,0.009170000441372395,-0.0033599999733269215,0.01066999975591898
6573.6170771050865,1256037.0,0.020659999921917915,0.004040000028908253,-0.013489999808371067,0.01355000026524067
6573.618076877302,1256038.0,0.01384000014513731,0.008310000412166119,-0.012529999949038029,0.014739999547600746
6573.619076649517,1256039.0,0.0035000001080334187,0.009850000031292439,-0.007899999618530273,0.01534000039100647
6573.620076421732,1256040.0,-0.008580000139772892,0.002859999891370535,-0.005950000137090683,0.015699999406933784
6573.621076193947,1256041.0,-0.0185100007802248,0.005630000028759241,-0.009259999729692936,0.015150000341236591
6573.622075966163,1256042.0,-0.023229999467730522,0.007079999893903732,-0.0037700000684708357,0.01107999961823225
6573.623075738378,1256043.0,-0.023669999092817307,0.0022299999836832285,0.006130000110715628,0.010940000414848328
6573.624075510594,1256044.0,-0.019050000235438347,-0.003719999920576811,0.012400000356137753,0.018400000408291817
6573.625075282808,1256045.0,-0.008799999952316284,-0.004089999943971634,0.027470000088214874,0.01607000082731247
6573.626075055024,1256046.0,0.003949999809265137,-0.01679999940097332,0.013170000165700912,0.01322999969124794
6573.627074827239,1256047.0,0.016170000657439232,-0.010449999943375587,0.009039999917149544,0.01816999912261963
6573.6280745994545,1256048.0,0.027489999309182167,-0.0036800000816583633,-0.028750000521540642,0.017899999395012856
6573.62907437167,1256049.0,0.03531000018119812,-0.010579999536275864,-0.032919999212026596,0.014240000396966934
6573.6300741438845,1256050.0,0.03962000086903572,-0.004000000189989805,-0.02701999992132187,0.019780000671744347
6573.6310739161,1256051.0,0.03925999999046326,0.00031999999191612005,-0.02411000058054924,0.021560000255703926
6573.632073688315,1256052.0,0.036660000681877136,-0.008630000054836273,-0.0006799999973736703,0.02013999968767166
6573.633073460531,1256053.0,0.03449999913573265,-0.009949999861419201,0.007860000245273113,0.016939999535679817
6573.634073232746,1256054.0,0.0325700007379055,-0.002589999930933118,0.009449999779462814,0.01671000011265278
6573.635073004962,1256055.0,0.03127000108361244,0.004679999779909849,0.011939999647438526,0.020190000534057617
6573.636072777176,1256056.0,0.03158000111579895,0.008860000409185886,0.006719999946653843,0.02498999983072281
6573.637072549392,1256057.0,0.0301900003105402,0.008489999920129776,0.01331000030040741,0.025040000677108765
6573.638072321607,1256058.0,0.022369999438524246,0.01484999991953373,-0.022520000115036964,0.025909999385476112
6573.6390720938225,1256059.0,0.011500000022351742,0.012529999949038029,-0.03342000022530556,0.026089999824762344
6573.640071866038,1256060.0,0.0011699999449774623,0.007720000110566616,-0.007720000110566616,0.026499999687075615
6573.6410716382525,1256061.0,-0.007009999826550484,0.003220000071451068,0.005040000192821026,0.026690000668168068
6573.642071410468,1256062.0,-0.008630000054836273,9.000000136438757e-05,0.013120000250637531,0.027559999376535416
6573.643071182683,1256063.0,-0.008089999668300152,0.00031999999191612005,0.02538999915122986,0.02741999924182892
6573.644070954899,1256064.0,-0.005929999984800816,0.0013200000394135714,0.030379999428987503,0.027559999376535416
6573.645070727114,1256065.0,-0.0009899999713525176,-0.0008200000156648457,0.030740000307559967,0.027969999238848686
6573.64607049933,1256066.0,0.007459999993443489,-0.01066999975591898,0.020659999921917915,0.0243500005453825
6573.647070271544,1256067.0,0.019269999116659164,-0.011669999919831753,-0.004269999917596579,0.024490000680088997
6573.64807004376,1256068.0,0.032030001282691956,-0.009949999861419201,-0.020029999315738678,0.031950000673532486
6573.649069815975,1256069.0,0.04052000120282173,-0.004449999891221523,-0.005810000002384186,0.031039999797940254
6573.6500695881905,1256070.0,0.04473999887704849,-0.005489999894052744,-0.007720000110566616,0.026280000805854797
6573.651069360406,1256071.0,0.04707999899983406,-0.010579999536275864,-0.000910000002477318,0.026820000261068344
6573.65206913262,1256072.0,0.04515000060200691,-0.01181000005453825,-0.004089999943971634,0.02993999980390072
6573.653068904836,1256073.0,0.043310001492500305,-0.00839999970048666,-0.0072200000286102295,0.03474000096321106
6573.654068677051,1256074.0,0.043129999190568924,-0.00014000000373926014,0.004000000189989805,0.034380000084638596
6573.655068449267,1256075.0,0.045779999345541,-0.00014000000373926014,0.009759999811649323,0.029529999941587448
6573.656068221482,1256076.0,0.05040000006556511,0.0017300000181421638,0.010990000329911709,0.028839999809861183
6573.657067993698,1256077.0,0.053050000220537186,0.006680000107735395,0.014440000057220459,0.03694000095129013
6573.658067765912,1256078.0,0.049949999898672104,0.009039999917149544,0.008670000359416008,0.0349700003862381
6573.659067538128,1256079.0,0.04173000156879425,0.006490000057965517,0.0010400000028312206,0.03136000037193298
6573.660067310343,1256080.0,0.030729999765753746,0.009630000218749046,-0.017570000141859055,0.031539998948574066
6573.6610670825585,1256081.0,0.021199999377131462,0.007579999975860119,-0.018710000440478325,0.03830999881029129
6573.662066854774,1256082.0,0.014379999600350857,0.0072200000286102295,-0.018570000305771828,0.0391400009393692
6573.663066626988,1256083.0,0.01095999963581562,0.00494999997317791,-0.018570000305771828,0.033649999648332596
6573.664066399204,1256084.0,0.01384000014513731,0.006810000166296959,-0.008080000057816505,0.03319000080227852
6573.665066171419,1256085.0,0.01819000020623207,-0.000590000010561198,-0.01331000030040741,0.036159999668598175
6573.666065943635,1256086.0,0.024620000272989273,4.999999873689376e-05,-0.011309999972581863,0.041839998215436935
6573.66706571585,1256087.0,0.03175999969244003,0.005859999917447567,-0.005950000137090683,0.041110001504421234
6573.668065488065,1256088.0,0.03889999911189079,-0.002950000111013651,0.00031999999191612005,0.037310000509023666
6573.66906526028,1256089.0,0.04295000061392784,0.0008200000156648457,0.0019499999471008778,0.036389999091625214
6573.670065032496,1256090.0,0.04554999992251396,0.0045900000259280205,0.00031999999191612005,0.03849999979138374
6573.671064804711,1256091.0,0.04698999971151352,0.006130000110715628,-0.018619999289512634,0.04422000050544739
6573.6720645769265,1256092.0,0.047439999878406525,0.0024999999441206455,-0.009580000303685665,0.04326000064611435
6573.673064349142,1256093.0,0.04910000041127205,0.00031999999191612005,-0.004410000052303076,0.0384100005030632
6573.674064121356,1256094.0,0.05040000006556511,0.00535999983549118,0.003539999946951866,0.03767000138759613
6573.675063893572,1256095.0,0.04967999830842018,0.007579999975860119,-0.0009500000160187483,0.04390000179409981
6573.676063665787,1256096.0,0.049150001257658005,0.005400000140070915,0.006039999891072512,0.04633000120520592
6573.677063438003,1256097.0,0.04789000004529953,0.003000000026077032,0.027569999918341637,0.045729998499155045
6573.678063210218,1256098.0,0.043310001492500305,0.007670000195503235,0.019710000604391098,0.0408799983561039
6573.679062982433,1256099.0,0.03558000177145004,0.001769999973475933,0.013030000030994415,0.04114999994635582
6573.680062754648,1256100.0,0.025340000167489052,-0.003809999907389283,0.016979999840259552,0.04134000092744827
6573.681062526864,1256101.0,0.01508999988436699,-0.005489999894052744,0.013260000385344028,0.04270999878644943
6573.682062299079,1256102.0,0.008089999668300152,-0.007360000163316727,0.008080000057816505,0.04839000105857849
6573.683062071294,1256103.0,0.003860000055283308,-0.009399999864399433,-0.001230000052601099,0.04828999936580658
6573.68406184351,1256104.0,0.004670000169426203,-0.007670000195503235,-0.009759999811649323,0.042980000376701355
6573.685061615724,1256105.0,0.009390000253915787,-0.00749000022187829,-0.008449999615550041,0.043719999492168427
6573.68606138794,1256106.0,0.016349999234080315,-0.00803999975323677,-0.008630000054836273,0.04495000094175339
6573.687061160155,1256107.0,0.02281999960541725,-0.021209999918937683,-0.0031300000846385956,0.050859998911619186
6573.688060932371,1256108.0,0.02928999997675419,-0.012849999591708183,-0.0019099999917671084,0.05081000179052353
6573.689060704586,1256109.0,0.03558000177145004,-0.006769999861717224,-0.01181000005453825,0.04902999848127365
6573.690060476801,1256110.0,0.0428600013256073,-0.006719999946653843,-0.003539999946951866,0.04495000094175339
6573.691060249016,1256111.0,0.046539999544620514,-0.0045900000259280205,-0.002589999930933118,0.04523000121116638
6573.692060021232,1256112.0,0.047120001167058945,0.0022299999836832285,-0.0028200000524520874,0.050769999623298645
6573.693059793447,1256113.0,0.04617999866604805,0.007579999975860119,-0.002409999957308173,0.05240999907255173
6573.694059565662,1256114.0,0.04496999830007553,0.013399999588727951,0.004310000222176313,0.05135999992489815
6573.695059337877,1256115.0,0.04402000084519386,0.008449999615550041,0.003719999920576811,0.04682999849319458
6573.696059110092,1256116.0,0.04383999854326248,0.004220000002533197,-0.002859999891370535,0.04619000107049942
6573.697058882308,1256117.0,0.044829998165369034,0.014990000054240227,-0.02896999940276146,0.04861000180244446
6573.698058654523,1256118.0,0.04033999890089035,0.015399999916553497,-0.02452000044286251,0.05415000021457672
6573.699058426739,1256119.0,0.030009999871253967,0.008670000359416008,-0.01865999959409237,0.0538799986243248
6573.700058198954,1256120.0,0.019500000402331352,0.010040000081062317,-0.02061999961733818,0.05350999906659126
6573.701057971169,1256121.0,0.010870000347495079,0.0018599999602884054,-0.012029999867081642,0.05406000092625618
6573.702057743384,1256122.0,0.007459999993443489,-0.0063599999994039536,0.0024999999441206455,0.052549999207258224
6573.7030575155995,1256123.0,0.006200000178068876,-0.01257999986410141,0.029020000249147415,0.04874999821186066
6573.704057287815,1256124.0,0.008799999952316284,-0.017480000853538513,0.04763999953866005,0.04912000149488449
6573.70505706003,1256125.0,0.014019999653100967,-0.018939999863505363,0.04723000153899193,0.04921000078320503
6573.706056832245,1256126.0,0.0218299999833107,-0.011719999834895134,0.04864000156521797,0.04870999976992607
6573.70705660446,1256127.0,0.029109999537467957,-0.007670000195503235,0.03587999939918518,0.05081000179052353
6573.708056376676,1256128.0,0.03633999824523926,0.00031999999191612005,0.0010400000028312206,0.056439999490976334
6573.709056148891,1256129.0,0.04024999961256981,-0.0011399999493733048,-0.010400000028312206,0.05521000176668167
6573.710055921107,1256130.0,0.040070001035928726,0.0035000001080334187,-0.008670000359416008,0.049800001084804535
6573.711055693322,1256131.0,0.03440999984741211,0.00203999993391335,-0.005900000222027302,0.04902999848127365
6573.712055465537,1256132.0,0.028389999642968178,0.001769999973475933,-0.013939999975264072,0.054430000483989716
6573.713055237752,1256133.0,0.02474999986588955,0.008489999920129776,-0.011669999919831753,0.05635000020265579
6573.7140550099675,1256134.0,0.024080000817775726,0.011219999752938747,-0.019750000908970833,0.05488999933004379
6573.715054782183,1256135.0,0.024080000817775726,0.006719999946653843,-0.012760000303387642,0.050859998911619186
6573.716054554398,1256136.0,0.02384999953210354,0.004679999779909849,-0.005270000081509352,0.05561999976634979
6573.717054326613,1256137.0,0.021199999377131462,-4.999999873689376e-05,0.00535999983549118,0.057679999619722366
6573.718054098828,1256138.0,0.016170000657439232,-0.005489999894052744,0.021390000358223915,0.05104000121355057
6573.719053871044,1256139.0,0.008179999887943268,-0.006949999835342169,0.010040000081062317,0.05012999847531319
6573.720053643259,1256140.0,-0.0014400000218302011,0.0018599999602884054,0.00031999999191612005,0.05488999933004379
6573.721053415475,1256141.0,-0.006380000151693821,0.004679999779909849,-0.008580000139772892,0.058139998465776443
6573.72205318769,1256142.0,-0.007009999826550484,0.002859999891370535,-0.018799999728798866,0.05561999976634979
6573.723052959905,1256143.0,-0.004809999838471413,0.003809999907389283,-0.016529999673366547,0.051589999347925186
6573.72405273212,1256144.0,0.0003100000030826777,0.0036800000816583633,-0.013399999588727951,0.05144999921321869
6573.7250525043355,1256145.0,0.008310000412166119,-0.0027199999894946814,-0.0027699999045580626,0.05776999890804291
6573.726052276551,1256146.0,0.01671000011265278,-0.005489999894052744,-0.010219999589025974,0.058139998465776443
6573.727052048766,1256147.0,0.024529999122023582,0.00031999999191612005,-0.008630000054836273,0.051500000059604645
6573.728051820981,1256148.0,0.03058999963104725,0.010490000247955322,-0.00749000022187829,0.050769999623298645
6573.729051593196,1256149.0,0.03369000181555748,0.00031999999191612005,-0.0031799999997019768,0.05858999863266945
6573.730051365412,1256150.0,0.03468000143766403,-0.005950000137090683,0.0052200001664459705,0.055980000644922256
6573.731051137627,1256151.0,0.03382999822497368,0.006039999891072512,0.004449999891221523,0.051589999347925186
6573.732050909843,1256152.0,0.03198999911546707,0.008990000002086163,0.008580000139772892,0.058139998465776443
6573.733050682057,1256153.0,0.030729999765753746,-0.0015899999998509884,-0.007540000136941671,0.0514100007712841
6573.734050454273,1256154.0,0.028209999203681946,-0.003590000094845891,-0.01752999983727932,0.05671999976038933
6573.735050226488,1256155.0,0.02727000042796135,0.004360000137239695,-0.007400000002235174,0.05607999861240387
6573.7360499987035,1256156.0,0.02606000006198883,0.00913000013679266,-0.003220000071451068,0.05177000164985657
6573.737049770919,1256157.0,0.024080000817775726,0.00571999978274107,-0.0024999999441206455,0.058139998465776443
6573.738049543134,1256158.0,0.019770000129938126,0.003949999809265137,-0.033149998635053635,0.05094999819993973
6573.739049315349,1256159.0,0.014379999600350857,0.011130000464618206,-0.014030000194907188,0.053050000220537186
