LSL_Time,PLUX_P1_nSeq,PLUX_P1_ECG0,PLUX_P1_EMG1,PLUX_P1_EMG2,PLUX_P1_RESPIRATION3
7034.350105245125,1716875.0,0.04428999871015549,-0.005679999943822622,0.002950000111013651,-0.5033599734306335
7034.351105017339,1716876.0,0.04349000006914139,-0.011309999972581863,0.004000000189989805,-0.5057399868965149
7034.352104789555,1716877.0,0.04106000065803528,-0.016170000657439232,0.010579999536275864,-0.4996899962425232
7034.35310456177,1716878.0,0.03943999856710434,-0.01104000024497509,0.003719999920576811,-0.500789999961853
7034.354104333986,1716879.0,0.04106000065803528,-0.004040000028908253,-0.006180000025779009,-0.5047799944877625
7034.355104106201,1716880.0,0.04456000030040741,0.00031999999191612005,-0.01711999997496605,-0.5038599967956543
7034.3561038784155,1716881.0,0.04761999845504761,0.015350000001490116,-0.015890000388026237,-0.502810001373291
7034.357103650631,1716882.0,0.05040000006556511,0.028880000114440918,-0.014759999699890614,-0.5024899840354919
7034.358103422846,1716883.0,0.049639999866485596,0.021929999813437462,-0.01711999997496605,-0.5044999718666077
7034.359103195062,1716884.0,0.04797999933362007,0.0052200001664459705,-0.010759999975562096,-0.5046799778938293
7034.360102967277,1716885.0,0.04295000061392784,0.0037700000684708357,0.0011399999493733048,-0.5040000081062317
7034.361102739493,1716886.0,0.03558000177145004,-0.0011399999493733048,0.003220000071451068,-0.5018900036811829
7034.362102511707,1716887.0,0.026499999687075615,-0.003269999986514449,0.006130000110715628,-0.5060099959373474
7034.363102283923,1716888.0,0.02102000080049038,0.004129999782890081,-0.0016799999866634607,-0.5055099725723267
7034.364102056138,1716889.0,0.018549999222159386,-0.014349999837577343,0.006630000192672014,-0.5019400119781494
7034.3651018283535,1716890.0,0.019859999418258667,-0.007899999618530273,0.0071299998089671135,-0.5061500072479248
7034.366101600569,1716891.0,0.019050000235438347,-0.0011399999493733048,0.007540000136941671,-0.5058299899101257
7034.3671013727835,1716892.0,0.01607999950647354,-0.0031300000846385956,0.017480000853538513,-0.5021200180053711
7034.368101144999,1716893.0,0.013159999623894691,-0.000910000002477318,0.0016799999866634607,-0.5061500072479248
7034.369100917214,1716894.0,0.008980000391602516,0.0072200000286102295,0.00267999991774559,-0.5060099959373474
7034.37010068943,1716895.0,0.00674000009894371,0.003269999986514449,0.003449999960139394,-0.5069699883460999
7034.371100461645,1716896.0,0.005210000090301037,0.0021299999207258224,0.0027199999894946814,-0.501479983329773
7034.372100233861,1716897.0,0.005929999984800816,0.003220000071451068,0.004679999779909849,-0.5025799870491028
7034.373100006075,1716898.0,0.005570000037550926,0.0044999998062849045,-0.0051299999468028545,-0.5059199929237366
7034.374099778291,1716899.0,0.005799999926239252,0.003719999920576811,-0.022299999371170998,-0.5047299861907959
7034.375099550506,1716900.0,0.008270000107586384,0.001230000052601099,-0.012489999644458294,-0.5036299824714661
7034.3760993227215,1716901.0,0.010689999908208847,-0.0011399999493733048,-0.0018599999602884054,-0.5035899877548218
7034.377099094937,1716902.0,0.009789999574422836,-0.003719999920576811,-0.021479999646544456,-0.5045899748802185
7034.3780988671515,1716903.0,0.005570000037550926,-0.00041000000783242285,-0.020250000059604645,-0.5051400065422058
7034.379098639367,1716904.0,0.00107999995816499,-0.007449999917298555,-0.005590000189840794,-0.5016599893569946
7034.380098411582,1716905.0,-0.002520000096410513,-0.012810000218451023,-0.001180000021122396,-0.5035899877548218
7034.381098183798,1716906.0,-0.007009999826550484,-0.01906999945640564,0.00795000046491623,-0.5035899877548218
7034.382097956013,1716907.0,-0.010599999688565731,-0.01711999997496605,0.017079999670386314,-0.5044999718666077
7034.383097728229,1716908.0,-0.01307000033557415,-0.008949999697506428,0.014209999702870846,-0.5006600022315979
7034.384097500443,1716909.0,-0.014290000312030315,-0.006539999973028898,0.014349999837577343,-0.504360020160675
7034.385097272659,1716910.0,-0.014510000124573708,-0.00203999993391335,0.009759999811649323,-0.5037699937820435
7034.386097044874,1716911.0,-0.012760000303387642,-0.006089999806135893,0.025750000029802322,-0.4994199872016907
7034.3870968170895,1716912.0,-0.008980000391602516,0.005040000192821026,0.009949999861419201,-0.5024899840354919
7034.388096589304,1716913.0,-0.004720000084489584,0.005539999809116125,0.00535999983549118,-0.5038099884986877
7034.3890963615195,1716914.0,-0.000539999979082495,0.006769999861717224,0.00418000016361475,-0.4989599883556366
7034.390096133735,1716915.0,0.002739999908953905,0.010040000081062317,-0.009039999917149544,-0.5013899803161621
7034.39109590595,1716916.0,0.003949999809265137,0.00031999999191612005,-0.0022700000554323196,-0.5005599856376648
7034.392095678166,1716917.0,0.0025599999353289604,0.0022299999836832285,-0.0031799999997019768,-0.4985499978065491
7034.393095450381,1716918.0,-0.0007200000109151006,0.00031999999191612005,-0.005590000189840794,-0.5017499923706055
7034.394095222597,1716919.0,-0.0011699999449774623,0.01566999964416027,-0.013170000165700912,-0.500789999961853
7034.395094994811,1716920.0,0.0027000000700354576,0.012489999644458294,-0.006949999835342169,-0.4992400109767914
7034.396094767027,1716921.0,0.008580000139772892,0.006630000192672014,-0.012400000356137753,-0.4971800148487091
7034.397094539242,1716922.0,0.013249999843537807,0.004679999779909849,-0.007400000002235174,-0.49869000911712646
7034.3980943114575,1716923.0,0.012799999676644802,-0.000910000002477318,-0.006399999838322401,-0.49873000383377075
7034.399094083672,1716924.0,0.008630000054836273,-0.005489999894052744,-0.003909999970346689,-0.49919000267982483
7034.4000938558875,1716925.0,0.002520000096410513,-0.01689000055193901,0.00535999983549118,-0.49786001443862915
7034.401093628103,1716926.0,-0.004089999943971634,-0.02020999975502491,0.015259999781847,-0.49612000584602356
7034.402093400318,1716927.0,-0.012760000303387642,-0.01711999997496605,0.016300000250339508,-0.4975399971008301
7034.403093172534,1716928.0,-0.0200399998575449,-0.005859999917447567,0.010490000247955322,-0.49296998977661133
7034.404092944749,1716929.0,-0.02281999960541725,0.00267999991774559,-0.008580000139772892,-0.494159996509552
7034.405092716964,1716930.0,-0.021649999544024467,0.012900000438094139,-0.02906000055372715,-0.49599000811576843
7034.406092489179,1716931.0,-0.020479999482631683,0.015209999866783619,-0.06385000050067902,-0.49498000741004944
7034.407092261395,1716932.0,-0.019950000569224358,0.022299999371170998,-0.044780001044273376,-0.49452000856399536
7034.40809203361,1716933.0,-0.020309999585151672,0.03173999860882759,-0.017799999564886093,-0.49465999007225037
7034.4090918058255,1716934.0,-0.019950000569224358,0.01947999931871891,0.015209999866783619,-0.4901700019836426
7034.41009157804,1716935.0,-0.01671000011265278,-0.004089999943971634,0.03606000170111656,-0.4903999865055084
7034.411091350255,1716936.0,-0.015449999831616879,-0.01671000011265278,0.05758000165224075,-0.49081000685691833
7034.412091122471,1716937.0,-0.016440000385046005,-0.0355600006878376,0.06134999915957451,-0.4912300109863281
7034.413090894686,1716938.0,-0.016349999234080315,-0.02329999953508377,0.05694999918341637,-0.49265000224113464
7034.414090666902,1716939.0,-0.01092000026255846,-0.005770000163465738,0.027380000799894333,-0.491129994392395
7034.415090439117,1716940.0,-0.0010300000431016088,0.0031799999997019768,-0.01104000024497509,-0.4897199869155884
7034.416090211332,1716941.0,0.0088900001719594,0.00014000000373926014,-0.03164999932050705,-0.48906999826431274
7034.417089983547,1716942.0,0.013340000063180923,0.004269999917596579,-0.04255000129342079,-0.49004000425338745
7034.418089755763,1716943.0,0.013930000364780426,0.004310000222176313,-0.02166000008583069,-0.4863699972629547
7034.419089527978,1716944.0,0.010239999741315842,-0.0024500000290572643,-0.016119999811053276,-0.4849100112915039
7034.4200893001935,1716945.0,0.004540000110864639,0.006089999806135893,-0.00880999956279993,-0.4855499863624573
7034.421089072408,1716946.0,-0.00107999995816499,0.004220000002533197,-0.005270000081509352,-0.4849100112915039
7034.422088844623,1716947.0,-0.0047599999234080315,0.0010400000028312206,0.004769999999552965,-0.48715001344680786
7034.423088616839,1716948.0,-0.0069599999114871025,0.003909999970346689,-0.001230000052601099,-0.48600998520851135
7034.424088389054,1716949.0,-0.006870000157505274,0.00749000022187829,-0.012900000438094139,-0.48627999424934387
7034.42508816127,1716950.0,-0.0028800000436604023,0.00795000046491623,-0.01489999983459711,-0.4845399856567383
7034.426087933485,1716951.0,0.0015300000086426735,0.005679999943822622,-0.0037700000684708357,-0.48151999711990356
7034.4270877057,1716952.0,0.004670000169426203,-4.999999873689376e-05,-0.00494999997317791,-0.47991999983787537
7034.428087477915,1716953.0,0.006200000178068876,0.00031999999191612005,-0.02133999951183796,-0.4822100102901459
7034.429087250131,1716954.0,0.004220000002533197,-0.004220000002533197,0.00031999999191612005,-0.48322001099586487
7034.430087022346,1716955.0,0.000539999979082495,-0.01221999991685152,0.007040000054985285,-0.4810200035572052
7034.431086794561,1716956.0,-0.0028800000436604023,-0.007579999975860119,0.013399999588727951,-0.4812900125980377
7034.432086566776,1716957.0,-0.0029200001154094934,0.0020000000949949026,0.016669999808073044,-0.4794600009918213
7034.433086338991,1716958.0,-0.0017999999690800905,0.0006799999973736703,0.008670000359416008,-0.47804000973701477
7034.434086111207,1716959.0,0.003590000094845891,-0.0028200000524520874,0.018209999427199364,-0.4759399890899658
7034.435085883422,1716960.0,0.0101500004529953,-0.000539999979082495,0.022120000794529915,-0.47574999928474426
7034.436085655638,1716961.0,0.01761000044643879,0.0021299999207258224,0.021069999784231186,-0.47516000270843506
7034.437085427853,1716962.0,0.023310000076889992,0.0033199999015778303,0.00989999994635582,-0.47461000084877014
7034.438085200068,1716963.0,0.027130000293254852,-0.0012700000079348683,0.0025400000158697367,-0.47501999139785767
7034.439084972283,1716964.0,0.02606000006198883,0.0002699999895412475,-0.006630000192672014,-0.47639000415802
7034.440084744499,1716965.0,0.024529999122023582,-0.0013599999947473407,-0.013220000080764294,-0.47606998682022095
7034.441084516714,1716966.0,0.020840000361204147,0.008860000409185886,-0.025839999318122864,-0.4743799865245819
7034.442084288929,1716967.0,0.01940999925136566,0.016209999099373817,-0.017710000276565552,-0.47429001331329346
7034.443084061144,1716968.0,0.018239999189972878,0.0072200000286102295,-0.015399999916553497,-0.4738300144672394
7034.444083833359,1716969.0,0.01689000055193901,-0.00041000000783242285,-0.002950000111013651,-0.47071999311447144
7034.445083605575,1716970.0,0.016529999673366547,-0.001820000004954636,0.0010400000028312206,-0.4686099886894226
7034.44608337779,1716971.0,0.017430000007152557,-0.006949999835342169,0.006680000107735395,-0.46869999170303345
7034.447083150006,1716972.0,0.019770000129938126,-0.0037700000684708357,0.003220000071451068,-0.4686099886894226
7034.448082922221,1716973.0,0.02443999983370304,0.003539999946951866,0.0064500002190470695,-0.46998998522758484
7034.449082694436,1716974.0,0.02606000006198883,0.005770000163465738,0.00418000016361475,-0.46880000829696655
7034.450082466651,1716975.0,0.024299999698996544,0.011219999752938747,4.999999873689376e-05,-0.4684300124645233
7034.451082238867,1716976.0,0.017430000007152557,0.0035000001080334187,0.0010000000474974513,-0.46678000688552856
7034.452082011082,1716977.0,0.0010300000431016088,-0.003909999970346689,-0.00571999978274107,-0.46691998839378357
7034.4530817832965,1716978.0,-0.014019999653100967,-0.002090000081807375,-0.015890000388026237,-0.4655900001525879
7034.454081555512,1716979.0,-0.02133999951183796,0.0036299999337643385,-0.02816000021994114,-0.4622499942779541
7034.455081327727,1716980.0,-0.021649999544024467,-0.004089999943971634,-0.009630000218749046,-0.4613800048828125
7034.456081099943,1716981.0,-0.02012999914586544,-0.00044999999227002263,-4.999999873689376e-05,-0.4609200060367584
7034.457080872158,1716982.0,-0.019680000841617584,0.00203999993391335,0.016759999096393585,-0.46074000000953674
7034.458080644374,1716983.0,-0.020479999482631683,0.001500000013038516,0.01775999926030636,-0.4608300030231476
7034.459080416589,1716984.0,-0.020659999921917915,0.0027699999045580626,0.015259999781847,-0.46219998598098755
7034.460080188804,1716985.0,-0.020980000495910645,-0.006949999835342169,0.016300000250339508,-0.46059998869895935
7034.461079961019,1716986.0,-0.020570000633597374,-0.0006399999838322401,0.024660000577569008,-0.4599199891090393
7034.4620797332345,1716987.0,-0.019950000569224358,-0.011989999562501907,0.02548000030219555,-0.4554699957370758
7034.46307950545,1716988.0,-0.019139999523758888,-0.021709999069571495,0.010540000163018703,-0.4564400017261505
7034.4640792776645,1716989.0,-0.020840000361204147,-0.012400000356137753,-0.004000000189989805,-0.4563399851322174
7034.46507904988,1716990.0,-0.02402999997138977,-0.003449999960139394,-0.027790000662207603,-0.455020010471344
7034.466078822095,1716991.0,-0.024660000577569008,-0.0020000000949949026,-0.017480000853538513,-0.45318999886512756
7034.467078594311,1716992.0,-0.019770000129938126,0.006130000110715628,-0.011309999972581863,-0.4532800018787384
7034.468078366526,1716993.0,-0.008799999952316284,0.01063000038266182,-0.002859999891370535,-0.45309001207351685
7034.469078138742,1716994.0,0.0033199999015778303,0.014209999702870846,0.0021299999207258224,-0.45131000876426697
7034.470077910956,1716995.0,0.014019999653100967,0.015080000273883343,-0.001230000052601099,-0.4488399922847748
7034.471077683172,1716996.0,0.02043999917805195,-4.999999873689376e-05,0.0024999999441206455,-0.45058000087738037
7034.472077455387,1716997.0,0.02443999983370304,-0.002950000111013651,-0.0010400000028312206,-0.4501599967479706
7034.4730772276025,1716998.0,0.02848000079393387,0.003719999920576811,-0.004089999943971634,-0.44571998715400696
7034.474076999818,1716999.0,0.03037000074982643,0.0009500000160187483,-0.013620000332593918,-0.4479199945926666
7034.4750767720325,1717000.0,0.029689999297261238,0.004310000222176313,-0.010540000163018703,-0.4475100040435791
7034.476076544248,1717001.0,0.028209999203681946,0.00535999983549118,-0.005489999894052744,-0.4430199861526489
7034.477076316463,1717002.0,0.02857000008225441,0.00031999999191612005,0.00031999999191612005,-0.44499000906944275
7034.478076088679,1717003.0,0.02928999997675419,-0.0033199999015778303,0.013849999755620956,-0.4450800120830536
7034.479075860894,1717004.0,0.029740000143647194,-0.004040000028908253,0.0076299998909235,-0.4391300082206726
7034.48007563311,1717005.0,0.03099999949336052,-0.00571999978274107,-0.0019099999917671084,-0.4411500096321106
7034.481075405324,1717006.0,0.030910000205039978,0.010130000300705433,-0.009449999779462814,-0.4397299885749817
7034.48207517754,1717007.0,0.02745000086724758,0.005400000140070915,-0.005810000002384186,-0.43748000264167786
7034.483074949755,1717008.0,0.022690000012516975,0.004040000028908253,-0.008580000139772892,-0.4349699914455414
7034.4840747219705,1717009.0,0.02022000029683113,-0.005489999894052744,-0.01638999953866005,-0.4381299912929535
7034.485074494186,1717010.0,0.016349999234080315,-0.00494999997317791,0.003220000071451068,-0.43601998686790466
7034.4860742664005,1717011.0,0.015180000104010105,0.008270000107586384,-0.00044999999227002263,-0.4343299865722656
7034.487074038616,1717012.0,0.014550000429153442,0.005400000140070915,0.011579999700188637,-0.4338200092315674
7034.488073810831,1717013.0,0.02215000055730343,-0.002950000111013651,0.01638999953866005,-0.42998000979423523
7034.489073583047,1717014.0,0.03172000125050545,-0.005489999894052744,0.005040000192821026,-0.4291999936103821
7034.490073355262,1717015.0,0.038989998400211334,-0.018619999289512634,0.00880999956279993,-0.4301599860191345
7034.491073127478,1717016.0,0.04537000134587288,-0.01221999991685152,0.012350000441074371,-0.42824000120162964
7034.492072899692,1717017.0,0.05076000094413757,-0.00803999975323677,0.0009500000160187483,-0.4267300069332123
7034.493072671908,1717018.0,0.05610999837517738,-0.004900000058114529,0.012489999644458294,-0.423660010099411
7034.494072444123,1717019.0,0.05956999957561493,0.004129999782890081,-0.0008200000156648457,-0.42489999532699585
7034.4950722163385,1717020.0,0.0645499974489212,0.014619999565184116,-0.010350000113248825,-0.4247100055217743
7034.496071988554,1717021.0,0.0709799975156784,0.0024999999441206455,-0.010080000385642052,-0.42214998602867126
7034.497071760768,1717022.0,0.07897000014781952,0.004129999782890081,-0.009399999864399433,-0.4215500056743622
7034.498071532984,1717023.0,0.08525999635457993,0.005040000192821026,-0.002589999930933118,-0.41986000537872314
7034.499071305199,1717024.0,0.08885999768972397,0.012810000218451023,0.006130000110715628,-0.4162899851799011
7034.500071077415,1717025.0,0.08912999927997589,0.015939999371767044,-0.003909999970346689,-0.41725000739097595
7034.50107084963,1717026.0,0.09092000126838684,0.007269999943673611,-0.0034099998883903027,-0.41721001267433167
7034.502070621846,1717027.0,0.09657999873161316,-0.002319999970495701,-0.0045900000259280205,-0.4144600033760071
7034.50307039406,1717028.0,0.1029599979519844,-0.00044999999227002263,0.005630000028759241,-0.41451001167297363
7034.504070166276,1717029.0,0.11087000370025635,-0.0027699999045580626,0.01752999983727932,-0.41047999262809753
7034.505069938491,1717030.0,0.11806000024080276,-0.006719999946653843,-0.0062699997797608376,-0.40874001383781433
7034.5060697107065,1717031.0,0.12471000105142593,0.0015399999683722854,-0.01826000027358532,-0.40713998675346375
7034.507069482922,1717032.0,0.13098999857902527,-0.0063599999994039536,-0.02184000052511692,-0.4064500033855438
7034.508069255136,1717033.0,0.13773000240325928,-0.0007699999841861427,-0.002409999957308173,-0.4060400128364563
7034.509069027352,1717034.0,0.1453700065612793,-0.002319999970495701,0.014530000276863575,-0.40639999508857727
7034.510068799567,1717035.0,0.15022000670433044,0.003949999809265137,-0.001449999981559813,-0.4036099910736084
7034.511068571783,1717036.0,0.15112000703811646,0.004679999779909849,0.0036299999337643385,-0.4037500023841858
7034.512068343998,1717037.0,0.14887000620365143,0.005770000163465738,-0.002589999930933118,-0.4008199870586395
7034.513068116214,1717038.0,0.1438400000333786,0.0016799999866634607,0.0044999998062849045,-0.4006800055503845
7034.514067888428,1717039.0,0.1375499963760376,0.00203999993391335,-0.0033199999015778303,-0.398389995098114
7034.515067660644,1717040.0,0.13207000494003296,-0.00571999978274107,0.00535999983549118,-0.3981199860572815
7034.516067432859,1717041.0,0.12919999659061432,-0.010169999673962593,0.007579999975860119,-0.395550012588501
7034.517067205074,1717042.0,0.126010000705719,-0.0015899999998509884,-0.006680000107735395,-0.392300009727478
7034.518066977289,1717043.0,0.12255000323057175,0.0010900000343099236,-0.00989999994635582,-0.3942300081253052
7034.519066749504,1717044.0,0.11751999706029892,0.0002300000051036477,-0.0033199999015778303,-0.39166000485420227
7034.52006652172,1717045.0,0.11005999892950058,-0.003909999970346689,0.005590000189840794,-0.3881399929523468
7034.521066293935,1717046.0,0.10350000113248825,-0.00798999983817339,0.01257999986410141,-0.38850000500679016
7034.522066066151,1717047.0,0.09617999941110611,-0.0016799999866634607,0.012670000083744526,-0.38881999254226685
7034.523065838366,1717048.0,0.08867999911308289,0.001449999981559813,0.009759999811649323,-0.38690000772476196
7034.524065610582,1717049.0,0.0837400034070015,-0.002090000081807375,0.015350000001490116,-0.38346999883651733
7034.525065382796,1717050.0,0.08224999904632568,-0.00203999993391335,0.016259999945759773,-0.380950003862381
7034.526065155012,1717051.0,0.08589000254869461,0.005270000081509352,0.014120000414550304,-0.38155001401901245
7034.527064927227,1717052.0,0.09172999858856201,0.0024999999441206455,0.005810000002384186,-0.3816800117492676
7034.528064699442,1717053.0,0.09470000118017197,0.005179999861866236,-0.026159999892115593,-0.3784799873828888
7034.529064471657,1717054.0,0.09478999674320221,0.00795000046491623,-0.04092000052332878,-0.3778400123119354
7034.530064243872,1717055.0,0.09290000051259995,0.011219999752938747,-0.03420000150799751,-0.3746800124645233
7034.531064016088,1717056.0,0.09232000261545181,-0.0007699999841861427,-0.017570000141859055,-0.37229999899864197
7034.532063788303,1717057.0,0.0952799990773201,-0.005270000081509352,0.0036800000816583633,-0.37244001030921936
7034.533063560519,1717058.0,0.10102999955415726,-0.003539999946951866,0.011900000274181366,-0.37303000688552856
7034.534063332734,1717059.0,0.10780999809503555,-0.000590000010561198,0.024299999698996544,-0.3699600100517273
7034.535063104949,1717060.0,0.11688999831676483,0.0021299999207258224,0.023339999839663506,-0.36873000860214233
7034.536062877164,1717061.0,0.12038999795913696,0.0021299999207258224,0.01181000005453825,-0.3644700050354004
7034.53706264938,1717062.0,0.11860000342130661,0.001230000052601099,0.01752999983727932,-0.3655700087547302
7034.538062421595,1717063.0,0.11392000317573547,0.004129999782890081,0.006130000110715628,-0.36493000388145447
7034.53906219381,1717064.0,0.11050999909639359,0.00203999993391335,-0.01671000011265278,-0.36223000288009644
7034.540061966025,1717065.0,0.11150000244379044,-0.002950000111013651,-0.011309999972581863,-0.36035001277923584
7034.54106173824,1717066.0,0.11576999723911285,-0.005489999894052744,-0.012760000303387642,-0.35714998841285706
7034.542061510456,1717067.0,0.12093000113964081,0.003000000026077032,-0.007899999618530273,-0.35815000534057617
7034.543061282671,1717068.0,0.12281999737024307,-4.999999873689376e-05,-0.012760000303387642,-0.3557699918746948
7034.544061054887,1717069.0,0.11905000358819962,-0.007540000136941671,-0.0013599999947473407,-0.3543500006198883
7034.545060827102,1717070.0,0.11113999783992767,-0.008270000107586384,0.003000000026077032,-0.35051000118255615
7034.546060599317,1717071.0,0.10565999895334244,0.004679999779909849,-0.0018599999602884054,-0.3502799868583679
7034.547060371532,1717072.0,0.1035899966955185,0.01711999997496605,0.001180000021122396,-0.35051000118255615
7034.5480601437475,1717073.0,0.10153000056743622,0.008220000192523003,0.0002699999895412475,-0.3478499948978424
7034.549059915963,1717074.0,0.10080999881029129,0.002950000111013651,-0.013220000080764294,-0.3453800082206726
7034.550059688178,1717075.0,0.0997299998998642,-0.0028200000524520874,0.0025400000158697367,-0.34244999289512634
7034.551059460393,1717076.0,0.09739000350236893,-0.0021800000686198473,0.0037700000684708357,-0.34244999289512634
7034.552059232608,1717077.0,0.09362000226974487,0.0019099999917671084,0.005270000081509352,-0.3418999910354614
7034.553059004824,1717078.0,0.09254000335931778,0.00267999991774559,0.005489999894052744,-0.33928999304771423
7034.554058777039,1717079.0,0.09335000067949295,0.00031999999191612005,-0.0022299999836832285,-0.3372800052165985
7034.555058549255,1717080.0,0.09505999833345413,-0.0008200000156648457,0.007449999917298555,-0.33434998989105225
7034.55605832147,1717081.0,0.09470000118017197,-0.0031799999997019768,0.01181000005453825,-0.3343000113964081
7034.557058093685,1717082.0,0.08867999911308289,-0.004999999888241291,0.0044999998062849045,-0.33379998803138733
7034.5580578659,1717083.0,0.08157999813556671,-0.002589999930933118,0.0,-0.33101001381874084
7034.5590576381155,1717084.0,0.07645999640226364,-0.0021800000686198473,-0.008539999835193157,-0.32927000522613525
7034.560057410331,1717085.0,0.07187999784946442,-0.003949999809265137,-0.009080000221729279,-0.3267500102519989
7034.561057182546,1717086.0,0.06571999937295914,-0.005489999894052744,0.0024999999441206455,-0.32396000623703003
7034.562056954761,1717087.0,0.059300001710653305,-0.004040000028908253,0.007579999975860119,-0.3231399953365326
7034.563056726976,1717088.0,0.0553399994969368,-0.0006399999838322401,0.005590000189840794,-0.3234100043773651
7034.564056499192,1717089.0,0.05714000016450882,-0.002090000081807375,0.003220000071451068,-0.3205299973487854
7034.565056271407,1717090.0,0.06334000080823898,0.005400000140070915,-0.012810000218451023,-0.3191100060939789
7034.566056043623,1717091.0,0.07384999841451645,0.01775999926030636,-0.004410000052303076,-0.31586000323295593
7034.567055815838,1717092.0,0.08247999846935272,0.013030000030994415,-0.011350000277161598,-0.3146199882030487
7034.568055588053,1717093.0,0.08624999970197678,0.001769999973475933,-0.00839999970048666,-0.31424999237060547
7034.569055360268,1717094.0,0.0865200012922287,-0.0044999998062849045,-0.0033199999015778303,-0.31150999665260315
7034.5700551324835,1717095.0,0.08212000131607056,-0.004629999864846468,0.006719999946653843,-0.3091700077056885
7034.571054904699,1717096.0,0.0752900019288063,0.001769999973475933,-0.0031300000846385956,-0.3071100115776062
7034.572054676914,1717097.0,0.06999000161886215,-0.000859999970998615,0.0002699999895412475,-0.30629000067710876
7034.573054449129,1717098.0,0.06719999760389328,0.0013200000394135714,0.004679999779909849,-0.3057900071144104
7034.574054221344,1717099.0,0.0666700005531311,-0.00014000000373926014,0.010579999536275864,-0.302949994802475
7034.57505399356,1717100.0,0.06932000070810318,-0.0010900000343099236,0.00880999956279993,-0.30083999037742615
7034.576053765775,1717101.0,0.0738999992609024,-0.0031300000846385956,-4.999999873689376e-05,-0.2996099889278412
7034.577053537991,1717102.0,0.07291000336408615,-0.001180000021122396,0.003719999920576811,-0.2964499890804291
7034.578053310206,1717103.0,0.06891000270843506,-0.004269999917596579,0.00686000008136034,-0.2941100001335144
7034.579053082421,1717104.0,0.06649000197649002,-0.005859999917447567,-0.0003600000054575503,-0.29374998807907104
7034.580052854636,1717105.0,0.06504999846220016,-0.0033599999733269215,0.004900000058114529,-0.291920006275177
7034.5810526268515,1717106.0,0.065140001475811,0.0010000000474974513,0.010850000195205212,-0.290910005569458
7034.582052399067,1717107.0,0.06541000306606293,0.01066999975591898,0.002630000002682209,-0.28971999883651733
7034.583052171281,1717108.0,0.06509000062942505,0.009850000031292439,-0.02865999937057495,-0.28780001401901245
7034.584051943497,1717109.0,0.06586000323295593,0.004629999864846468,-0.014440000057220459,-0.2856900095939636
7034.585051715712,1717110.0,0.06846000254154205,0.003949999809265137,-0.009669999592006207,-0.28404000401496887
7034.586051487928,1717111.0,0.06909000128507614,-0.002090000081807375,0.009039999917149544,-0.28262001276016235
7034.587051260143,1717112.0,0.06932000070810318,-0.0031300000846385956,0.012310000136494637,-0.2799200117588043
7034.588051032359,1717113.0,0.06719999760389328,0.007579999975860119,0.0024999999441206455,-0.2780900001525879
7034.589050804574,1717114.0,0.06414999812841415,0.0083600003272295,-0.006579999811947346,-0.27643999457359314
7034.590050576789,1717115.0,0.05714000016450882,-0.000859999970998615,-0.001500000013038516,-0.2748900055885315
7034.591050349004,1717116.0,0.046539999544620514,-0.00839999970048666,0.0030400000978261232,-0.2740600109100342
7034.5920501212195,1717117.0,0.03477000072598457,-0.004809999838471413,-0.008949999697506428,-0.27254998683929443
7034.593049893435,1717118.0,0.024299999698996544,-0.001180000021122396,-0.007540000136941671,-0.2707200050354004
7034.594049665649,1717119.0,0.015860000625252724,-0.0022299999836832285,-0.013939999975264072,-0.26921001076698303
7034.595049437865,1717120.0,0.010289999656379223,0.003220000071451068,-0.0003600000054575503,-0.2669700086116791
7034.59604921008,1717121.0,0.003229999914765358,0.0021800000686198473,0.009309999644756317,-0.2649500072002411
7034.597048982296,1717122.0,-0.003010000102221966,9.000000136438757e-05,-0.002950000111013651,-0.2644500136375427
7034.598048754511,1717123.0,-0.009159999899566174,-0.005679999943822622,0.006719999946653843,-0.26339998841285706
7034.599048526727,1717124.0,-0.013299999758601189,-0.01370999962091446,0.00803999975323677,-0.2612000107765198
7034.600048298941,1717125.0,-0.016349999234080315,-0.011760000139474869,0.017030000686645508,-0.259550005197525
7034.601048071157,1717126.0,-0.020840000361204147,-0.006719999946653843,-0.0002300000051036477,-0.2578999996185303
7034.602047843372,1717127.0,-0.023669999092817307,0.0030400000978261232,-0.000910000002477318,-0.25648000836372375
7034.6030476155875,1717128.0,-0.02507000043988228,0.006130000110715628,-0.00571999978274107,-0.25475001335144043
7034.604047387803,1717129.0,-0.02133999951183796,0.008080000057816505,-0.010219999589025974,-0.2533699870109558
7034.605047160017,1717130.0,-0.015720000490546227,0.008670000359416008,-0.01730000041425228,-0.2516300082206726
7034.606046932233,1717131.0,-0.014019999653100967,0.005900000222027302,-0.028020000085234642,-0.2505300045013428
7034.607046704448,1717132.0,-0.013749999925494194,0.003590000094845891,-0.01331000030040741,-0.24869999289512634
7034.608046476664,1717133.0,-0.016259999945759773,-4.999999873689376e-05,-0.0020000000949949026,-0.24706000089645386
7034.609046248879,1717134.0,-0.0175199992954731,0.00031999999191612005,0.0036299999337643385,-0.24522000551223755
7034.610046021095,1717135.0,-0.016440000385046005,-0.001769999973475933,0.022749999538064003,-0.24408000707626343
7034.611045793309,1717136.0,-0.011719999834895134,-0.010940000414848328,0.03805999830365181,-0.2419700026512146
7034.612045565525,1717137.0,-0.005710000172257423,-9.000000136438757e-05,0.03029000014066696,-0.24014000594615936
7034.61304533774,1717138.0,-0.0012600000482052565,0.00031999999191612005,0.018850000575184822,-0.2380799949169159
7034.614045109955,1717139.0,0.004310000222176313,0.0027699999045580626,0.01689000055193901,-0.2371699959039688
7034.615044882171,1717140.0,0.009340000338852406,0.005090000107884407,0.005309999920427799,-0.23592999577522278
7034.616044654385,1717141.0,0.010599999688565731,-0.0033199999015778303,0.005900000222027302,-0.23419000208377838
7034.617044426601,1717142.0,0.007860000245273113,-0.014670000411570072,0.004860000219196081,-0.2324499934911728
7034.618044198816,1717143.0,0.0013500000350177288,-0.008220000192523003,-0.00880999956279993,-0.2311200052499771
7034.619043971032,1717144.0,-0.007459999993443489,-0.000590000010561198,-0.016300000250339508,-0.2292499989271164
7034.620043743247,1717145.0,-0.018869999796152115,-0.003000000026077032,-0.019209999591112137,-0.2273699939250946
7034.621043515463,1717146.0,-0.02865999937057495,-0.000590000010561198,-0.017170000821352005,-0.22604000568389893
7034.622043287677,1717147.0,-0.03423000127077103,0.0002699999895412475,-0.017389999702572823,-0.22452999651432037
7034.623043059893,1717148.0,-0.03683999925851822,0.0022299999836832285,-0.01181000005453825,-0.2227499932050705
7034.624042832108,1717149.0,-0.035760000348091125,9.000000136438757e-05,0.0010400000028312206,-0.2208700031042099
7034.625042604323,1717150.0,-0.03172000125050545,0.005040000192821026,0.0028200000524520874,-0.21895000338554382
7034.626042376539,1717151.0,-0.027130000293254852,0.009850000031292439,0.0002300000051036477,-0.21743999421596527
7034.627042148753,1717152.0,-0.022369999438524246,0.006130000110715628,0.0024500000290572643,-0.2159699946641922
7034.628041920969,1717153.0,-0.0142000000923872,0.0015399999683722854,0.0013599999947473407,-0.21400000154972076
7034.629041693184,1717154.0,-0.0083600003272295,0.008310000412166119,-0.0018599999602884054,-0.21312999725341797
7034.6300414654,1717155.0,-0.0047599999234080315,0.011579999700188637,-0.009580000303685665,-0.21149000525474548
7034.631041237615,1717156.0,-0.002520000096410513,0.003000000026077032,-0.0195700004696846,-0.20896999537944794
7034.632041009831,1717157.0,-0.0028800000436604023,0.0,-0.01711999997496605,-0.20732000470161438
7034.633040782045,1717158.0,-0.004449999891221523,9.000000136438757e-05,-0.012849999591708183,-0.20572000741958618
7034.6340405542605,1717159.0,-0.009030000306665897,-0.00267999991774559,-0.006769999861717224,-0.2036599963903427
7034.635040326476,1717160.0,-0.012670000083744526,0.004679999779909849,0.01484999991953373,-0.2015099972486496
7034.636040098691,1717161.0,-0.018330000340938568,0.01140000019222498,0.016979999840259552,-0.199630007147789
7034.637039870907,1717162.0,-0.021970000118017197,0.018939999863505363,0.011939999647438526,-0.19765999913215637
7034.638039643121,1717163.0,-0.025469999760389328,0.01257999986410141,0.024159999564290047,-0.19652000069618225
7034.639039415337,1717164.0,-0.027580000460147858,-0.001500000013038516,0.024299999698996544,-0.19509999454021454
7034.640039187552,1717165.0,-0.028710000216960907,-0.00018000000272877514,0.011939999647438526,-0.19276000559329987
7034.641038959768,1717166.0,-0.027489999309182167,-0.003449999960139394,0.0014100000262260437,-0.1901099979877472
7034.642038731983,1717167.0,-0.02776000089943409,-0.015799999237060547,-0.009170000441372395,-0.18846000730991364
7034.643038504199,1717168.0,-0.026590000838041306,-0.02329999953508377,-0.014709999784827232,-0.18723000586032867
7034.644038276413,1717169.0,-0.022460000589489937,-0.009170000441372395,-0.022390000522136688,-0.1856199949979782
7034.6450380486285,1717170.0,-0.020260000601410866,0.00267999991774559,-0.023749999701976776,-0.18384000658988953
7034.646037820844,1717171.0,-0.021740000694990158,-0.000590000010561198,-0.006949999835342169,-0.18036000430583954
7034.647037593059,1717172.0,-0.022369999438524246,-0.0012700000079348683,0.0019099999917671084,-0.1785700023174286
7034.648037365275,1717173.0,-0.02474999986588955,0.0017300000181421638,0.005450000055134296,-0.17564000189304352
7034.649037137489,1717174.0,-0.030009999871253967,-0.007449999917298555,-0.0027699999045580626,-0.17473000288009644
7034.650036909705,1717175.0,-0.03531000018119812,-0.005859999917447567,0.0022700000554323196,-0.17215999960899353
7034.65103668192,1717176.0,-0.039980001747608185,-0.0020000000949949026,0.009259999729692936,-0.16910000145435333
7034.652036454136,1717177.0,-0.044829998165369034,0.00686000008136034,0.0036299999337643385,-0.1681399941444397
7034.653036226351,1717178.0,-0.04735000059008598,0.003220000071451068,0.005539999809116125,-0.16588999330997467
7034.6540359985665,1717179.0,-0.05012999847531319,0.00989999994635582,0.002409999957308173,-0.16245999932289124
7034.655035770781,1717180.0,-0.0530100017786026,0.011939999647438526,0.007899999618530273,-0.1604900062084198
7034.6560355429965,1717181.0,-0.05471999943256378,0.00267999991774559,0.008270000107586384,-0.1590300053358078
7034.657035315212,1717182.0,-0.05804000049829483,-0.0028200000524520874,-0.002589999930933118,-0.15678000450134277
7034.658035087427,1717183.0,-0.06432999670505524,-0.00014000000373926014,-0.009850000031292439,-0.15435999631881714
7034.659034859642,1717184.0,-0.06962999701499939,-0.002589999930933118,-0.010350000113248825,-0.15357999503612518
7034.660034631857,1717185.0,-0.0743900015950203,-0.005489999894052744,0.002589999930933118,-0.14858999848365784
7034.661034404073,1717186.0,-0.07619000226259232,0.0030400000978261232,0.011219999752938747,-0.14643999934196472
7034.662034176288,1717187.0,-0.07664000242948532,0.009630000218749046,0.011760000139474869,-0.1447400003671646
7034.663033948504,1717188.0,-0.07474999874830246,0.020250000059604645,-0.004769999999552965,-0.1431400030851364
7034.664033720719,1717189.0,-0.07142999768257141,0.010490000247955322,-0.00041000000783242285,-0.13921000063419342
7034.665033492934,1717190.0,-0.06999000161886215,-0.005679999943822622,-0.004410000052303076,-0.13801999390125275
7034.666033265149,1717191.0,-0.06716000288724899,-0.01071999967098236,-0.0033199999015778303,-0.1363700032234192
7034.6670330373645,1717192.0,-0.06126999855041504,-0.015169999562203884,-0.014030000194907188,-0.13152000308036804
7034.66803280958,1717193.0,-0.05313999950885773,-0.012900000438094139,-0.008489999920129776,-0.12936000525951385
7034.669032581795,1717194.0,-0.045099999755620956,-0.0002300000051036477,-0.012400000356137753,-0.1295900046825409
7034.67003235401,1717195.0,-0.039889998733997345,0.005309999920427799,-0.005770000163465738,-0.12592999637126923
7034.671032126225,1717196.0,-0.0350399985909462,0.003220000071451068,-0.001230000052601099,-0.12139999866485596
7034.672031898441,1717197.0,-0.031849998980760574,0.0072200000286102295,0.006630000192672014,-0.12131000310182571
7034.673031670656,1717198.0,-0.030820000916719437,0.015119999647140503,0.005590000189840794,-0.11791999638080597
7034.674031442872,1717199.0,-0.03215999901294708,0.00686000008136034,0.00913000013679266,-0.11421000212430954
7034.675031215087,1717200.0,-0.033959999680519104,0.003220000071451068,0.00749000022187829,-0.11343000084161758
7034.676030987302,1717201.0,-0.03288000077009201,-0.003449999960139394,0.010990000329911709,-0.11040999740362167
7034.677030759517,1717202.0,-0.032430000603199005,0.013489999808371067,-0.006219999864697456,-0.1058799996972084
7034.6780305317325,1717203.0,-0.03198999911546707,0.009669999592006207,-0.012849999591708183,-0.10605999827384949
7034.679030303948,1717204.0,-0.030009999871253967,0.002319999970495701,-0.019349999725818634,-0.10395999997854233
7034.680030076163,1717205.0,-0.029559999704360962,-0.020029999315738678,0.00913000013679266,-0.09786999970674515
7034.681029848378,1717206.0,-0.03175999969244003,-0.034290000796318054,0.02321000024676323,-0.09832999855279922
7034.682029620593,1717207.0,-0.034949999302625656,-0.018570000305771828,0.003220000071451068,-0.09617999941110611
7034.683029392809,1717208.0,-0.037379998713731766,-0.009580000303685665,0.00031999999191612005,-0.08985999971628189
7034.684029165024,1717209.0,-0.0354899987578392,-0.01071999967098236,0.0072200000286102295,-0.08775000274181366
7034.68502893724,1717210.0,-0.030460000038146973,-0.016939999535679817,0.02174999937415123,-0.08656000345945358
7034.686028709455,1717211.0,-0.022690000012516975,-0.015709999948740005,0.011939999647438526,-0.08619999885559082
7034.68702848167,1717212.0,-0.011859999969601631,0.0019499999471008778,0.006539999973028898,-0.0831800028681755
7034.688028253885,1717213.0,-0.004129999782890081,0.007770000025629997,-0.005900000222027302,-0.07722000032663345
7034.6890280261005,1717214.0,-0.00107999995816499,0.01979999989271164,-0.007770000025629997,-0.07434000074863434
7034.690027798316,1717215.0,-0.0016199999954551458,0.022120000794529915,-0.025429999455809593,-0.0723700001835823
7034.691027570531,1717216.0,-0.0003600000054575503,0.011939999647438526,-0.016979999840259552,-0.06999000161886215
7034.692027342746,1717217.0,0.004040000028908253,0.009449999779462814,-0.014259999617934227,-0.0684799998998642
7034.693027114961,1717218.0,0.01095999963581562,0.0071299998089671135,-0.010350000113248825,-0.06779000163078308
7034.694026887177,1717219.0,0.0175199992954731,0.008129999972879887,-0.010080000385642052,-0.06656000018119812
7034.695026659392,1717220.0,0.018959999084472656,-0.0033199999015778303,0.007899999618530273,-0.06413000077009201
7034.696026431608,1717221.0,0.016349999234080315,-0.010219999589025974,0.011529999785125256,-0.05973999947309494
7034.697026203823,1717222.0,0.0147299999371171,-0.007309999782592058,0.01331000030040741,-0.055390000343322754
7034.698025976038,1717223.0,0.014639999717473984,0.003949999809265137,0.001769999973475933,-0.052549999207258224
7034.699025748253,1717224.0,0.016039999201893806,0.024480000138282776,-0.005679999943822622,-0.048980001360177994
7034.700025520468,1717225.0,0.01621999964118004,0.022120000794529915,-0.012350000441074371,-0.047290001064538956
7034.701025292684,1717226.0,0.01508999988436699,0.018479999154806137,-0.010579999536275864,-0.04912000149488449
7034.702025064899,1717227.0,0.014999999664723873,0.010449999943375587,-0.024250000715255737,-0.046549998223781586
7034.703024837114,1717228.0,0.016440000385046005,-0.010579999536275864,-0.011939999647438526,-0.040699999779462814
7034.704024609329,1717229.0,0.0185100007802248,-0.00880999956279993,0.019710000604391098,-0.042160000652074814
7034.705024381545,1717230.0,0.020659999921917915,-0.006949999835342169,0.03564999997615814,-0.03923000022768974
7034.70602415376,1717231.0,0.023719999939203262,-0.020570000633597374,0.042100001126527786,-0.0319099985063076
7034.707023925976,1717232.0,0.0258799996227026,-0.024569999426603317,0.030740000307559967,-0.032269999384880066
7034.708023698191,1717233.0,0.03127000108361244,-0.012129999697208405,0.021159999072551727,-0.034290000796318054
7034.709023470406,1717234.0,0.03863000124692917,-0.004629999864846468,-0.014209999702870846,-0.025590000674128532
7034.710023242621,1717235.0,0.04645000025629997,-0.010219999589025974,-0.029109999537467957,-0.024900000542402267
7034.711023014836,1717236.0,0.05445000156760216,-0.008129999972879887,-0.019300000742077827,-0.02645999938249588
7034.712022787052,1717237.0,0.061500001698732376,-0.006130000110715628,-0.011309999972581863,-0.020829999819397926
7034.713022559267,1717238.0,0.06289000064134598,0.004860000219196081,-0.01217000000178814,-0.016019999980926514
7034.714022331482,1717239.0,0.06396999955177307,0.008080000057816505,-0.002090000081807375,-0.018489999696612358
7034.715022103697,1717240.0,0.065140001475811,0.01566999964416027,-0.014030000194907188,-0.01752999983727932
7034.716021875913,1717241.0,0.0666700005531311,0.01803000085055828,-0.012760000303387642,-0.008510000072419643
7034.717021648128,1717242.0,0.06719999760389328,0.011579999700188637,-0.008220000192523003,-0.007969999685883522
7034.718021420344,1717243.0,0.06626000255346298,0.00031999999191612005,0.0063599999994039536,-0.009569999761879444
7034.719021192559,1717244.0,0.0627100020647049,0.004679999779909849,-0.00203999993391335,-0.002749999985098839
7034.7200209647735,1717245.0,0.05875999853014946,0.005040000192821026,-0.0005000000237487257,9.000000136438757e-05
7034.721020736989,1717246.0,0.05843999981880188,-0.005810000002384186,-0.004769999999552965,-0.002469999948516488
7034.722020509204,1717247.0,0.060830000787973404,-0.005630000028759241,0.00031999999191612005,-0.0002300000051036477
7034.72302028142,1717248.0,0.06216999888420105,-0.011989999562501907,0.002859999891370535,0.0069599999114871025
7034.724020053634,1717249.0,0.06396999955177307,-0.010490000247955322,0.00795000046491623,0.007739999797195196
7034.72501982585,1717250.0,0.06657999753952026,-0.005489999894052744,0.004360000137239695,0.005309999920427799
7034.726019598065,1717251.0,0.07187999784946442,-0.002409999957308173,0.008899999782443047,0.014600000344216824
7034.727019370281,1717252.0,0.0759200006723404,0.002589999930933118,0.007540000136941671,0.014419999904930592
7034.728019142496,1717253.0,0.07906000316143036,0.01558000035583973,0.005810000002384186,0.012040000408887863
7034.729018914712,1717254.0,0.07817000150680542,0.027569999918341637,-0.006039999891072512,0.02150999940931797
7034.730018686926,1717255.0,0.07269000262022018,0.02538999915122986,-0.004449999891221523,0.02184000052511692
7034.7310184591415,1717256.0,0.06787999719381332,0.022120000794529915,-0.01752999983727932,0.019360000267624855
7034.732018231357,1717257.0,0.06451000273227692,0.01484999991953373,-0.012439999729394913,0.020829999819397926
7034.733018003572,1717258.0,0.06594999879598618,-4.999999873689376e-05,-0.01648000068962574,0.025499999523162842
7034.734017775788,1717259.0,0.07089000195264816,-0.004769999999552965,-0.010449999943375587,0.031449999660253525
7034.735017548002,1717260.0,0.07394000142812729,-0.009949999861419201,0.004129999782890081,0.034929998219013214
7034.736017320218,1717261.0,0.07429999858140945,-0.022929999977350235,0.015990000218153,0.03598000109195709
7034.737017092433,1717262.0,0.06846000254154205,-0.025839999318122864,0.027569999918341637,0.032680001109838486
7034.738016864649,1717263.0,0.06145000085234642,-0.01988999918103218,0.001820000004954636,0.03378000110387802
7034.739016636864,1717264.0,0.05435999855399132,-0.012670000083744526,-0.004129999782890081,0.03725999966263771
7034.7400164090795,1717265.0,0.04707999899983406,-0.014209999702870846,0.00418000016361475,0.04535999894142151
7034.741016181294,1717266.0,0.042500000447034836,-0.0037700000684708357,0.008489999920129776,0.048020001500844955
7034.7420159535095,1717267.0,0.04052000120282173,0.001769999973475933,0.004679999779909849,0.04839000105857849
7034.743015725725,1717268.0,0.04222999885678291,-0.0010000000474974513,-0.0019499999471008778,0.04989999905228615
7034.74401549794,1717269.0,0.044829998165369034,0.0010400000028312206,-0.001449999981559813,0.047200001776218414
7034.745015270156,1717270.0,0.050850000232458115,0.005270000081509352,-0.012810000218451023,0.04944000020623207
7034.74601504237,1717271.0,0.05773000046610832,0.004310000222176313,-0.0031300000846385956,0.05172999948263168
7034.747014814586,1717272.0,0.06225999817252159,0.01484999991953373,-0.007360000163316727,0.05575999990105629
7034.748014586801,1717273.0,0.06387999653816223,0.015939999371767044,-0.005489999894052744,0.06325999647378922
7034.749014359017,1717274.0,0.06559000164270401,0.0071299998089671135,-0.011309999972581863,0.06294000148773193
7034.750014131232,1717275.0,0.06999000161886215,0.0014100000262260437,4.999999873689376e-05,0.059459999203681946
7034.7510139034475,1717276.0,0.07349000126123428,0.002360000042244792,-0.0013599999947473407,0.06916999816894531
7034.752013675662,1717277.0,0.0752900019288063,-0.0007699999841861427,-0.007269999943673611,0.07039999961853027
7034.7530134478775,1717278.0,0.07556000351905823,-0.004449999891221523,-0.018570000305771828,0.06633000075817108
7034.754013220093,1717279.0,0.0763700008392334,-0.0002699999895412475,-0.005489999894052744,0.0692100003361702
7034.755012992308,1717280.0,0.07996000349521637,0.006719999946653843,0.008489999920129776,0.07740999758243561
7034.756012764524,1717281.0,0.08194000273942947,0.014120000414550304,0.01140000019222498,0.07315000146627426
7034.757012536738,1717282.0,0.07727000117301941,-0.0027699999045580626,0.022120000794529915,0.07553000003099442
7034.758012308954,1717283.0,0.06684999912977219,-0.013939999975264072,0.03610000014305115,0.07648999989032745
7034.759012081169,1717284.0,0.05201999843120575,-0.014209999702870846,0.03187999874353409,0.07993000000715256
7034.760011853385,1717285.0,0.036570001393556595,-0.013530000112950802,0.000910000002477318,0.08083999902009964
7034.7610116256,1717286.0,0.028389999642968178,0.003909999970346689,-0.023159999400377274,0.08399999886751175
7034.7620113978155,1717287.0,0.027939999476075172,0.0072200000286102295,-0.02525000087916851,0.08528000116348267
7034.76301117003,1717288.0,0.03077000007033348,0.003220000071451068,-0.027470000088214874,0.08930999785661697
7034.7640109422455,1717289.0,0.034279998391866684,-0.000590000010561198,-0.00803999975323677,0.09645000100135803
7034.765010714461,1717290.0,0.037289999425411224,-0.005179999861866236,0.009720000438392162,0.09915000200271606
7034.766010486676,1717291.0,0.040699999779462814,0.00031999999191612005,0.032829999923706055,0.0995199978351593
7034.767010258892,1717292.0,0.04213999956846237,0.0064500002190470695,0.03210999816656113,0.09572000056505203
7034.768010031106,1717293.0,0.04123999923467636,0.007449999917298555,0.018479999154806137,0.09804999828338623
7034.769009803322,1717294.0,0.03809000179171562,0.005489999894052744,-0.00839999970048666,0.09969999641180038
7034.770009575537,1717295.0,0.036660000681877136,-0.005489999894052744,-0.005539999809116125,0.10578999668359756
7034.771009347753,1717296.0,0.03593999892473221,-0.013120000250637531,-0.00880999956279993,0.11214999854564667
7034.772009119968,1717297.0,0.03531000018119812,-0.00494999997317791,-0.0051299999468028545,0.11379999667406082
7034.7730088921835,1717298.0,0.03454999998211861,-0.001449999981559813,-0.01793999969959259,0.11558999866247177
7034.774008664398,1717299.0,0.031539998948574066,0.008080000057816505,-0.02166000008583069,0.1173200011253357
7034.7750084366135,1717300.0,0.025609999895095825,0.013030000030994415,-0.014310000464320183,0.12025000154972076
7034.776008208829,1717301.0,0.017249999567866325,0.011130000464618206,-0.016620000824332237,0.12043999880552292
7034.777007981044,1717302.0,0.006060000043362379,0.00535999983549118,-0.005489999894052744,0.1151299998164177
7034.77800775326,1717303.0,-0.009519999846816063,0.003539999946951866,0.001769999973475933,0.11846999824047089
7034.779007525474,1717304.0,-0.022099999710917473,-0.003449999960139394,0.0014100000262260437,0.120619997382164
7034.78000729769,1717305.0,-0.03359999880194664,0.0031799999997019768,0.006089999806135893,0.12996000051498413
7034.781007069905,1717306.0,-0.04205000028014183,-0.0035000001080334187,0.0036800000816583633,0.131740003824234
7034.782006842121,1717307.0,-0.04726000130176544,-0.006949999835342169,0.009309999644756317,0.13233999907970428
7034.783006614336,1717308.0,-0.05189000070095062,-0.013489999808371067,0.016300000250339508,0.12761999666690826
7034.7840063865515,1717309.0,-0.05502999946475029,-0.026429999619722366,0.011309999972581863,0.13064999878406525
7034.785006158766,1717310.0,-0.06005999818444252,-0.0030900000128895044,-0.002859999891370535,0.13774000108242035
7034.786005930981,1717311.0,-0.06752000004053116,-0.0033199999015778303,-0.009359999559819698,0.14094999432563782
7034.787005703197,1717312.0,-0.0773100033402443,0.00203999993391335,-0.006769999861717224,0.14090000092983246
7034.788005475412,1717313.0,-0.08687999844551086,0.01221999991685152,-0.018570000305771828,0.13728000223636627
7034.789005247627,1717314.0,-0.0954200029373169,0.01638999953866005,-0.02452000044286251,0.13792000710964203
7034.790005019842,1717315.0,-0.10575000196695328,0.014030000194907188,-0.00418000016361475,0.14094999432563782
7034.791004792058,1717316.0,-0.11761000007390976,0.015939999371767044,0.015440000221133232,0.14295999705791473
7034.792004564273,1717317.0,-0.1317099928855896,0.01140000019222498,0.008270000107586384,0.14507000148296356
7034.793004336489,1717318.0,-0.14374999701976776,0.009309999644756317,0.025699999183416367,0.14594000577926636
7034.794004108704,1717319.0,-0.15129999816417694,0.006490000057965517,0.024299999698996544,0.148499995470047
7034.795003880919,1717320.0,-0.15395000576972961,-0.01331000030040741,0.01744000054895878,0.1506499946117401
7034.796003653134,1717321.0,-0.15354999899864197,-0.015490000136196613,0.0035000001080334187,0.15372000634670258
7034.797003425349,1717322.0,-0.1518400013446808,-0.007579999975860119,-0.006490000057965517,0.15665000677108765
7034.798003197565,1717323.0,-0.14824999868869781,-0.0012700000079348683,-0.02061999961733818,0.16350999474525452
7034.79900296978,1717324.0,-0.13970999419689178,-0.00571999978274107,-0.0051299999468028545,0.16730999946594238
7034.800002741995,1717325.0,-0.12471000105142593,-0.00795000046491623,-0.0027199999894946814,0.16951000690460205
7034.80100251421,1717326.0,-0.10515999794006348,-0.006130000110715628,-0.000859999970998615,0.16927999258041382
7034.802002286426,1717327.0,-0.08449999988079071,0.0007300000288523734,0.0008200000156648457,0.16933000087738037
7034.803002058641,1717328.0,-0.06639999896287918,0.006810000166296959,-0.00044999999227002263,0.16489000618457794
7034.804001830857,1717329.0,-0.04842999950051308,0.012260000221431255,4.999999873689376e-05,0.16744999587535858
7034.805001603072,1717330.0,-0.0258799996227026,0.016030000522732735,-0.01107999961823225,0.17111000418663025
7034.8060013752865,1717331.0,0.004040000028908253,0.003909999970346689,-0.008310000412166119,0.17577999830245972
7034.807001147502,1717332.0,0.04114999994635582,0.0027199999894946814,0.010540000163018703,0.1824599951505661
7034.808000919717,1717333.0,0.08302000164985657,0.0021299999207258224,0.01257999986410141,0.1824599951505661
7034.809000691933,1717334.0,0.11806000024080276,0.006990000139921904,0.008449999615550041,0.18105000257492065
7034.810000464148,1717335.0,0.14509999752044678,-0.002589999930933118,-0.00686000008136034,0.18007999658584595
7034.811000236363,1717336.0,0.16171999275684357,-0.00839999970048666,-0.00875999964773655,0.18622000515460968
7034.812000008578,1717337.0,0.17021000385284424,-0.006990000139921904,0.004769999999552965,0.19075000286102295
7034.812999780794,1717338.0,0.18158000707626343,0.0031300000846385956,-0.005590000189840794,0.18951000273227692
7034.813999553009,1717339.0,0.19460999965667725,0.007400000002235174,-0.01775999926030636,0.1826000064611435
7034.814999325225,1717340.0,0.20951999723911285,0.0010400000028312206,-0.01071999967098236,0.188510000705719
7034.81599909744,1717341.0,0.22793999314308167,0.004809999838471413,-0.006680000107735395,0.19162000715732574
7034.8169988696545,1717342.0,0.24231000244617462,0.0010000000474974513,-0.003539999946951866,0.19440999627113342
7034.81799864187,1717343.0,0.2474299967288971,-0.011309999972581863,0.009039999917149544,0.20163999497890472
7034.818998414085,1717344.0,0.2527799904346466,-0.0010000000474974513,0.01140000019222498,0.2022400051355362
7034.819998186301,1717345.0,0.26118001341819763,-0.008949999697506428,0.000910000002477318,0.20316000282764435
7034.820997958516,1717346.0,0.2705700099468231,-0.0017300000181421638,0.004040000028908253,0.20247000455856323
7034.821997730731,1717347.0,0.2761000096797943,0.003220000071451068,-0.003539999946951866,0.20476000010967255
7034.822997502946,1717348.0,0.27052998542785645,-0.00014000000373926014,0.013260000385344028,0.19866999983787537
7034.823997275162,1717349.0,0.2601900100708008,-0.018300000578165054,0.028020000085234642,0.2037999927997589
7034.824997047377,1717350.0,0.2524699866771698,-0.014990000054240227,0.015530000440776348,0.20667999982833862
7034.825996819593,1717351.0,0.2532700002193451,0.00031999999191612005,-0.011309999972581863,0.2101600021123886
7034.826996591808,1717352.0,0.2558799982070923,0.003949999809265137,-0.01030999980866909,0.2146500051021576
7034.8279963640225,1717353.0,0.25885000824928284,0.005040000192821026,-0.018939999863505363,0.21642999351024628
7034.828996136238,1717354.0,0.2610900104045868,0.004679999779909849,-0.016669999808073044,0.21990999579429626
7034.829995908453,1717355.0,0.2675600051879883,-0.0019499999471008778,-0.013489999808371067,0.2217400074005127
7034.830995680669,1717356.0,0.27573999762535095,-0.004809999838471413,-0.007899999618530273,0.22224000096321106
7034.831995452884,1717357.0,0.2745699882507324,-0.00571999978274107,-0.009630000218749046,0.22214999794960022
7034.832995225099,1717358.0,0.2619900107383728,-0.0044999998062849045,0.005539999809116125,0.22384999692440033
7034.833994997314,1717359.0,0.24546000361442566,-0.001500000013038516,0.011850000359117985,0.22297999262809753
7034.83499476953,1717360.0,0.2286600023508072,-0.0019099999917671084,0.01566999964416027,0.21811999380588531
7034.835994541745,1717361.0,0.21459999680519104,0.003590000094845891,0.02143000066280365,0.2194499969482422
7034.8369943139605,1717362.0,0.20125000178813934,0.011939999647438526,0.014209999702870846,0.2246199995279312
7034.837994086176,1717363.0,0.18355000019073486,0.012129999697208405,0.01484999991953373,0.22774000465869904
7034.8389938583905,1717364.0,0.16603000462055206,0.013399999588727951,-0.0028200000524520874,0.23396000266075134
7034.839993630606,1717365.0,0.1503099948167801,0.007899999618530273,-0.009309999644756317,0.23794999718666077
7034.840993402821,1717366.0,0.13440999388694763,0.00031999999191612005,-0.02411000058054924,0.23680000007152557
7034.841993175037,1717367.0,0.12183000147342682,0.0014100000262260437,-0.01030999980866909,0.2376299947500229
7034.842992947252,1717368.0,0.11500000208616257,0.0016799999866634607,-0.00494999997317791,0.23666000366210938
7034.843992719467,1717369.0,0.10970000177621841,0.0014100000262260437,-0.007400000002235174,0.2321300059556961
7034.844992491682,1717370.0,0.10475999861955643,-9.000000136438757e-05,0.00031999999191612005,0.23871999979019165
7034.845992263898,1717371.0,0.09595999866724014,0.004679999779909849,-0.01221999991685152,0.24751000106334686
7034.846992036113,1717372.0,0.08624999970197678,0.00014000000373926014,-0.005810000002384186,0.24494999647140503
7034.8479918083285,1717373.0,0.07799000293016434,-0.007180000189691782,0.004769999999552965,0.23813000321388245
7034.848991580544,1717374.0,0.07107000052928925,-0.005950000137090683,0.006579999811947346,0.2431199997663498
7034.8499913527585,1717375.0,0.06406000256538391,-0.0015899999998509884,0.004410000052303076,0.2502099871635437
7034.850991124974,1717376.0,0.0553399994969368,0.00203999993391335,-0.0030900000128895044,0.2543799877166748
7034.851990897189,1717377.0,0.04932999983429909,0.002319999970495701,-0.008129999972879887,0.25227001309394836
7034.852990669405,1717378.0,0.04726000130176544,-0.002360000042244792,-0.0024500000290572643,0.2510400116443634
7034.853990441619,1717379.0,0.0408799983561039,0.00031999999191612005,0.00795000046491623,0.24494999647140503
7034.854990213835,1717380.0,0.033959999680519104,0.004679999779909849,9.000000136438757e-05,0.24591000378131866
7034.85598998605,1717381.0,0.025919999927282333,0.0071299998089671135,0.009039999917149544,0.25314000248908997
7034.856989758266,1717382.0,0.017470000311732292,0.0034099998883903027,0.022120000794529915,0.2566699981689453
7034.857989530481,1717383.0,0.008089999668300152,0.0002699999895412475,0.00875999964773655,0.26010000705718994
7034.8589893026965,1717384.0,-0.0022899999748915434,-0.009039999917149544,0.019120000302791595,0.263949990272522
7034.859989074911,1717385.0,-0.00803999975323677,-0.0010400000028312206,0.00949000008404255,0.264629989862442
7034.8609888471265,1717386.0,-0.009119999594986439,-0.0012700000079348683,-0.0014100000262260437,0.26513999700546265
7034.861988619342,1717387.0,-0.00925000011920929,-0.003860000055283308,-0.023159999400377274,0.26311999559402466
7034.862988391557,1717388.0,-0.006560000125318766,-0.004410000052303076,-0.021479999646544456,0.26541000604629517
7034.863988163773,1717389.0,-0.005439999978989363,-0.002950000111013651,-0.009850000031292439,0.2675600051879883
7034.864987935987,1717390.0,-0.015720000490546227,-0.0028200000524520874,-0.0016799999866634607,0.2698499858379364
7034.865987708203,1717391.0,-0.026319999247789383,-0.0016799999866634607,0.005770000163465738,0.27177000045776367
7034.866987480418,1717392.0,-0.025699999183416367,-0.0011399999493733048,0.006130000110715628,0.27338001132011414
7034.867987252634,1717393.0,-0.017430000007152557,0.0045900000259280205,0.009630000218749046,0.2744799852371216
7034.868987024849,1717394.0,-0.006649999879300594,0.0083600003272295,-0.0031300000846385956,0.2753399908542633
7034.8699867970645,1717395.0,0.0048500001430511475,0.009580000303685665,-0.009170000441372395,0.27695000171661377
7034.870986569279,1717396.0,0.015990000218153,0.008080000057816505,-0.014800000004470348,0.2784099876880646
7034.871986341494,1717397.0,0.02694999985396862,0.00018000000272877514,-0.002090000081807375,0.27900999784469604
7034.87298611371,1717398.0,0.0384100005030632,0.003809999907389283,-0.003539999946951866,0.28047001361846924
7034.873985885925,1717399.0,0.05234000086784363,0.011939999647438526,-0.001769999973475933,0.2786400020122528
7034.874985658141,1717400.0,0.06549999862909317,0.0018599999602884054,-0.010040000081062317,0.2801100015640259
7034.875985430355,1717401.0,0.07169999927282333,0.0019499999471008778,-0.0022299999836832285,0.2718699872493744
7034.876985202571,1717402.0,0.07276999950408936,-0.005040000192821026,0.0031799999997019768,0.28303998708724976
7034.877984974786,1717403.0,0.07429999858140945,-0.01785000041127205,0.01066999975591898,0.277539998292923
7034.878984747002,1717404.0,0.07784999907016754,-0.01671000011265278,0.009759999811649323,0.2833099961280823
7034.879984519217,1717405.0,0.08634000271558762,-0.010400000028312206,0.019710000604391098,0.29172998666763306
7034.8809842914325,1717406.0,0.0958700031042099,-0.002090000081807375,0.010850000195205212,0.290039986371994
7034.881984063647,1717407.0,0.10273999720811844,-0.0036800000816583633,0.002409999957308173,0.28889000415802
7034.882983835862,1717408.0,0.10817000269889832,0.004679999779909849,-0.004809999838471413,0.28624001145362854
7034.883983608078,1717409.0,0.11365000158548355,0.007400000002235174,-0.0022700000554323196,0.2906300127506256
7034.884983380293,1717410.0,0.121069997549057,0.007720000110566616,-0.015080000273883343,0.2971299886703491
7034.885983152509,1717411.0,0.12992000579833984,0.007360000163316727,-0.011309999972581863,0.29910001158714294
7034.886982924723,1717412.0,0.14119000732898712,0.009359999559819698,-0.018570000305771828,0.2974500060081482
7034.887982696939,1717413.0,0.15157000720500946,0.004679999779909849,-0.008630000054836273,0.2961699962615967
7034.888982469154,1717414.0,0.15884999930858612,-0.005270000081509352,0.009669999592006207,0.2980499863624573
7034.88998224137,1717415.0,0.16405999660491943,-0.009850000031292439,0.011939999647438526,0.295989990234375
7034.890982013585,1717416.0,0.16738000512123108,-0.005489999894052744,0.015259999781847,0.289900004863739
7034.8919817858,1717417.0,0.16639000177383423,0.003000000026077032,-0.0030400000978261232,0.29910001158714294
7034.892981558015,1717418.0,0.16527000069618225,0.0037700000684708357,-0.0007699999841861427,0.2991499900817871
7034.89398133023,1717419.0,0.1651799976825714,-0.00875999964773655,0.005040000192821026,0.304639995098114
7034.894981102446,1717420.0,0.16410000622272491,0.00494999997317791,0.013580000028014183,0.3079400062561035
7034.895980874661,1717421.0,0.16279999911785126,0.0044999998062849045,0.015119999647140503,0.3071100115776062
7034.896980646877,1717422.0,0.15884999930858612,-0.002589999930933118,0.015490000136196613,0.30647000670433044
7034.897980419091,1717423.0,0.15277999639511108,-0.007040000054985285,0.01257999986410141,0.3066999912261963
7034.898980191307,1717424.0,0.14770999550819397,0.00031999999191612005,-0.0017300000181421638,0.3061099946498871
7034.899979963522,1717425.0,0.1444700062274933,0.008489999920129776,-0.012760000303387642,0.30702000856399536
7034.900979735738,1717426.0,0.14159999787807465,0.00014000000373926014,-0.02020999975502491,0.29732000827789307
7034.901979507953,1717427.0,0.13603000342845917,-0.008129999972879887,-0.021619999781250954,0.3004299998283386
7034.902979280168,1717428.0,0.12861000001430511,-0.00418000016361475,-0.019659999758005142,0.30257999897003174
7034.903979052383,1717429.0,0.12110999971628189,-0.0063599999994039536,-0.013489999808371067,0.3071100115776062
7034.904978824598,1717430.0,0.11392000317573547,0.00031999999191612005,0.003000000026077032,0.30976998805999756
7034.905978596814,1717431.0,0.10623999685049057,-0.000539999979082495,0.0028200000524520874,0.3108699917793274
7034.906978369029,1717432.0,0.09757000207901001,-0.002090000081807375,-0.0010000000474974513,0.3156700134277344
7034.907978141245,1717433.0,0.09074000269174576,0.004679999779909849,0.0033599999733269215,0.31773000955581665
7034.908977913459,1717434.0,0.08422999829053879,0.006630000192672014,-0.00203999993391335,0.320250004529953
7034.909977685675,1717435.0,0.08014000207185745,0.007579999975860119,0.0018599999602884054,0.32102999091148376
7034.91097745789,1717436.0,0.07709000259637833,0.005040000192821026,0.00031999999191612005,0.3214400112628937
7034.911977230106,1717437.0,0.07242000102996826,0.0012700000079348683,0.004540000110864639,0.3196600079536438
7034.912977002321,1717438.0,0.06774000078439713,-0.003809999907389283,-0.002409999957308173,0.32076001167297363
7034.913976774536,1717439.0,0.06334000080823898,-0.007670000195503235,0.00795000046491623,0.31856000423431396
7034.914976546751,1717440.0,0.057009998708963394,-0.0031799999997019768,0.011939999647438526,0.3096800148487091
7034.915976318966,1717441.0,0.05012999847531319,0.000859999970998615,0.00031999999191612005,0.31525999307632446
7034.916976091182,1717442.0,0.0442500002682209,0.0014100000262260437,0.00267999991774559,0.31942999362945557
7034.917975863397,1717443.0,0.03953000158071518,0.0013200000394135714,-0.009669999592006207,0.3233200013637543
7034.918975635612,1717444.0,0.0350399985909462,0.0024999999441206455,0.00014000000373926014,0.3278999924659729
7034.919975407827,1717445.0,0.03189999982714653,0.00031999999191612005,0.0024999999441206455,0.3269299864768982
7034.920975180043,1717446.0,0.028750000521540642,-0.0022299999836832285,-0.004629999864846468,0.32552000880241394
7034.921974952258,1717447.0,0.026280000805854797,-0.0011399999493733048,0.00267999991774559,0.3244200050830841
7034.9229747244735,1717448.0,0.025340000167489052,0.004900000058114529,-0.004860000219196081,0.3225899934768677
7034.923974496689,1717449.0,0.023089999333024025,0.01408000010997057,-0.0002699999895412475,0.3244599997997284
7034.9249742689035,1717450.0,0.021560000255703926,0.01711999997496605,-0.00913000013679266,0.31411999464035034
7034.925974041119,1717451.0,0.021740000694990158,0.011169999837875366,-0.00803999975323677,0.32236000895500183
7034.926973813334,1717452.0,0.021199999377131462,0.007400000002235174,-0.0029100000392645597,0.32624998688697815
7034.92797358555,1717453.0,0.018780000507831573,-0.003909999970346689,0.0016799999866634607,0.3252899944782257
7034.928973357765,1717454.0,0.016529999673366547,-0.004410000052303076,0.004540000110864639,0.3291800022125244
7034.92997312998,1717455.0,0.01640000008046627,-0.0031300000846385956,-0.00014000000373926014,0.3332099914550781
7034.930972902195,1717456.0,0.015990000218153,-0.006310000084340572,0.006130000110715628,0.33316001296043396
7034.931972674411,1717457.0,0.014240000396966934,-0.010940000414848328,-0.0012700000079348683,0.3328399956226349
7034.932972446626,1717458.0,0.0129399998113513,-0.003000000026077032,0.007400000002235174,0.33105000853538513
7034.9339722188415,1717459.0,0.011719999834895134,-0.0002300000051036477,0.00031999999191612005,0.3283500075340271
7034.934971991057,1717460.0,0.012310000136494637,0.0010400000028312206,0.0021299999207258224,0.3284499943256378
7034.9359717632715,1717461.0,0.0142000000923872,-0.00041000000783242285,-0.005489999894052744,0.32245001196861267
7034.936971535487,1717462.0,0.016440000385046005,0.0027699999045580626,-0.0036800000816583633,0.3284499943256378
7034.937971307702,1717463.0,0.017069999128580093,-0.001769999973475933,-0.0029100000392645597,0.3305099904537201
7034.938971079918,1717464.0,0.017740000039339066,-0.0011399999493733048,-0.0011399999493733048,0.335999995470047
7034.939970852133,1717465.0,0.01940999925136566,-0.0030400000978261232,0.003719999920576811,0.33246999979019165
7034.940970624348,1717466.0,0.01923000067472458,-0.00031999999191612005,-0.0020000000949949026,0.32973000407218933
7034.941970396563,1717467.0,0.019589999690651894,-0.0019499999471008778,0.0002699999895412475,0.31942999362945557
7034.942970168779,1717468.0,0.021199999377131462,-0.004540000110864639,0.00031999999191612005,0.3258399963378906
7034.943969940994,1717469.0,0.02273000031709671,-0.0031300000846385956,0.0051299999468028545,0.3284499943256378
7034.9449697132095,1717470.0,0.024119999259710312,0.003590000094845891,0.004000000189989805,0.333979994058609
7034.945969485425,1717471.0,0.026100000366568565,0.00203999993391335,0.00031999999191612005,0.3355399966239929
7034.9469692576395,1717472.0,0.028389999642968178,-0.004769999999552965,0.00031999999191612005,0.33261001110076904
7034.947969029855,1717473.0,0.02914999984204769,0.0015399999683722854,-0.0021800000686198473,0.31942999362945557
7034.94896880207,1717474.0,0.03198999911546707,0.006130000110715628,-0.007309999782592058,0.32912999391555786
7034.949968574286,1717475.0,0.03584999963641167,0.007670000195503235,-0.00875999964773655,0.3332099914550781
7034.950968346501,1717476.0,0.03813999891281128,0.011219999752938747,-0.008170000277459621,0.3361400067806244
7034.951968118716,1717477.0,0.03720000013709068,0.008860000409185886,-0.00913000013679266,0.33243000507354736
7034.952967890931,1717478.0,0.03558000177145004,0.014990000054240227,0.0020000000949949026,0.3284499943256378
7034.953967663147,1717479.0,0.031939998269081116,0.017260000109672546,0.00267999991774559,0.31902000308036804
7034.954967435362,1717480.0,0.02785000018775463,0.010040000081062317,0.003590000094845891,0.3270300030708313
7034.9559672075775,1717481.0,0.023000000044703484,-0.010400000028312206,0.010130000300705433,0.3291800022125244
7034.956966979793,1717482.0,0.0175199992954731,-0.030969999730587006,0.016030000522732735,0.33403000235557556
7034.957966752007,1717483.0,0.012620000168681145,-0.032519999891519547,0.009580000303685665,0.33379998803138733
7034.958966524223,1717484.0,0.0083600003272295,-0.016209999099373817,-0.008170000277459621,0.3306899964809418
7034.959966296438,1717485.0,0.006149999797344208,-0.011669999919831753,0.00031999999191612005,0.32697999477386475
7034.960966068654,1717486.0,0.006380000151693821,-0.007309999782592058,-0.0011399999493733048,0.3225399851799011
7034.961965840869,1717487.0,0.007819999940693378,0.0018599999602884054,-0.006039999891072512,0.3293600082397461
7034.962965613084,1717488.0,0.010289999656379223,0.0022700000554323196,-0.007040000054985285,0.3329299986362457
7034.963965385299,1717489.0,0.012129999697208405,0.0019499999471008778,-0.0018599999602884054,0.32973000407218933
7034.964965157515,1717490.0,0.014689999632537365,0.008170000277459621,0.006680000107735395,0.32712000608444214
7034.96596492973,1717491.0,0.018689999356865883,0.008220000192523003,0.003809999907389283,0.32552000880241394
7034.9669647019455,1717492.0,0.021560000255703926,0.0013200000394135714,-0.0013599999947473407,0.316540002822876
7034.967964474161,1717493.0,0.02143000066280365,0.00686000008136034,-0.0005000000237487257,0.3235900104045868
7034.968964246375,1717494.0,0.02043999917805195,0.008539999835193157,-0.007899999618530273,0.32642999291419983
7034.969964018591,1717495.0,0.019990000873804092,0.00749000022187829,-0.0011399999493733048,0.3284499943256378
7034.970963790806,1717496.0,0.01841999962925911,0.005770000163465738,0.0014100000262260437,0.3269299864768982
7034.971963563022,1717497.0,0.01769999973475933,0.006630000192672014,-0.004809999838471413,0.32433000206947327
7034.972963335237,1717498.0,0.017470000311732292,-0.0005000000237487257,0.001769999973475933,0.3221699893474579
7034.973963107452,1717499.0,0.0200399998575449,-0.004129999782890081,-0.003449999960139394,0.3149000108242035
7034.974962879667,1717500.0,0.023269999772310257,-0.0017300000181421638,-0.0006799999973736703,0.3196600079536438
7034.975962651883,1717501.0,0.024080000817775726,0.004310000222176313,-0.004449999891221523,0.32016000151634216
7034.976962424098,1717502.0,0.023719999939203262,0.002630000002682209,0.0013200000394135714,0.32203999161720276
7034.9779621963135,1717503.0,0.023809999227523804,-0.0021800000686198473,-0.000859999970998615,0.32363998889923096
7034.978961968529,1717504.0,0.023310000076889992,0.0,0.007040000054985285,0.32291001081466675
7034.979961740743,1717505.0,0.024800000712275505,-0.0018599999602884054,0.00031999999191612005,0.32161998748779297
7034.980961512959,1717506.0,0.028440000489354134,-0.004860000219196081,0.0052200001664459705,0.3206599950790405
7034.981961285174,1717507.0,0.032340001314878464,-0.00913000013679266,0.003949999809265137,0.3184199929237366
7034.98296105739,1717508.0,0.03454999998211861,-0.00839999970048666,-4.999999873689376e-05,0.3158999979496002
7034.983960829604,1717509.0,0.03629999980330467,-0.0031300000846385956,0.00203999993391335,0.31380000710487366
7034.98496060182,1717510.0,0.03886000066995621,-0.0021800000686198473,-0.006130000110715628,0.30184999108314514
7034.985960374035,1717511.0,0.039980001747608185,-0.0033199999015778303,-0.003539999946951866,0.3085800111293793
7034.986960146251,1717512.0,0.03903999924659729,-0.002950000111013651,0.0021299999207258224,0.30344998836517334
7034.987959918466,1717513.0,0.037470001727342606,-0.004769999999552965,0.0064500002190470695,0.3006100058555603
7034.988959690681,1717514.0,0.037689998745918274,-0.00203999993391335,0.005309999920427799,0.3081200122833252
7034.989959462896,1717515.0,0.04052000120282173,0.002859999891370535,-0.0006399999838322401,0.3088099956512451
7034.990959235111,1717516.0,0.04097000136971474,0.015350000001490116,0.0011399999493733048,0.30834999680519104
7034.991959007327,1717517.0,0.04016000032424927,0.01939000003039837,-0.012350000441074371,0.3081200122833252
7034.992958779542,1717518.0,0.04056999832391739,0.0071299998089671135,-0.002950000111013651,0.30445998907089233
7034.993958551758,1717519.0,0.04383999854326248,0.01140000019222498,-0.017260000109672546,0.30358999967575073
7034.994958323972,1717520.0,0.047120001167058945,0.0030400000978261232,-0.005489999894052744,0.3016200065612793
7034.995958096188,1717521.0,0.047439999878406525,0.005400000140070915,-0.005309999920427799,0.29622000455856323
7034.996957868403,1717522.0,0.04456000030040741,0.004129999782890081,-0.0011399999493733048,0.2991499900817871
7034.997957640619,1717523.0,0.03818000108003616,-0.004410000052303076,-0.004000000189989805,0.2984200119972229
7034.998957412834,1717524.0,0.032340001314878464,-0.007720000110566616,0.0018599999602884054,0.30171000957489014
7034.999957185049,1717525.0,0.02928999997675419,-0.004769999999552965,0.00031999999191612005,0.3014400005340576
7035.000956957264,1717526.0,0.029740000143647194,-0.006769999861717224,0.0013200000394135714,0.29868999123573303
7035.001956729479,1717527.0,0.032519999891519547,-0.011309999972581863,0.0024500000290572643,0.294979989528656
7035.002956501695,1717528.0,0.036970000714063644,-0.005489999894052744,0.0009500000160187483,0.2935599982738495
7035.00395627391,1717529.0,0.04196000099182129,-0.003000000026077032,0.0035000001080334187,0.2910900115966797
7035.004956046126,1717530.0,0.046229999512434006,-0.0007699999841861427,-0.0022299999836832285,0.29168999195098877
7035.00595581834,1717531.0,0.04851999878883362,0.0002300000051036477,0.004809999838471413,0.28852999210357666
7035.006955590556,1717532.0,0.046720001846551895,0.0010400000028312206,0.006130000110715628,0.28856998682022095
7035.007955362771,1717533.0,0.04258999973535538,-0.0016299999551847577,-0.002360000042244792,0.28738000988960266
7035.0089551349865,1717534.0,0.03809000179171562,-0.002630000002682209,0.0022299999836832285,0.2867000102996826
7035.009954907202,1717535.0,0.03472999855875969,-0.002630000002682209,0.00031999999191612005,0.28303998708724976
7035.010954679417,1717536.0,0.03458999842405319,0.0016799999866634607,0.004310000222176313,0.2815699875354767
7035.011954451632,1717537.0,0.03513000160455704,0.003590000094845891,-0.0034099998883903027,0.2693899869918823
7035.012954223847,1717538.0,0.03633999824523926,0.0010400000028312206,0.0011399999493733048,0.27090001106262207
7035.013953996063,1717539.0,0.03723999857902527,0.003909999970346689,-0.00494999997317791,0.2744799852371216
7035.014953768278,1717540.0,0.03711000084877014,0.00686000008136034,0.00031999999191612005,0.27296000719070435
7035.015953540494,1717541.0,0.035670001059770584,0.008899999782443047,0.0031799999997019768,0.2703999876976013
7035.016953312708,1717542.0,0.03288000077009201,0.00749000022187829,0.001769999973475933,0.26399001479148865
7035.017953084924,1717543.0,0.029200000688433647,0.006630000192672014,0.006990000139921904,0.2693899869918823
7035.018952857139,1717544.0,0.024620000272989273,0.004679999779909849,-0.001500000013038516,0.2694399952888489
7035.0199526293545,1717545.0,0.019050000235438347,0.003719999920576811,-0.021619999781250954,0.26673999428749084
7035.02095240157,1717546.0,0.014019999653100967,-0.004040000028908253,-0.013120000250637531,0.2663699984550476
7035.021952173785,1717547.0,0.010239999741315842,-0.010759999975562096,-0.0011399999493733048,0.2636300027370453
7035.022951946,1717548.0,0.008980000391602516,-0.01566999964416027,0.008489999920129776,0.2533299922943115
7035.023951718215,1717549.0,0.009700000286102295,-0.011900000274181366,0.00686000008136034,0.25648000836372375
7035.024951490431,1717550.0,0.011590000241994858,-0.0028200000524520874,0.017260000109672546,0.2563000023365021
7035.025951262646,1717551.0,0.012400000356137753,-0.004809999838471413,0.007180000189691782,0.2578999996185303
7035.026951034862,1717552.0,0.013299999758601189,-0.00795000046491623,0.006490000057965517,0.2603299915790558
7035.027950807076,1717553.0,0.012400000356137753,0.00014000000373926014,-0.012129999697208405,0.25547999143600464
7035.028950579292,1717554.0,0.010329999960958958,0.008270000107586384,-0.01489999983459711,0.24201999604701996
7035.029950351507,1717555.0,0.009700000286102295,0.006039999891072512,-0.014800000004470348,0.25374001264572144
7035.0309501237225,1717556.0,0.006829999852925539,0.006680000107735395,-0.006949999835342169,0.24741999804973602
7035.031949895938,1717557.0,0.0030499999411404133,0.0036299999337643385,0.003220000071451068,0.24334999918937683
7035.032949668153,1717558.0,-0.00018000000272877514,0.00418000016361475,0.00031999999191612005,0.2480199933052063
7035.033949440368,1717559.0,-0.0008999999845400453,0.006719999946653843,-0.000590000010561198,0.24132999777793884
7035.034949212583,1717560.0,0.0003100000030826777,0.0024500000290572643,-0.0027199999894946814,0.23799000680446625
7035.035948984799,1717561.0,0.0027000000700354576,0.0002300000051036477,0.00875999964773655,0.2410999983549118
7035.036948757014,1717562.0,0.0028800000436604023,0.001769999973475933,0.0029100000392645597,0.23871999979019165
7035.03794852923,1717563.0,0.0034099998883903027,0.00203999993391335,0.0022700000554323196,0.23569999635219574
7035.038948301444,1717564.0,0.003860000055283308,0.00031999999191612005,-0.002409999957308173,0.23267999291419983
7035.03994807366,1717565.0,0.0036800000816583633,0.00031999999191612005,-0.00267999991774559,0.22883999347686768
7035.040947845875,1717566.0,0.004579999949783087,0.00267999991774559,-0.005489999894052744,0.22732999920845032
7035.0419476180905,1717567.0,0.004490000195801258,-0.002589999930933118,0.003539999946951866,0.21689000725746155
7035.042947390306,1717568.0,0.0031399999279528856,-0.004040000028908253,0.0024999999441206455,0.21642999351024628
7035.043947162521,1717569.0,0.003229999914765358,0.0002300000051036477,0.011939999647438526,0.21638000011444092
7035.044946934736,1717570.0,0.0036800000816583633,0.00686000008136034,0.009850000031292439,0.2155199944972992
7035.045946706951,1717571.0,0.005750000011175871,0.00267999991774559,0.012400000356137753,0.21487000584602356
7035.046946479167,1717572.0,0.010420000180602074,0.00031999999191612005,0.010449999943375587,0.21442000567913055
7035.047946251382,1717573.0,0.01508999988436699,0.003909999970346689,0.007670000195503235,0.2100200057029724
7035.048946023597,1717574.0,0.01899999938905239,0.003949999809265137,-0.007770000025629997,0.2068600058555603
7035.049945795812,1717575.0,0.02263999916613102,-0.00686000008136034,-0.020390000194311142,0.2054000049829483
7035.050945568028,1717576.0,0.024080000817775726,-0.0045900000259280205,-0.01638999953866005,0.20247000455856323
7035.051945340243,1717577.0,0.025340000167489052,-0.008170000277459621,-0.017669999971985817,0.19779999554157257
7035.0529451124585,1717578.0,0.02645999938249588,-0.01679999940097332,-0.007540000136941671,0.1947299987077713
7035.053944884674,1717579.0,0.028209999203681946,-0.006579999811947346,-0.004900000058114529,0.19899000227451324
7035.054944656888,1717580.0,0.030549999326467514,-0.0022700000554323196,0.0018599999602884054,0.1990399956703186
7035.055944429104,1717581.0,0.03198999911546707,0.004809999838471413,0.0030900000128895044,0.19742999970912933
7035.056944201319,1717582.0,0.03198999911546707,0.00267999991774559,0.011719999834895134,0.19541999697685242
7035.057943973535,1717583.0,0.029109999537467957,0.0010400000028312206,0.009630000218749046,0.19322000443935394
7035.05894374575,1717584.0,0.0257399994879961,0.003220000071451068,0.005950000137090683,0.19075000286102295
7035.059943517965,1717585.0,0.021560000255703926,0.005489999894052744,-0.001500000013038516,0.1857600063085556
7035.06094329018,1717586.0,0.017160000279545784,0.0011399999493733048,0.005679999943822622,0.1775200068950653
7035.061943062396,1717587.0,0.014059999957680702,-0.0027699999045580626,0.0002699999895412475,0.17531999945640564
7035.062942834611,1717588.0,0.013249999843537807,0.001230000052601099,0.003949999809265137,0.17499999701976776
7035.0639426068265,1717589.0,0.018149999901652336,0.004769999999552965,0.0031300000846385956,0.17389999330043793
7035.064942379042,1717590.0,0.024529999122023582,0.00014000000373926014,0.003909999970346689,0.17303000390529633
7035.065942151256,1717591.0,0.02694999985396862,-0.00571999978274107,-0.0018599999602884054,0.17385999858379364
7035.066941923472,1717592.0,0.029200000688433647,-0.005489999894052744,0.00535999983549118,0.17151999473571777
7035.067941695687,1717593.0,0.032430000603199005,-0.0031799999997019768,-0.004900000058114529,0.17161999642848969
7035.068941467903,1717594.0,0.03472999855875969,0.008670000359416008,-0.0013200000394135714,0.17023999989032745
7035.069941240118,1717595.0,0.034460000693798065,0.012670000083744526,-0.004129999782890081,0.16718000173568726
7035.070941012333,1717596.0,0.030009999871253967,0.007579999975860119,0.001500000013038516,0.16350999474525452
7035.071940784548,1717597.0,0.02525000087916851,0.007720000110566616,-0.008899999782443047,0.159620001912117
7035.072940556764,1717598.0,0.02191999927163124,0.0037700000684708357,-0.0030400000978261232,0.1506499946117401
7035.073940328979,1717599.0,0.02012999914586544,0.0017300000181421638,-0.018069999292492867,0.14969000220298767
7035.074940101194,1717600.0,0.018689999356865883,0.00031999999191612005,-0.013030000030994415,0.14972999691963196
7035.07593987341,1717601.0,0.016039999201893806,-0.004809999838471413,-0.00494999997317791,0.1467999964952469
7035.076939645624,1717602.0,0.010780000127851963,-0.005489999894052744,0.002409999957308173,0.14548000693321228
7035.07793941784,1717603.0,0.004670000169426203,-0.007400000002235174,0.012900000438094139,0.15004999935626984
7035.078939190055,1717604.0,-0.00215999991632998,-0.011309999972581863,0.006630000192672014,0.146479994058609
7035.079938962271,1717605.0,-0.008539999835193157,-0.006399999838322401,0.02556999959051609,0.1430100053548813
7035.080938734486,1717606.0,-0.013659999705851078,0.00031999999191612005,0.01720999926328659,0.13458000123500824
7035.081938506701,1717607.0,-0.015949999913573265,-0.005489999894052744,0.009039999917149544,0.13458000123500824
7035.082938278916,1717608.0,-0.017880000174045563,-0.000590000010561198,0.01066999975591898,0.13481000065803528
7035.083938051132,1717609.0,-0.018549999222159386,-0.0010000000474974513,0.0027699999045580626,0.13654999434947968
7035.084937823347,1717610.0,-0.0185100007802248,0.0014100000262260437,-0.0033599999733269215,0.1336199939250946
7035.085937595562,1717611.0,-0.018060000613331795,-0.0006399999838322401,-0.00203999993391335,0.130280002951622
7035.086937367778,1717612.0,-0.016529999673366547,0.0022700000554323196,-0.007579999975860119,0.12775999307632446
7035.087937139992,1717613.0,-0.017030000686645508,0.002589999930933118,-0.0028200000524520874,0.119889996945858
7035.088936912208,1717614.0,-0.019770000129938126,-0.00018000000272877514,-0.002319999970495701,0.1174200028181076
7035.089936684423,1717615.0,-0.020749999210238457,0.001230000052601099,0.0022700000554323196,0.11672999709844589
7035.090936456639,1717616.0,-0.023269999772310257,0.0013200000394135714,-0.002950000111013651,0.11507999897003174
7035.091936228854,1717617.0,-0.027310000732541084,0.00031999999191612005,0.001500000013038516,0.11214999854564667
7035.092936001069,1717618.0,-0.02947000041604042,0.00031999999191612005,0.000910000002477318,0.11063999682664871
7035.093935773284,1717619.0,-0.03198999911546707,0.0016799999866634607,-0.00041000000783242285,0.10798999667167664
7035.0949355454995,1717620.0,-0.032749999314546585,0.0017300000181421638,-0.00014000000373926014,0.1083500012755394
7035.095935317715,1717621.0,-0.03458999842405319,-0.00014000000373926014,0.00686000008136034,0.10858000069856644
7035.09693508993,1717622.0,-0.03678999841213226,-0.000590000010561198,0.00031999999191612005,0.11027999967336655
7035.097934862146,1717623.0,-0.04052000120282173,-0.0002699999895412475,0.006990000139921904,0.10729999840259552
7035.09893463436,1717624.0,-0.046810001134872437,-0.0064500002190470695,0.001769999973475933,0.10532999783754349
7035.099934406576,1717625.0,-0.05345999822020531,-0.004629999864846468,0.007180000189691782,0.10286000370979309
7035.100934178791,1717626.0,-0.05821999907493591,0.0018599999602884054,0.0010400000028312206,0.10042999684810638
7035.101933951007,1717627.0,-0.06451000273227692,0.001769999973475933,0.0013200000394135714,0.09809999912977219
7035.102933723222,1717628.0,-0.07399000227451324,-0.0002300000051036477,-0.007040000054985285,0.09554000198841095
7035.103933495437,1717629.0,-0.08302000164985657,0.002859999891370535,0.0002300000051036477,0.0936100035905838
7035.104933267652,1717630.0,-0.08769000321626663,-0.00041000000783242285,-0.0006399999838322401,0.08669999986886978
7035.1059330398675,1717631.0,-0.09168999642133713,0.005770000163465738,-0.00041000000783242285,0.08574000000953674
7035.106932812083,1717632.0,-0.09380000084638596,0.002859999891370535,-0.006949999835342169,0.08528000116348267
7035.107932584298,1717633.0,-0.09649000316858292,0.00953999999910593,9.000000136438757e-05,0.08912999927997589
7035.108932356514,1717634.0,-0.10040000081062317,0.001180000021122396,-0.005539999809116125,0.08487000316381454
7035.109932128728,1717635.0,-0.10467000305652618,-0.0013599999947473407,0.0012700000079348683,0.07790999859571457
7035.110931900944,1717636.0,-0.11123000085353851,-0.005539999809116125,-0.0016799999866634607,0.07740999758243561
7035.111931673159,1717637.0,-0.11535999923944473,-0.005630000028759241,-0.003269999986514449,0.0823500007390976
7035.112931445375,1717638.0,-0.11747000366449356,-0.007860000245273113,-0.012029999867081642,0.07732000201940536
7035.113931217589,1717639.0,-0.11653000116348267,-0.006949999835342169,-0.010579999536275864,0.0716399997472763
7035.114930989805,1717640.0,-0.11625999957323074,-0.005770000163465738,-0.0029100000392645597,0.07621999830007553
7035.11593076202,1717641.0,-0.12273000180721283,0.00203999993391335,0.0059899999760091305,0.07489000260829926
7035.1169305342355,1717642.0,-0.13485999405384064,0.005770000163465738,0.013580000028014183,0.06693000346422195
7035.117930306451,1717643.0,-0.14901000261306763,0.008539999835193157,0.009669999592006207,0.06408999860286713
7035.118930078666,1717644.0,-0.16186000406742096,0.010400000028312206,0.01143999956548214,0.07045000046491623
7035.119929850881,1717645.0,-0.17321999371051788,0.01221999991685152,-0.0059899999760091305,0.06765999644994736
7035.120929623096,1717646.0,-0.18320000171661377,0.007579999975860119,0.00031999999191612005,0.0603800006210804
7035.121929395312,1717647.0,-0.1911499947309494,0.011350000277161598,-0.009850000031292439,0.05891000106930733
7035.122929167527,1717648.0,-0.1920900046825409,0.0014100000262260437,-0.007180000189691782,0.06403999775648117
7035.123928939743,1717649.0,-0.18660999834537506,-0.005179999861866236,-0.004629999864846468,0.05626000091433525
7035.124928711957,1717650.0,-0.17896999418735504,-0.010579999536275864,0.007579999975860119,0.05479000136256218
7035.125928484173,1717651.0,-0.17186999320983887,-0.010219999589025974,0.0072200000286102295,0.05942000076174736
7035.126928256388,1717652.0,-0.1653600037097931,-0.009990000165998936,0.005400000140070915,0.05823000147938728
7035.1279280286035,1717653.0,-0.15884999930858612,-0.0011399999493733048,0.00267999991774559,0.050859998911619186
7035.128927800819,1717654.0,-0.15395000576972961,0.007770000025629997,-0.03474000096321106,0.050540000200271606
7035.129927573034,1717655.0,-0.15268999338150024,0.0015399999683722854,-0.025110000744462013,0.054749999195337296
7035.130927345249,1717656.0,-0.1512099951505661,-0.0027699999045580626,-0.0007699999841861427,0.05195999890565872
7035.131927117464,1717657.0,-0.14991000294685364,-0.004410000052303076,0.00875999964773655,0.045729998499155045
7035.13292688968,1717658.0,-0.15017999708652496,-0.005590000189840794,0.0195700004696846,0.04422000050544739
7035.133926661895,1717659.0,-0.14869000017642975,0.0007699999841861427,0.021709999069571495,0.04879999905824661
7035.134926434111,1717660.0,-0.14483000338077545,0.00203999993391335,0.011939999647438526,0.047200001776218414
7035.135926206325,1717661.0,-0.14240999519824982,-0.0011399999493733048,-0.006130000110715628,0.04114999994635582
7035.136925978541,1717662.0,-0.1429399996995926,0.010259999893605709,-0.00953999999910593,0.03982999920845032
7035.137925750756,1717663.0,-0.14532999694347382,0.016440000385046005,-0.014440000057220459,0.04526999965310097
7035.1389255229715,1717664.0,-0.14824999868869781,0.004900000058114529,-0.01576000079512596,0.04459000006318092
7035.139925295187,1717665.0,-0.14932000637054443,-0.014800000004470348,-0.0011399999493733048,0.04261999949812889
7035.140925067402,1717666.0,-0.1487800031900406,-0.016170000657439232,0.008170000277459621,0.04027999937534332
7035.141924839617,1717667.0,-0.14959000051021576,-0.006219999864697456,0.018619999289512634,0.03539000079035759
7035.142924611832,1717668.0,-0.1526000052690506,-0.002589999930933118,0.01775999926030636,0.03432999923825264
7035.143924384048,1717669.0,-0.1527400016784668,0.005900000222027302,0.003220000071451068,0.03689999878406525
7035.144924156263,1717670.0,-0.14932000637054443,0.0009500000160187483,0.004220000002533197,0.03685000166296959
7035.145923928479,1717671.0,-0.14483000338077545,0.00031999999191612005,0.0044999998062849045,0.037220001220703125
7035.146923700693,1717672.0,-0.14159999787807465,0.002319999970495701,-0.00803999975323677,0.03685000166296959
7035.147923472909,1717673.0,-0.1415099948644638,0.0031300000846385956,-0.009850000031292439,0.03355000168085098
7035.148923245124,1717674.0,-0.1415099948644638,0.00031999999191612005,-0.003949999809265137,0.030990000814199448
7035.1499230173395,1717675.0,-0.13687999546527863,0.0021299999207258224,-0.000590000010561198,0.031539998948574066
7035.150922789555,1717676.0,-0.12758000195026398,-0.002589999930933118,0.007670000195503235,0.03012000024318695
7035.15192256177,1717677.0,-0.12120000272989273,0.006579999811947346,0.00494999997317791,0.03034999966621399
7035.152922333985,1717678.0,-0.11810000240802765,0.009399999864399433,0.0007300000288523734,0.03167999908328056
7035.1539221062,1717679.0,-0.11500000208616257,0.0021299999207258224,0.000910000002477318,0.031039999797940254
7035.154921878416,1717680.0,-0.11176999658346176,0.0009500000160187483,-0.019530000165104866,0.030300000682473183
7035.155921650631,1717681.0,-0.10933999717235565,-9.000000136438757e-05,-0.013120000250637531,0.029249999672174454
7035.156921422847,1717682.0,-0.10960999876260757,0.0015899999998509884,-0.00795000046491623,0.025180000811815262
7035.157921195061,1717683.0,-0.11428000032901764,0.0014100000262260437,0.007040000054985285,0.026690000668168068
7035.158920967277,1717684.0,-0.12128999829292297,0.0018599999602884054,0.010449999943375587,0.026729999110102654
7035.159920739492,1717685.0,-0.12664000689983368,0.002859999891370535,0.0071299998089671135,0.026319999247789383
7035.160920511707,1717686.0,-0.13050000369548798,-0.004410000052303076,0.014310000464320183,0.02508999966084957
7035.161920283923,1717687.0,-0.13095000386238098,-0.006539999973028898,0.003909999970346689,0.024170000106096268
7035.162920056138,1717688.0,-0.12964999675750732,-0.007899999618530273,-0.004900000058114529,0.023760000243782997
7035.163919828353,1717689.0,-0.1263200044631958,-0.01140000019222498,-0.016759999096393585,0.023760000243782997
7035.164919600568,1717690.0,-0.12218999862670898,-0.002950000111013651,-0.006579999811947346,0.02339000068604946
7035.165919372784,1717691.0,-0.11851000040769577,0.002859999891370535,-0.00949000008404255,0.023159999400377274
7035.166919144999,1717692.0,-0.1141899973154068,0.0030900000128895044,-0.01826000027358532,0.0221599992364645
7035.167918917215,1717693.0,-0.10870999842882156,-4.999999873689376e-05,-0.0029100000392645597,0.021929999813437462
7035.168918689429,1717694.0,-0.10247000306844711,-0.002319999970495701,0.011900000274181366,0.020099999383091927
7035.169918461645,1717695.0,-0.09910000115633011,0.006089999806135893,0.008949999697506428,0.016340000554919243
7035.17091823386,1717696.0,-0.09982000291347504,0.007040000054985285,0.003220000071451068,0.01537999976426363
7035.171918006075,1717697.0,-0.09927999973297119,0.010940000414848328,0.009449999779462814,0.014650000259280205
7035.172917778291,1717698.0,-0.09550999850034714,0.005770000163465738,0.0021299999207258224,0.014600000344216824
7035.173917550506,1717699.0,-0.09119000285863876,0.007400000002235174,0.0021299999207258224,0.013500000350177288
7035.174917322721,1717700.0,-0.0860700011253357,0.00949000008404255,0.001769999973475933,0.01826000027358532
7035.175917094936,1717701.0,-0.08171000331640244,0.00872000027447939,-0.004360000137239695,0.020099999383091927
7035.176916867152,1717702.0,-0.0806799978017807,0.001769999973475933,-0.003860000055283308,0.019360000267624855
7035.177916639367,1717703.0,-0.0811299979686737,-0.005489999894052744,-0.003539999946951866,0.014139999635517597
7035.178916411582,1717704.0,-0.08104000240564346,-0.006089999806135893,-0.004410000052303076,0.013089999556541443
7035.179916183797,1717705.0,-0.08135999739170074,-0.004860000219196081,0.0013200000394135714,0.01295000035315752
7035.1809159560125,1717706.0,-0.0816200003027916,-0.00494999997317791,0.0020000000949949026,0.01995999924838543
7035.181915728228,1717707.0,-0.08157999813556671,-0.0044999998062849045,0.0010400000028312206,0.014100000262260437
7035.182915500443,1717708.0,-0.0820700004696846,-0.009669999592006207,-0.0008200000156648457,0.012450000271201134
7035.183915272659,1717709.0,-0.08117999881505966,-0.0035000001080334187,0.002409999957308173,0.01972999982535839
7035.184915044873,1717710.0,-0.07812000066041946,0.002409999957308173,0.00031999999191612005,0.014240000396966934
7035.185914817089,1717711.0,-0.07519999891519547,0.004410000052303076,-0.003860000055283308,0.016750000417232513
7035.186914589304,1717712.0,-0.07164999842643738,0.0045900000259280205,0.005179999861866236,0.018629999831318855
7035.18791436152,1717713.0,-0.06738000363111496,0.009669999592006207,0.0011399999493733048,0.01322999969124794
7035.188914133735,1717714.0,-0.06477999687194824,0.008630000054836273,-0.005900000222027302,0.020829999819397926
7035.18991390595,1717715.0,-0.06347999721765518,0.006719999946653843,-0.010940000414848328,0.01496999990195036
7035.190913678165,1717716.0,-0.0631600022315979,0.0018599999602884054,-0.00839999970048666,0.01583999954164028
7035.1919134503805,1717717.0,-0.06459999829530716,-0.000910000002477318,0.01217000000178814,0.021929999813437462
7035.192913222596,1717718.0,-0.06697999686002731,0.005590000189840794,0.00686000008136034,0.016340000554919243
7035.193912994811,1717719.0,-0.06869000196456909,0.005309999920427799,0.01107999961823225,0.020829999819397926
7035.194912767027,1717720.0,-0.06738000363111496,0.0016299999551847577,0.013489999808371067,0.021560000255703926
7035.195912539241,1717721.0,-0.064240001142025,0.00031999999191612005,-0.01730000041425228,0.017580000683665276
7035.196912311457,1717722.0,-0.06199000030755997,0.006130000110715628,-0.03855999931693077,0.02466999925673008
7035.197912083672,1717723.0,-0.0603800006210804,-0.005489999894052744,-0.021479999646544456,0.02298000082373619
7035.198911855888,1717724.0,-0.05903000012040138,-0.015119999647140503,-0.00571999978274107,0.019500000402331352
7035.199911628103,1717725.0,-0.05948000028729439,-0.00913000013679266,0.003590000094845891,0.026690000668168068
7035.200911400318,1717726.0,-0.06253000348806381,-0.011309999972581863,0.009949999861419201,0.024860000237822533
7035.201911172533,1717727.0,-0.06244000047445297,-0.00913000013679266,0.025019999593496323,0.020829999819397926
7035.2029109447485,1717728.0,-0.06126999855041504,-0.00041000000783242285,0.001180000021122396,0.028519999235868454
7035.203910716964,1717729.0,-0.05965999886393547,0.008990000002086163,-0.01865999959409237,0.0228899996727705
7035.204910489179,1717730.0,-0.058400001376867294,0.003000000026077032,-0.0010400000028312206,0.023159999400377274
7035.205910261395,1717731.0,-0.05785999819636345,-0.005040000192821026,0.02321000024676323,0.029529999941587448
7035.206910033609,1717732.0,-0.05660000070929527,-0.001230000052601099,0.025520000606775284,0.024630000814795494
7035.207909805825,1717733.0,-0.05502999946475029,-0.0013599999947473407,0.019349999725818634,0.02920999936759472
7035.20890957804,1717734.0,-0.053369998931884766,0.00203999993391335,0.020069999620318413,0.03034999966621399
7035.209909350256,1717735.0,-0.05403999984264374,0.010219999589025974,-0.006399999838322401,0.025219999253749847
7035.210909122471,1717736.0,-0.056779999285936356,0.011309999972581863,-0.015490000136196613,0.03373999893665314
7035.211908894686,1717737.0,-0.06235000118613243,0.006130000110715628,-0.010990000329911709,0.028149999678134918
7035.212908666901,1717738.0,-0.06962999701499939,-0.0015399999683722854,-0.009669999592006207,0.031039999797940254
7035.2139084391165,1717739.0,-0.07614000141620636,0.002630000002682209,-0.03342000022530556,0.03539000079035759
7035.214908211332,1717740.0,-0.0817599967122078,0.0010400000028312206,-0.028750000521540642,0.03002999909222126
7035.215907983547,1717741.0,-0.08552999794483185,0.004269999917596579,-0.008580000139772892,0.03474000096321106
7035.216907755763,1717742.0,-0.08534999936819077,0.013399999588727951,0.012760000303387642,0.03658000007271767
7035.217907527977,1717743.0,-0.08585000038146973,0.01181000005453825,0.02102999947965145,0.03223000094294548
7035.218907300193,1717744.0,-0.09007000178098679,0.003220000071451068,0.03537999838590622,0.03602999821305275
7035.219907072408,1717745.0,-0.09717000275850296,-0.012400000356137753,0.030379999428987503,0.0391400009393692
7035.220906844624,1717746.0,-0.10313999652862549,-0.014940000139176846,0.025299999862909317,0.034380000084638596
7035.221906616839,1717747.0,-0.10363999754190445,-0.022929999977350235,0.006130000110715628,0.037859998643398285
7035.222906389054,1717748.0,-0.10153000056743622,-0.016580000519752502,-0.0010900000343099236,0.04134000092744827
7035.223906161269,1717749.0,-0.0997299998998642,-0.008949999697506428,-0.02012000046670437,0.036389999091625214
7035.2249059334845,1717750.0,-0.09847000241279602,0.002630000002682209,-0.02525000087916851,0.042980000376701355
7035.2259057057,1717751.0,-0.09702999889850616,-0.00041000000783242285,-0.013220000080764294,0.041749998927116394
7035.226905477915,1717752.0,-0.096670001745224,0.0030400000978261232,-0.009759999811649323,0.03767000138759613
7035.227905250131,1717753.0,-0.09892000257968903,0.013120000250637531,0.00031999999191612005,0.04596000164747238
7035.228905022345,1717754.0,-0.1035500019788742,0.011939999647438526,-0.0033199999015778303,0.04024000093340874
7035.229904794561,1717755.0,-0.10840000212192535,0.003220000071451068,-0.011939999647438526,0.040470000356435776
7035.230904566776,1717756.0,-0.11383000016212463,0.007360000163316727,-0.02012000046670437,0.047200001776218414
7035.231904338992,1717757.0,-0.1163100004196167,0.004449999891221523,-0.014399999752640724,0.041749998927116394
7035.232904111207,1717758.0,-0.11796999722719193,-0.0011399999493733048,-0.00418000016361475,0.045729998499155045
7035.233903883422,1717759.0,-0.12080000340938568,0.0012700000079348683,0.002950000111013651,0.04874999821186066
7035.234903655637,1717760.0,-0.12083999812602997,-0.0015399999683722854,-0.004040000028908253,0.044039998203516006
7035.2359034278525,1717761.0,-0.12128999829292297,-0.002090000081807375,0.003590000094845891,0.04774000123143196
7035.236903200068,1717762.0,-0.11948999762535095,-0.0035000001080334187,0.011939999647438526,0.0522800013422966
7035.237902972283,1717763.0,-0.11751999706029892,-0.0013200000394135714,0.015030000358819962,0.05099000036716461
7035.238902744499,1717764.0,-0.11590000241994858,0.00031999999191612005,0.02493000030517578,0.047200001776218414
7035.239902516713,1717765.0,-0.11303000152111053,-0.005770000163465738,0.020349999889731407,0.047200001776218414
7035.240902288929,1717766.0,-0.10875999927520752,0.0010400000028312206,0.008539999835193157,0.049389999359846115
7035.241902061144,1717767.0,-0.10183999687433243,0.010259999893605709,-0.01140000019222498,0.050540000200271606
7035.24290183336,1717768.0,-0.091279998421669,0.00267999991774559,-0.009259999729692936,0.05469999834895134
7035.243901605574,1717769.0,-0.08032000064849854,0.00031999999191612005,-0.007400000002235174,0.058090001344680786
7035.24490137779,1717770.0,-0.06809999793767929,-0.000910000002477318,-0.007309999782592058,0.05886999890208244
7035.245901150005,1717771.0,-0.05494000017642975,0.003220000071451068,-0.005950000137090683,0.05826999992132187
7035.24690092222,1717772.0,-0.040789999067783356,-0.001500000013038516,-0.009720000438392162,0.057909999042749405
7035.247900694436,1717773.0,-0.027489999309182167,0.0015399999683722854,-0.002589999930933118,0.054659999907016754
7035.248900466651,1717774.0,-0.016349999234080315,-0.000590000010561198,-0.007400000002235174,0.05584999918937683
7035.249900238866,1717775.0,-0.006020000204443932,-0.005679999943822622,-0.004679999779909849,0.06330999732017517
7035.250900011081,1717776.0,0.00215999991632998,-0.00044999999227002263,0.0002300000051036477,0.06160999834537506
7035.251899783297,1717777.0,0.007280000019818544,-0.005950000137090683,-0.00041000000783242285,0.06202999874949455
7035.252899555512,1717778.0,0.0088900001719594,-0.001180000021122396,-0.00267999991774559,0.06317000091075897
7035.253899327728,1717779.0,0.0147299999371171,0.0019099999917671084,0.0027699999045580626,0.0595100000500679
7035.254899099942,1717780.0,0.025609999895095825,-0.00018000000272877514,0.0072200000286102295,0.06061000004410744
7035.255898872158,1717781.0,0.036660000681877136,0.0027199999894946814,0.00267999991774559,0.06088000163435936
7035.256898644373,1717782.0,0.046939998865127563,0.004040000028908253,0.004129999782890081,0.061250001192092896
7035.257898416588,1717783.0,0.05291999876499176,-0.002589999930933118,0.00535999983549118,0.06885000318288803
7035.258898188804,1717784.0,0.05552000179886818,0.0012700000079348683,0.009580000303685665,0.06994999945163727
7035.259897961019,1717785.0,0.05641999840736389,0.0045900000259280205,0.00031999999191612005,0.06843999773263931
7035.260897733234,1717786.0,0.060019999742507935,0.0022700000554323196,0.000859999970998615,0.06468000262975693
7035.261897505449,1717787.0,0.06441999971866608,-0.00044999999227002263,-0.002589999930933118,0.065140001475811
7035.262897277665,1717788.0,0.06917999684810638,0.005400000140070915,-0.005539999809116125,0.0735199972987175
7035.26389704988,1717789.0,0.07457000017166138,-0.0006399999838322401,-0.006949999835342169,0.07320000231266022
7035.264896822096,1717790.0,0.08094999939203262,0.001769999973475933,-0.002859999891370535,0.06797999888658524
7035.26589659431,1717791.0,0.08705999702215195,0.005539999809116125,-0.0002699999895412475,0.07515999674797058
7035.2668963665255,1717792.0,0.09145999699831009,0.0014100000262260437,0.003809999907389283,0.07406999915838242
7035.267896138741,1717793.0,0.09608999639749527,0.0024500000290572643,0.0014100000262260437,0.06989999860525131
7035.268895910956,1717794.0,0.09792999923229218,0.005679999943822622,0.0028200000524520874,0.07603000104427338
7035.269895683172,1717795.0,0.10072000324726105,0.007899999618530273,0.00031999999191612005,0.07763999700546265
7035.270895455387,1717796.0,0.10507000237703323,0.01257999986410141,0.00031999999191612005,0.07613000273704529
7035.271895227602,1717797.0,0.10772000253200531,-0.0016799999866634607,-0.003860000055283308,0.07191000133752823
7035.272894999817,1717798.0,0.1064700037240982,-0.011490000411868095,0.0045900000259280205,0.07393000274896622
7035.273894772033,1717799.0,0.10525000095367432,-0.006219999864697456,0.002950000111013651,0.08038000017404556
7035.274894544248,1717800.0,0.10422000288963318,-0.008899999782443047,0.00014000000373926014,0.07840999960899353
7035.275894316464,1717801.0,0.10228999704122543,-0.006490000057965517,-0.003220000071451068,0.07466000318527222
7035.276894088678,1717802.0,0.10027000308036804,0.007360000163316727,-0.02184000052511692,0.08179999887943268
7035.2778938608935,1717803.0,0.09843000024557114,0.009309999644756317,-0.037370000034570694,0.0813400000333786
7035.278893633109,1717804.0,0.09945999830961227,0.01826000027358532,-0.04868000000715256,0.07979000359773636
7035.279893405324,1717805.0,0.10000000149011612,0.018850000575184822,-0.0449099987745285,0.07548999786376953
7035.28089317754,1717806.0,0.09739000350236893,0.00949000008404255,-0.02112000063061714,0.07613000273704529
7035.281892949755,1717807.0,0.09595999866724014,-0.003000000026077032,0.01331000030040741,0.08124999701976776
7035.28289272197,1717808.0,0.09635999798774719,-0.006089999806135893,0.03728000074625015,0.08409000188112259
7035.283892494185,1717809.0,0.10067000240087509,-0.008220000192523003,0.06893999874591827,0.08263000100851059
7035.284892266401,1717810.0,0.10422000288963318,-0.012620000168681145,0.08332999795675278,0.08124999701976776
7035.285892038616,1717811.0,0.1075500026345253,-0.01638999953866005,0.0951400026679039,0.07846000045537949
7035.286891810832,1717812.0,0.11113999783992767,-0.014310000464320183,0.0686199963092804,0.07759000360965729
7035.287891583046,1717813.0,0.11657000333070755,-0.009630000218749046,0.038100000470876694,0.07795999944210052
7035.2888913552615,1717814.0,0.12236999720335007,-0.004769999999552965,-0.009080000221729279,0.08199000358581543
7035.289891127477,1717815.0,0.13054999709129333,-0.00041000000783242285,-0.038600001484155655,0.08574000000953674
7035.290890899692,1717816.0,0.1346299946308136,-4.999999873689376e-05,-0.05073000118136406,0.0839100033044815
7035.291890671908,1717817.0,0.13494999706745148,0.002589999930933118,-0.05544999986886978,0.08263000100851059
7035.292890444123,1717818.0,0.1355299949645996,0.005770000163465738,-0.04699999839067459,0.07836999744176865
7035.293890216338,1717819.0,0.13880999386310577,0.008310000412166119,-0.03864999860525131,0.08066000044345856
7035.294889988553,1717820.0,0.14232000708580017,0.003809999907389283,-0.015850000083446503,0.08541999757289886
7035.295889760769,1717821.0,0.1410599946975708,0.005630000028759241,-0.005630000028759241,0.0832199975848198
7035.296889532984,1717822.0,0.14101000130176544,0.0014100000262260437,-0.002589999930933118,0.08212000131607056
7035.2978893051995,1717823.0,0.14142000675201416,-0.008670000359416008,0.00014000000373926014,0.07735999673604965
7035.298889077414,1717824.0,0.14187000691890717,-0.004769999999552965,-0.005179999861866236,0.07686000317335129
7035.2998888496295,1717825.0,0.1406099945306778,-0.0016799999866634607,-0.013810000382363796,0.07699999958276749
7035.300888621845,1717826.0,0.13468000292778015,0.005630000028759241,-0.00839999970048666,0.07639999687671661
7035.30188839406,1717827.0,0.12803000211715698,0.008310000412166119,-0.010579999536275864,0.07598999887704849
7035.302888166276,1717828.0,0.12188000231981277,0.006130000110715628,0.002090000081807375,0.08217000216245651
7035.303887938491,1717829.0,0.11670999974012375,0.015939999371767044,0.005040000192821026,0.0817599967122078
7035.304887710706,1717830.0,0.11531999707221985,0.015530000440776348,0.005770000163465738,0.07993000000715256
7035.305887482921,1717831.0,0.11706999689340591,0.009039999917149544,0.015399999916553497,0.07474999874830246
7035.306887255137,1717832.0,0.12240999937057495,0.002409999957308173,0.01143999956548214,0.07378999888896942
7035.307887027352,1717833.0,0.1282999962568283,0.00031999999191612005,0.0195700004696846,0.07808999717235565
7035.308886799567,1717834.0,0.135220006108284,-0.00018000000272877514,0.00875999964773655,0.08025000244379044
7035.309886571782,1717835.0,0.1375100016593933,0.003719999920576811,0.00953999999910593,0.07878000289201736
7035.3108863439975,1717836.0,0.13831999897956848,0.002859999891370535,-0.001449999981559813,0.07191000133752823
7035.311886116213,1717837.0,0.13872000575065613,0.004000000189989805,-0.025340000167489052,0.07062999904155731
7035.312885888428,1717838.0,0.13648000359535217,0.001769999973475933,-0.020390000194311142,0.07062999904155731
7035.313885660644,1717839.0,0.13314999639987946,0.0010400000028312206,-0.018799999728798866,0.07062999904155731
7035.314885432858,1717840.0,0.13112999498844147,0.00267999991774559,-0.018850000575184822,0.06972000002861023
7035.315885205074,1717841.0,0.12955999374389648,-0.003719999920576811,-0.0011399999493733048,0.06989999860525131
7035.316884977289,1717842.0,0.12416999787092209,-0.00571999978274107,0.003949999809265137,0.06976000219583511
7035.317884749505,1717843.0,0.11482000350952148,-0.004900000058114529,0.013030000030994415,0.07558000087738037
7035.31888452172,1717844.0,0.10412999987602234,-0.009449999779462814,0.018479999154806137,0.07320000231266022
7035.319884293935,1717845.0,0.09380000084638596,-0.018530000001192093,0.025520000606775284,0.06711000204086304
7035.32088406615,1717846.0,0.08365000039339066,-0.014670000411570072,0.033560000360012054,0.06769999861717224
7035.3218838383655,1717847.0,0.07604999840259552,-0.004089999943971634,0.010809999890625477,0.07305999845266342
7035.322883610581,1717848.0,0.06827999651432037,0.00031999999191612005,0.0011399999493733048,0.06623999774456024
7035.323883382796,1717849.0,0.05948000028729439,-0.0022299999836832285,0.0014100000262260437,0.06610000133514404
7035.324883155012,1717850.0,0.05057999864220619,0.008580000139772892,-0.006579999811947346,0.07274000346660614
7035.325882927226,1717851.0,0.04383999854326248,0.007670000195503235,-0.013939999975264072,0.06976000219583511
7035.326882699442,1717852.0,0.03953000158071518,0.0,-0.01140000019222498,0.06476999819278717
7035.327882471657,1717853.0,0.03660999983549118,0.006399999838322401,-0.01257999986410141,0.06769999861717224
7035.328882243873,1717854.0,0.03260999917984009,0.016529999673366547,-0.01679999940097332,0.07027000188827515
7035.329882016088,1717855.0,0.02897999994456768,0.013849999755620956,-0.009309999644756317,0.06769999861717224
7035.330881788303,1717856.0,0.02694999985396862,-0.0007699999841861427,0.0021299999207258224,0.06257999688386917
7035.331881560518,1717857.0,0.026410000398755074,-0.0018599999602884054,0.0013200000394135714,0.065870001912117
7035.332881332733,1717858.0,0.0257399994879961,-0.0019499999471008778,-0.00041000000783242285,0.06966999918222427
7035.333881104949,1717859.0,0.02525000087916851,-0.0011399999493733048,-0.0031300000846385956,0.06757000088691711
7035.334880877164,1717860.0,0.02686000056564808,-0.006949999835342169,0.001449999981559813,0.066600002348423
7035.33588064938,1717861.0,0.02928999997675419,-0.008580000139772892,0.0016799999866634607,0.0618400014936924
7035.336880421594,1717862.0,0.02937999926507473,-0.009580000303685665,0.006130000110715628,0.06413000077009201
7035.33788019381,1717863.0,0.029020000249147415,-0.004769999999552965,-4.999999873689376e-05,0.06734000146389008
7035.338879966025,1717864.0,0.03136000037193298,-0.0007699999841861427,-0.0013200000394135714,0.061159998178482056
7035.339879738241,1717865.0,0.03629999980330467,0.0045900000259280205,0.004679999779909849,0.06165999919176102
7035.340879510456,1717866.0,0.0399399995803833,9.000000136438757e-05,0.004410000052303076,0.06815999746322632
7035.341879282671,1717867.0,0.038989998400211334,-0.00014000000373926014,0.00031999999191612005,0.06615000218153
7035.342879054886,1717868.0,0.03943999856710434,-0.0014100000262260437,0.006130000110715628,0.0609700009226799
7035.343878827101,1717869.0,0.044199999421834946,-0.002090000081807375,-0.001180000021122396,0.05942000076174736
7035.344878599317,1717870.0,0.05090000107884407,-0.002589999930933118,-0.0007699999841861427,0.06714999675750732
7035.345878371532,1717871.0,0.059300001710653305,0.004040000028908253,-0.002090000081807375,0.06665000319480896
7035.346878143748,1717872.0,0.07062000036239624,0.009399999864399433,-0.009630000218749046,0.06473000347614288
7035.347877915962,1717873.0,0.0825200006365776,0.005950000137090683,-0.010540000163018703,0.0603800006210804
7035.348877688178,1717874.0,0.09290000051259995,-4.999999873689376e-05,-0.0019099999917671084,0.06019999831914902
7035.349877460393,1717875.0,0.10224000364542007,0.004310000222176313,-0.002859999891370535,0.06001000106334686
7035.350877232609,1717876.0,0.11005999892950058,0.008220000192523003,-0.0018599999602884054,0.06742999702692032
7035.351877004824,1717877.0,0.11428000032901764,-0.003949999809265137,0.005040000192821026,0.06577999889850616
7035.352876777039,1717878.0,0.12101999670267105,-0.00686000008136034,0.00031999999191612005,0.0603800006210804
7035.353876549254,1717879.0,0.13198000192642212,-0.0013200000394135714,0.0013200000394135714,0.0602400004863739
7035.354876321469,1717880.0,0.14326000213623047,0.0014100000262260437,0.0013200000394135714,0.060750000178813934
7035.355876093685,1717881.0,0.15309999883174896,0.003949999809265137,-0.0005000000237487257,0.0611100010573864
7035.3568758659,1717882.0,0.16410000622272491,-4.999999873689376e-05,-0.0006399999838322401,0.06769999861717224
7035.357875638116,1717883.0,0.16971999406814575,-0.0036800000816583633,0.00031999999191612005,0.06564000248908997
7035.35887541033,1717884.0,0.1713400036096573,-0.0016799999866634607,-0.005539999809116125,0.06064999848604202
7035.359875182546,1717885.0,0.17375999689102173,-0.0033199999015778303,-0.009949999861419201,0.06334999948740005
7035.360874954761,1717886.0,0.17555999755859375,0.0010000000474974513,0.002630000002682209,0.06807000190019608
7035.361874726977,1717887.0,0.17358000576496124,-0.0011399999493733048,0.0076299998909235,0.0618400014936924
7035.362874499192,1717888.0,0.1676499992609024,-0.002589999930933118,0.0072200000286102295,0.0618400014936924
7035.3638742714065,1717889.0,0.16234999895095825,0.0018599999602884054,0.0034099998883903027,0.06926000118255615
7035.364874043622,1717890.0,0.15974999964237213,-0.005770000163465738,-0.006539999973028898,0.06650999933481216
7035.365873815837,1717891.0,0.15557000041007996,-0.006680000107735395,-0.00418000016361475,0.06257999688386917
7035.366873588053,1717892.0,0.1484300047159195,0.00031999999191612005,0.00267999991774559,0.06876000016927719
7035.367873360268,1717893.0,0.14240999519824982,0.002589999930933118,0.0014100000262260437,0.0686199963092804
7035.368873132484,1717894.0,0.13539999723434448,0.003220000071451068,0.006630000192672014,0.0628499984741211
7035.369872904698,1717895.0,0.13037000596523285,0.004220000002533197,0.0021299999207258224,0.06476999819278717
7035.370872676914,1717896.0,0.12596000730991364,-0.0022299999836832285,0.002589999930933118,0.07050000131130219
7035.371872449129,1717897.0,0.12178999930620193,-0.0005000000237487257,0.006089999806135893,0.06815999746322632
7035.372872221345,1717898.0,0.11423999816179276,-0.0007300000288523734,0.006130000110715628,0.06385999917984009
7035.373871993559,1717899.0,0.1088000014424324,0.0013200000394135714,0.003809999907389283,0.06757000088691711
7035.3748717657745,1717900.0,0.10422000288963318,0.005630000028759241,0.003949999809265137,0.07062999904155731
7035.37587153799,1717901.0,0.10260000079870224,0.006130000110715628,0.0020000000949949026,0.06476999819278717
7035.376871310205,1717902.0,0.1020599976181984,0.0059899999760091305,-0.00803999975323677,0.06724999845027924
7035.377871082421,1717903.0,0.09739000350236893,0.0045900000259280205,-0.008949999697506428,0.07062999904155731
7035.378870854636,1717904.0,0.0900299996137619,0.0010400000028312206,0.0030400000978261232,0.06476999819278717
7035.379870626852,1717905.0,0.08764000236988068,-0.00041000000783242285,-0.011309999972581863,0.07219000160694122
7035.380870399066,1717906.0,0.08980000019073486,-0.00875999964773655,-0.0014100000262260437,0.06623999774456024
7035.381870171282,1717907.0,0.096220001578331,-0.00913000013679266,-0.00494999997317791,0.07274000346660614
7035.382869943497,1717908.0,0.1040399968624115,-0.004999999888241291,-0.006680000107735395,0.07062999904155731
7035.3838697157125,1717909.0,0.11240000277757645,-0.0035000001080334187,0.0013200000394135714,0.066600002348423
7035.384869487927,1717910.0,0.1264999955892563,-0.00041000000783242285,0.001769999973475933,0.07328999787569046
7035.3858692601425,1717911.0,0.14357000589370728,0.010850000195205212,-0.006490000057965517,0.06693000346422195
7035.386869032358,1717912.0,0.15624000132083893,0.011939999647438526,-0.012900000438094139,0.07062999904155731
7035.387868804573,1717913.0,0.1653199940919876,0.0019099999917671084,0.006130000110715628,0.0733800008893013
7035.388868576789,1717914.0,0.1721400022506714,0.006769999861717224,0.008449999615550041,0.06769999861717224
7035.389868349004,1717915.0,0.1782499998807907,0.00267999991774559,0.006130000110715628,0.06769999861717224
7035.390868121219,1717916.0,0.1867000013589859,0.0031300000846385956,-0.0027699999045580626,0.07333000004291534
7035.391867893434,1717917.0,0.19756999611854553,0.005179999861866236,-0.0030400000978261232,0.07378999888896942
7035.39286766565,1717918.0,0.20412999391555786,0.0016299999551847577,-0.003719999920576811,0.0674699991941452
7035.393867437865,1717919.0,0.21069000661373138,0.00031999999191612005,0.00031999999191612005,0.06738000363111496
7035.3948672100805,1717920.0,0.21890999376773834,-0.002589999930933118,0.0034099998883903027,0.07062999904155731
7035.395866982295,1717921.0,0.2271299958229065,0.00031999999191612005,0.004269999917596579,0.0735199972987175
7035.3968667545105,1717922.0,0.23315000534057617,0.004220000002533197,-4.999999873689376e-05,0.0742499977350235
7035.397866526726,1717923.0,0.2325199991464615,-0.005900000222027302,-0.0010400000028312206,0.07259999960660934
7035.398866298941,1717924.0,0.22776000201702118,-0.018850000575184822,-0.002090000081807375,0.06650999933481216
7035.399866071157,1717925.0,0.22178000211715698,-0.014530000276863575,0.006130000110715628,0.066600002348423
7035.400865843372,1717926.0,0.21141000092029572,-0.007670000195503235,0.003719999920576811,0.06949000060558319
7035.401865615587,1717927.0,0.19972999393939972,-0.005590000189840794,-0.00803999975323677,0.07169000059366226
7035.402865387802,1717928.0,0.18727999925613403,-0.004860000219196081,0.0008200000156648457,0.06491000205278397
7035.403865160018,1717929.0,0.17664000391960144,-0.002409999957308173,-0.002859999891370535,0.06431999802589417
7035.404864932233,1717930.0,0.1647299975156784,0.0008200000156648457,-0.014310000464320183,0.06431999802589417
7035.4058647044485,1717931.0,0.15588000416755676,0.005590000189840794,-0.009399999864399433,0.06445000320672989
7035.406864476663,1717932.0,0.15022000670433044,0.016300000250339508,-0.01066999975591898,0.06953000277280807
7035.4078642488785,1717933.0,0.14519000053405762,0.01803000085055828,0.0052200001664459705,0.06706000119447708
7035.408864021094,1717934.0,0.1390800029039383,0.012760000303387642,0.00535999983549118,0.0611100010573864
7035.409863793309,1717935.0,0.135670006275177,0.003220000071451068,0.010490000247955322,0.060750000178813934
7035.410863565525,1717936.0,0.13224999606609344,0.001769999973475933,0.01370999962091446,0.06623999774456024
7035.41186333774,1717937.0,0.12596000730991364,-0.0031799999997019768,0.0036800000816583633,0.06453999876976013
7035.412863109955,1717938.0,0.12098000198602676,-0.0030400000978261232,0.00031999999191612005,0.0618400014936924
7035.41386288217,1717939.0,0.11788000166416168,-0.004410000052303076,0.0029100000392645597,0.055890001356601715
7035.414862654386,1717940.0,0.11765000224113464,0.0016299999551847577,-0.005539999809116125,0.05745000019669533
7035.415862426601,1717941.0,0.11896000057458878,0.0021299999207258224,0.0012700000079348683,0.06088000163435936
7035.4168621988165,1717942.0,0.11648000031709671,0.00267999991774559,0.001769999973475933,0.05891000106930733
7035.417861971031,1717943.0,0.10925000160932541,0.0031300000846385956,9.000000136438757e-05,0.05663000047206879
7035.418861743246,1717944.0,0.09690000116825104,0.009669999592006207,0.004679999779909849,0.05469999834895134
7035.419861515462,1717945.0,0.08094999939203262,-0.004129999782890081,0.003719999920576811,0.04935000091791153
7035.420861287677,1717946.0,0.061810001730918884,-0.005040000192821026,0.007449999917298555,0.04628000035881996
