LSL_Time,PLUX_P2_nSeq,PLUX_P2_ECG0,PLUX_P2_EMG1,PLUX_P2_EMG2,PLUX_P2_RIP3
6836.677427426359,1520308.0,-0.006289999932050705,-0.0059899999760091305,0.0024500000290572643,6.072999954223633
6836.6784271982815,1520309.0,-0.007369999773800373,-0.004629999864846468,0.002360000042244792,6.177000045776367
6836.679426970204,1520310.0,-0.006560000125318766,0.0007300000288523734,-0.0022700000554323196,6.195000171661377
6836.680426742128,1520311.0,-0.005210000090301037,0.00044999999227002263,0.0003600000054575503,6.1579999923706055
6836.68142651405,1520312.0,-0.0034099998883903027,-0.005450000055134296,-0.0030900000128895044,6.293000221252441
6836.682426285973,1520313.0,-0.0026499999221414328,0.0012700000079348683,-0.004679999779909849,6.308000087738037
6836.683426057895,1520314.0,-0.0016199999954551458,0.0028200000524520874,-0.0033199999015778303,6.308000087738037
6836.684425829818,1520315.0,-0.0008099999977275729,0.0028200000524520874,-0.0006399999838322401,6.183000087738037
6836.685425601741,1520316.0,0.0,-0.0059899999760091305,-0.007180000189691782,6.201000213623047
6836.686425373664,1520317.0,0.0020699999295175076,-0.000859999970998615,0.002360000042244792,6.1519999504089355
6836.6874251455865,1520318.0,0.00039999998989515007,0.0020000000949949026,-0.004449999891221523,6.008999824523926
6836.688424917509,1520319.0,-0.001979999942705035,-0.004360000137239695,-0.0025400000158697367,6.01200008392334
6836.689424689432,1520320.0,-0.0037700000684708357,-0.003949999809265137,-0.003809999907389283,6.03000020980835
6836.690424461354,1520321.0,-0.005570000037550926,-0.00418000016361475,0.000910000002477318,6.326000213623047
6836.691424233278,1520322.0,-0.006289999932050705,0.003809999907389283,-0.00953999999910593,6.269999980926514
6836.6924240052,1520323.0,-0.005929999984800816,-0.004449999891221523,-0.0010900000343099236,6.26800012588501
6836.693423777123,1520324.0,-0.005929999984800816,-0.003809999907389283,-0.0030400000978261232,6.197999954223633
6836.6944235490455,1520325.0,-0.005659999791532755,-0.0027199999894946814,-0.006630000192672014,6.23199987411499
6836.695423320968,1520326.0,-0.004490000195801258,-0.004269999917596579,-0.00267999991774559,6.223999977111816
6836.696423092892,1520327.0,-0.004040000028908253,-0.003809999907389283,0.0007699999841861427,6.26800012588501
6836.697422864814,1520328.0,-0.004129999782890081,0.007449999917298555,-0.0036299999337643385,6.22599983215332
6836.698422636737,1520329.0,-0.0035500000230968,-0.004809999838471413,-0.00535999983549118,6.304999828338623
6836.699422408659,1520330.0,-0.003590000094845891,-0.003909999970346689,-0.005859999917447567,6.372000217437744
6836.700422180582,1520331.0,-0.003229999914765358,-0.007449999917298555,-0.004720000084489584,6.38100004196167
6836.701421952505,1520332.0,-0.003949999809265137,0.0020000000949949026,-0.0019099999917671084,6.320000171661377
6836.702421724428,1520333.0,-0.005570000037550926,-0.0051299999468028545,0.004269999917596579,6.189000129699707
6836.7034214963505,1520334.0,-0.005750000011175871,0.0016799999866634607,-0.0016299999551847577,6.451000213623047
6836.704421268273,1520335.0,-0.005750000011175871,-0.006630000192672014,-0.006810000166296959,6.328000068664551
6836.705421040196,1520336.0,-0.004989999812096357,-0.003909999970346689,-0.003000000026077032,6.328999996185303
6836.706420812119,1520337.0,-0.004040000028908253,0.005630000028759241,-0.0017300000181421638,6.3420000076293945
6836.707420584042,1520338.0,-0.004989999812096357,0.0031799999997019768,-0.005630000028759241,6.34499979019165
6836.708420355964,1520339.0,-0.005030000116676092,-0.004900000058114529,0.0007300000288523734,6.314000129699707
6836.709420127887,1520340.0,-0.005570000037550926,-0.0030400000978261232,-0.0012700000079348683,6.3480000495910645
6836.7104198998095,1520341.0,-0.006200000178068876,0.003809999907389283,-0.0015399999683722854,6.298999786376953
6836.711419671732,1520342.0,-0.007189999800175428,0.0,0.00018000000272877514,6.310999870300293
6836.712419443656,1520343.0,-0.008179999887943268,-0.0019499999471008778,0.0020000000949949026,6.314000129699707
6836.713419215578,1520344.0,-0.00872000027447939,-0.004809999838471413,-0.0012700000079348683,6.223999977111816
6836.714418987501,1520345.0,-0.00872000027447939,0.0021800000686198473,0.0007300000288523734,6.505000114440918
6836.715418759423,1520346.0,-0.007369999773800373,-0.0062699997797608376,-0.0036299999337643385,6.427000045776367
6836.716418531346,1520347.0,-0.006200000178068876,-0.0022700000554323196,0.0012700000079348683,6.533999919891357
6836.717418303269,1520348.0,-0.004040000028908253,-0.005630000028759241,0.0035000001080334187,6.491000175476074
6836.718418075192,1520349.0,-0.00279000005684793,-0.0027199999894946814,0.0015399999683722854,6.464000225067139
6836.7194178471145,1520350.0,-0.0016199999954551458,-0.004629999864846468,0.002360000042244792,6.548999786376953
6836.720417619037,1520351.0,0.0,-0.0013599999947473407,0.001820000004954636,6.459000110626221
6836.72141739096,1520352.0,0.00107999995816499,-0.0012700000079348683,-0.004720000084489584,6.507999897003174
6836.722417162882,1520353.0,0.00107999995816499,-0.0029100000392645597,0.003449999960139394,6.23799991607666
6836.723416934806,1520354.0,0.0007600000244565308,-0.0021800000686198473,0.0003600000054575503,6.2870001792907715
6836.724416706728,1520355.0,0.0013500000350177288,0.004410000052303076,0.0003600000054575503,6.382999897003174
6836.725416478651,1520356.0,0.0012600000482052565,0.001769999973475933,0.0020000000949949026,6.497000217437744
6836.7264162505735,1520357.0,-0.0003100000030826777,-0.003809999907389283,-0.0033199999015778303,6.48799991607666
6836.727416022496,1520358.0,-0.0014400000218302011,-0.00018000000272877514,-0.0019499999471008778,6.458000183105469
6836.72841579442,1520359.0,-0.001979999942705035,0.0033599999733269215,-0.008270000107586384,6.49399995803833
6836.729415566342,1520360.0,-0.0034099998883903027,0.000539999979082495,-0.0020000000949949026,6.47599983215332
6836.730415338265,1520361.0,-0.005570000037550926,-0.007309999782592058,-0.0059899999760091305,6.491000175476074
6836.731415110187,1520362.0,-0.005929999984800816,-0.00044999999227002263,0.002360000042244792,6.61299991607666
6836.73241488211,1520363.0,-0.0065100002102553844,0.004809999838471413,-0.007079999893903732,6.495999813079834
6836.733414654033,1520364.0,-0.005799999926239252,-0.006630000192672014,0.000539999979082495,6.441999912261963
6836.734414425956,1520365.0,-0.005840000230818987,-0.004410000052303076,-0.0010900000343099236,6.366000175476074
6836.7354141978785,1520366.0,-0.004360000137239695,-0.005900000222027302,0.00031999999191612005,6.451000213623047
6836.736413969801,1520367.0,-0.0028299998957663774,-0.0016299999551847577,-0.003269999986514449,6.458000183105469
6836.737413741724,1520368.0,-0.0028800000436604023,-0.005900000222027302,0.0024500000290572643,6.5370001792907715
6836.738413513647,1520369.0,-0.0023399998899549246,0.0009500000160187483,-0.004809999838471413,6.5
6836.73941328557,1520370.0,-0.0008999999845400453,-4.999999873689376e-05,0.0024500000290572643,6.598999977111816
6836.740413057492,1520371.0,-9.000000136438757e-05,0.0019099999917671084,0.0015399999683722854,6.671000003814697
6836.741412829415,1520372.0,-0.000539999979082495,0.003449999960139394,0.0028200000524520874,6.689000129699707
6836.7424126013375,1520373.0,-0.0004900000058114529,-0.0002699999895412475,0.003809999907389283,6.696000099182129
6836.74341237326,1520374.0,-0.0012600000482052565,0.007079999893903732,-0.003269999986514449,6.3460001945495605
6836.744412145184,1520375.0,0.0008999999845400453,-0.0008200000156648457,-0.004900000058114529,6.656000137329102
6836.745411917106,1520376.0,0.0023399998899549246,0.0020000000949949026,0.003809999907389283,6.579999923706055
6836.746411689029,1520377.0,0.0017099999822676182,0.0016299999551847577,0.000539999979082495,6.570000171661377
6836.747411460951,1520378.0,0.0014799999771639705,-0.001820000004954636,0.0020000000949949026,6.610000133514404
6836.748411232874,1520379.0,0.0008999999845400453,-0.0033599999733269215,-0.00018000000272877514,6.605999946594238
6836.749411004797,1520380.0,-0.00107999995816499,0.004269999917596579,-0.0029100000392645597,6.5
6836.75041077672,1520381.0,-0.0012600000482052565,-0.004449999891221523,0.0019099999917671084,6.71999979019165
6836.7514105486425,1520382.0,-0.0015300000086426735,-0.002360000042244792,0.0027199999894946814,6.418000221252441
6836.752410320565,1520383.0,-0.001979999942705035,-0.0044999998062849045,-9.000000136438757e-05,6.515999794006348
6836.753410092488,1520384.0,-0.0017999999690800905,-0.004540000110864639,0.000539999979082495,6.554999828338623
6836.754409864411,1520385.0,-0.0015300000086426735,-0.005489999894052744,0.000910000002477318,6.47599983215332
6836.755409636334,1520386.0,-0.00018000000272877514,0.0020000000949949026,-0.003909999970346689,6.73199987411499
6836.756409408256,1520387.0,9.000000136438757e-05,-0.004679999779909849,0.005630000028759241,6.646999835968018
6836.757409180179,1520388.0,-0.0011699999449774623,-0.0036299999337643385,-0.0063599999994039536,6.769000053405762
6836.7584089521015,1520389.0,-0.0025599999353289604,-0.004900000058114529,-0.0063599999994039536,6.769000053405762
6836.759408724025,1520390.0,-0.0022499999031424522,-0.003809999907389283,-0.008170000277459621,6.771999835968018
6836.760408495948,1520391.0,0.0023799999617040157,-0.0027199999894946814,0.0007699999841861427,6.679999828338623
6836.76140826787,1520392.0,0.004040000028908253,-0.000539999979082495,-0.0020000000949949026,6.656000137329102
6836.762408039793,1520393.0,0.004670000169426203,0.000590000010561198,0.00418000016361475,6.605999946594238
6836.763407811715,1520394.0,0.004989999812096357,-0.004900000058114529,-0.004720000084489584,6.683000087738037
6836.764407583638,1520395.0,0.0047599999234080315,0.001180000021122396,-0.004809999838471413,6.708000183105469
6836.765407355561,1520396.0,0.0037700000684708357,0.004900000058114529,-0.004269999917596579,6.710999965667725
6836.766407127484,1520397.0,0.0033199999015778303,0.0016299999551847577,-0.0008200000156648457,6.672999858856201
6836.7674068994065,1520398.0,0.0035500000230968,-0.0072200000286102295,-0.003449999960139394,6.640999794006348
6836.768406671329,1520399.0,0.003949999809265137,0.004720000084489584,0.001449999981559813,6.798999786376953
6836.769406443252,1520400.0,0.0022499999031424522,0.005090000107884407,-0.00014000000373926014,6.75
6836.770406215175,1520401.0,-0.0002699999895412475,-0.0010900000343099236,0.0024500000290572643,6.736999988555908
6836.771405987098,1520402.0,-0.0016199999954551458,-0.004269999917596579,0.002360000042244792,6.714000225067139
6836.77240575902,1520403.0,-0.0023399998899549246,0.00041000000783242285,-0.005539999809116125,6.49399995803833
6836.773405530943,1520404.0,-0.001120000029914081,0.0017300000181421638,0.001449999981559813,6.829999923706055
6836.7744053028655,1520405.0,-0.0003600000054575503,-0.003449999960139394,-0.001180000021122396,6.724999904632568
6836.775405074788,1520406.0,0.0003600000054575503,-0.00044999999227002263,0.0031799999997019768,6.7779998779296875
6836.776404846712,1520407.0,0.004360000137239695,-0.005810000002384186,0.0012700000079348683,6.735000133514404
6836.777404618634,1520408.0,0.004310000222176313,0.0016299999551847577,-0.00018000000272877514,6.71999979019165
6836.778404390557,1520409.0,0.0029200001154094934,-0.005270000081509352,-0.0036299999337643385,6.781000137329102
6836.779404162479,1520410.0,0.0024300001095980406,0.007449999917298555,0.0016299999551847577,6.756999969482422
6836.780403934402,1520411.0,0.001979999942705035,-0.006539999973028898,-0.006719999946653843,6.676000118255615
6836.781403706325,1520412.0,0.002520000096410513,-0.005040000192821026,9.000000136438757e-05,6.543000221252441
6836.782403478248,1520413.0,0.0035000001080334187,0.0,-0.001180000021122396,6.572999954223633
6836.7834032501705,1520414.0,0.004220000002533197,0.0019099999917671084,0.0016299999551847577,6.566999912261963
6836.784403022093,1520415.0,0.0028299998957663774,-0.005900000222027302,-0.005090000107884407,6.908999919891357
6836.785402794016,1520416.0,0.001979999942705035,-0.001769999973475933,0.0017300000181421638,6.785999774932861
6836.786402565939,1520417.0,0.0031399999279528856,-0.004129999782890081,-0.0027199999894946814,6.75
6836.787402337862,1520418.0,0.0034099998883903027,0.0016299999551847577,-0.0017300000181421638,6.73199987411499
6836.788402109784,1520419.0,0.004040000028908253,0.003809999907389283,0.0010000000474974513,6.73799991607666
6836.789401881707,1520420.0,0.002469999948516488,0.0030900000128895044,0.003809999907389283,6.769000053405762
6836.7904016536295,1520421.0,0.0008999999845400453,-0.00044999999227002263,-0.003809999907389283,6.855999946594238
6836.791401425553,1520422.0,0.0008999999845400453,-0.005810000002384186,0.004540000110864639,6.610000133514404
6836.792401197476,1520423.0,0.00107999995816499,0.003220000071451068,-0.003449999960139394,6.942999839782715
6836.793400969398,1520424.0,0.0003600000054575503,0.003269999986514449,0.0007300000288523734,6.954999923706055
6836.794400741321,1520425.0,0.0003600000054575503,-0.0012700000079348683,0.001449999981559813,6.946000099182129
6836.795400513243,1520426.0,-0.0004900000058114529,-0.005090000107884407,0.0017300000181421638,6.940000057220459
6836.796400285166,1520427.0,-0.00107999995816499,0.0021800000686198473,-0.004769999999552965,6.616000175476074
6836.797400057089,1520428.0,-0.0018899999558925629,-0.004000000189989805,0.001820000004954636,6.940000057220459
6836.798399829012,1520429.0,-0.00279000005684793,0.003269999986514449,-9.000000136438757e-05,6.882999897003174
6836.7993996009345,1520430.0,-0.0027000000700354576,-0.0024999999441206455,-0.0030900000128895044,6.874000072479248
6836.800399372857,1520431.0,-0.0027000000700354576,-0.005539999809116125,-0.003449999960139394,6.6479997634887695
6836.80139914478,1520432.0,-0.0028800000436604023,-0.003000000026077032,0.0012700000079348683,6.870999813079834
6836.802398916703,1520433.0,-0.00279000005684793,0.000910000002477318,-0.003269999986514449,6.824999809265137
6836.803398688626,1520434.0,-0.0011699999449774623,-0.006899999920278788,0.00418000016361475,6.916999816894531
6836.804398460548,1520435.0,0.002520000096410513,-0.003809999907389283,-0.00418000016361475,6.809999942779541
6836.805398232471,1520436.0,0.0028800000436604023,-0.008129999972879887,-0.006579999811947346,6.836999893188477
6836.8063980043935,1520437.0,0.0031399999279528856,-0.0033599999733269215,0.000910000002477318,6.8420000076293945
6836.807397776317,1520438.0,0.005570000037550926,-0.00031999999191612005,-0.001820000004954636,6.679999828338623
6836.80839754824,1520439.0,0.007819999940693378,0.0013599999947473407,-0.002630000002682209,6.948999881744385
6836.809397320162,1520440.0,0.008630000054836273,-0.003719999920576811,-0.004679999779909849,6.896999835968018
6836.810397092085,1520441.0,0.006649999879300594,-0.004629999864846468,0.0012700000079348683,7.015999794006348
6836.811396864007,1520442.0,0.007369999773800373,-0.003449999960139394,-0.001820000004954636,7.013000011444092
6836.812396635931,1520443.0,0.008630000054836273,0.00018000000272877514,0.001449999981559813,7.03000020980835
6836.813396407853,1520444.0,0.009069999679923058,-0.006579999811947346,0.002630000002682209,6.789000034332275
6836.814396179776,1520445.0,0.007860000245273113,-0.0007300000288523734,0.0020000000949949026,7.052999973297119
6836.8153959516985,1520446.0,0.006829999852925539,-0.002360000042244792,-0.0027199999894946814,6.946000099182129
6836.816395723621,1520447.0,0.005750000011175871,-0.0030900000128895044,-0.005630000028759241,6.952000141143799
6836.817395495544,1520448.0,0.0052999998442828655,0.0021299999207258224,-0.007269999943673611,6.927000045776367
6836.818395267467,1520449.0,0.004720000084489584,0.000910000002477318,-0.0010900000343099236,6.934000015258789
6836.81939503939,1520450.0,0.0027000000700354576,-0.0033599999733269215,0.001820000004954636,6.942999839782715
6836.820394811312,1520451.0,0.0011699999449774623,0.002090000081807375,0.00044999999227002263,6.97599983215332
6836.821394583235,1520452.0,0.0009899999713525176,-0.0015399999683722854,-0.002360000042244792,6.920000076293945
6836.8223943551575,1520453.0,0.0012600000482052565,0.004540000110864639,-0.0007699999841861427,6.760000228881836
6836.823394127081,1520454.0,0.0013500000350177288,0.000910000002477318,-0.004089999943971634,6.775000095367432
6836.824393899004,1520455.0,0.0012600000482052565,-0.00044999999227002263,-0.0016299999551847577,6.760000228881836
6836.825393670926,1520456.0,0.0003600000054575503,0.004000000189989805,0.000910000002477318,7.119999885559082
6836.826393442849,1520457.0,0.0008999999845400453,-0.0059899999760091305,0.00018000000272877514,6.984000205993652
6836.827393214771,1520458.0,0.0007200000109151006,0.0027199999894946814,-0.007269999943673611,6.958000183105469
6836.828392986694,1520459.0,0.0014400000218302011,-0.000539999979082495,0.0030900000128895044,6.866000175476074
6836.829392758617,1520460.0,-0.00018000000272877514,-0.003909999970346689,-0.0008200000156648457,6.829999923706055
6836.83039253054,1520461.0,-0.0033199999015778303,-0.00044999999227002263,-0.0027199999894946814,6.859000205993652
6836.8313923024625,1520462.0,-0.004399999976158142,0.000910000002477318,-0.003909999970346689,7.1519999504089355
6836.832392074385,1520463.0,-0.004129999782890081,-0.005630000028759241,0.0002300000051036477,7.025000095367432
6836.833391846308,1520464.0,-0.0035500000230968,0.002360000042244792,0.003809999907389283,7.061999797821045
6836.834391618231,1520465.0,-0.0030499999411404133,-0.0015399999683722854,0.00044999999227002263,7.126999855041504
6836.835391390154,1520466.0,-0.003229999914765358,-0.006990000139921904,0.004089999943971634,7.111999988555908
6836.836391162076,1520467.0,-0.0024300001095980406,-0.0033199999015778303,0.0021800000686198473,7.073999881744385
6836.837390933999,1520468.0,-0.0022499999031424522,-0.0010900000343099236,-0.000910000002477318,7.039999961853027
6836.8383907059215,1520469.0,-0.004269999917596579,-0.002950000111013651,-0.0036800000816583633,6.954999923706055
6836.839390477845,1520470.0,-0.003229999914765358,-0.0030900000128895044,0.0020000000949949026,7.067999839782715
6836.840390249768,1520471.0,0.001120000029914081,-0.0016299999551847577,0.003949999809265137,7.083000183105469
6836.84139002169,1520472.0,0.004490000195801258,-0.0027199999894946814,0.003269999986514449,7.0879998207092285
6836.842389793613,1520473.0,0.0048500001430511475,-0.003809999907389283,-0.0029100000392645597,7.210999965667725
6836.843389565535,1520474.0,0.004490000195801258,0.0016799999866634607,0.0030900000128895044,7.123000144958496
6836.844389337459,1520475.0,0.005750000011175871,0.0012700000079348683,-0.006089999806135893,7.150000095367432
6836.845389109381,1520476.0,0.004220000002533197,-0.006630000192672014,0.000539999979082495,6.894000053405762
6836.846388881304,1520477.0,0.0027000000700354576,-0.000539999979082495,0.004000000189989805,6.947000026702881
6836.8473886532265,1520478.0,0.0023399998899549246,0.0027199999894946814,0.005400000140070915,6.964000225067139
6836.848388425149,1520479.0,0.0027000000700354576,0.00418000016361475,-0.004410000052303076,7.111000061035156
6836.849388197072,1520480.0,0.0030499999411404133,-0.005630000028759241,0.0003600000054575503,7.073999881744385
6836.850387968995,1520481.0,0.0017099999822676182,0.003949999809265137,0.00018000000272877514,7.256999969482422
6836.851387740918,1520482.0,0.0023399998899549246,-0.004089999943971634,-0.0027199999894946814,6.979000091552734
6836.85238751284,1520483.0,0.0030499999411404133,0.003590000094845891,-0.0020000000949949026,6.97599983215332
6836.853387284763,1520484.0,0.004670000169426203,-0.001449999981559813,-0.004720000084489584,6.9730000495910645
6836.8543870566855,1520485.0,0.007369999773800373,0.001180000021122396,-0.00018000000272877514,7.135000228881836
6836.855386828609,1520486.0,0.009519999846816063,-0.0025400000158697367,-0.006630000192672014,7.000999927520752
6836.856386600532,1520487.0,0.009159999899566174,0.004999999888241291,0.0020000000949949026,7.294000148773193
6836.857386372454,1520488.0,0.00872000027447939,0.0013599999947473407,-0.004900000058114529,7.114999771118164
6836.858386144377,1520489.0,0.0083600003272295,0.003809999907389283,-0.005810000002384186,7.13700008392334
6836.859385916299,1520490.0,0.006779999937862158,-0.0021800000686198473,-0.007309999782592058,7.258999824523926
6836.860385688222,1520491.0,0.0052999998442828655,0.0030900000128895044,0.0010400000028312206,6.97599983215332
6836.861385460145,1520492.0,0.005929999984800816,-0.0083600003272295,-0.004540000110864639,7.300000190734863
6836.862385232068,1520493.0,0.00610999995842576,0.0027199999894946814,0.00018000000272877514,7.190000057220459
6836.8633850039905,1520494.0,0.007369999773800373,0.005810000002384186,-0.004900000058114529,7.186999797821045
6836.864384775913,1520495.0,0.006649999879300594,-0.0005000000237487257,-0.004449999891221523,7.192999839782715
6836.865384547836,1520496.0,0.004670000169426203,-0.005270000081509352,-0.004360000137239695,7.197999954223633
6836.866384319759,1520497.0,0.0037700000684708357,0.0006799999973736703,0.0016299999551847577,7.165999889373779
6836.867384091682,1520498.0,0.0031399999279528856,-0.001180000021122396,0.0006799999973736703,7.269000053405762
6836.868383863604,1520499.0,0.002739999908953905,0.0011399999493733048,-0.006089999806135893,7.2170000076293945
6836.869383635527,1520500.0,0.0017999999690800905,-0.00041000000783242285,-0.003909999970346689,7.256999969482422
6836.8703834074495,1520501.0,-0.00013000000035390258,-0.0022700000554323196,-0.005270000081509352,7.256999969482422
6836.871383179373,1520502.0,-0.0009399999980814755,-0.004679999779909849,-0.001769999973475933,7.244999885559082
6836.872382951296,1520503.0,-0.0003100000030826777,0.0030900000128895044,-0.004129999782890081,7.244999885559082
6836.873382723218,1520504.0,0.0020699999295175076,-0.005179999861866236,0.0016799999866634607,7.271999835968018
6836.874382495141,1520505.0,0.002959999954327941,0.001180000021122396,-0.003590000094845891,7.208000183105469
6836.875382267063,1520506.0,0.00215999991632998,-0.003449999960139394,-0.004269999917596579,7.244999885559082
6836.876382038987,1520507.0,0.0016199999954551458,-0.006130000110715628,-0.004540000110864639,7.256999969482422
6836.877381810909,1520508.0,0.00039999998989515007,-0.003719999920576811,-0.00418000016361475,7.248000144958496
6836.878381582832,1520509.0,0.00044999999227002263,0.0008200000156648457,-0.004129999782890081,7.275000095367432
6836.8793813547545,1520510.0,0.0003600000054575503,0.00041000000783242285,0.002090000081807375,7.236000061035156
6836.880381126677,1520511.0,0.000539999979082495,-0.004629999864846468,-0.004310000222176313,7.289000034332275
6836.8813808986,1520512.0,0.0016199999954551458,-0.0016299999551847577,-0.003809999907389283,7.297999858856201
6836.882380670523,1520513.0,0.0026100000832229853,0.0012700000079348683,-0.005179999861866236,7.309000015258789
6836.883380442446,1520514.0,0.0026100000832229853,0.0030900000128895044,-0.0005000000237487257,7.395999908447266
6836.884380214368,1520515.0,0.0023399998899549246,-0.005450000055134296,-0.00418000016361475,7.10099983215332
6836.885379986291,1520516.0,0.002959999954327941,0.004540000110864639,0.001820000004954636,7.425000190734863
6836.8863797582135,1520517.0,0.0035000001080334187,-0.004269999917596579,-0.004809999838471413,7.111999988555908
6836.887379530137,1520518.0,0.00279000005684793,0.0007699999841861427,-0.003949999809265137,7.129000186920166
6836.88837930206,1520519.0,0.0024300001095980406,0.0029100000392645597,-0.002630000002682209,7.158999919891357
6836.889379073982,1520520.0,0.0030499999411404133,0.0028200000524520874,-0.00418000016361475,7.367000102996826
6836.890378845905,1520521.0,0.003229999914765358,-0.001449999981559813,-0.006810000166296959,7.339000225067139
6836.891378617827,1520522.0,0.003949999809265137,-0.005630000028759241,0.003590000094845891,7.373000144958496
6836.892378389751,1520523.0,0.0048500001430511475,0.0021800000686198473,-0.006539999973028898,7.513000011444092
6836.893378161673,1520524.0,0.004490000195801258,-0.004900000058114529,-0.004900000058114529,7.500999927520752
6836.894377933596,1520525.0,0.0031900000758469105,0.0024999999441206455,-0.004360000137239695,7.390999794006348
6836.8953777055185,1520526.0,0.00107999995816499,-0.00018000000272877514,-0.0012700000079348683,7.5320000648498535
6836.896377477441,1520527.0,0.0017099999822676182,-0.004629999864846468,-0.004449999891221523,7.184000015258789
6836.897377249365,1520528.0,0.0025599999353289604,0.002630000002682209,-0.000539999979082495,7.540999889373779
6836.898377021287,1520529.0,0.002959999954327941,0.0021299999207258224,0.0030900000128895044,7.385000228881836
6836.89937679321,1520530.0,0.0048500001430511475,0.0036800000816583633,0.0002699999895412475,7.394000053405762
6836.900376565132,1520531.0,0.005570000037550926,0.0018599999602884054,-0.0021299999207258224,7.4079999923706055
6836.901376337055,1520532.0,0.004310000222176313,0.0031300000846385956,-0.002360000042244792,7.446000099182129
6836.9023761089775,1520533.0,0.003590000094845891,-0.005590000189840794,-0.0027199999894946814,7.466000080108643
6836.903375880901,1520534.0,0.002520000096410513,-0.0003600000054575503,0.001500000013038516,7.458000183105469
6836.904375652824,1520535.0,0.0027000000700354576,0.004809999838471413,-0.003809999907389283,7.5960001945495605
6836.905375424746,1520536.0,0.0014400000218302011,0.0012700000079348683,-0.00418000016361475,7.603000164031982
6836.906375196669,1520537.0,-0.0003100000030826777,0.0006799999973736703,-0.003719999920576811,7.623000144958496
6836.907374968591,1520538.0,-0.0027000000700354576,0.004269999917596579,-0.001180000021122396,7.357999801635742
6836.908374740515,1520539.0,-0.004399999976158142,-0.004089999943971634,-0.005450000055134296,7.613999843597412
6836.909374512437,1520540.0,-0.005210000090301037,0.0002699999895412475,0.0025400000158697367,7.526000022888184
6836.91037428436,1520541.0,-0.0034099998883903027,-0.0020000000949949026,-0.001449999981559813,7.515999794006348
6836.9113740562825,1520542.0,0.00039999998989515007,0.0027199999894946814,-0.004000000189989805,7.5229997634887695
6836.912373828205,1520543.0,0.00215999991632998,-0.0020000000949949026,-0.005489999894052744,7.538000106811523
6836.913373600128,1520544.0,0.0012600000482052565,-0.000539999979082495,0.0020000000949949026,7.629000186920166
6836.914373372051,1520545.0,0.0008999999845400453,-0.005040000192821026,-0.004720000084489584,7.526000022888184
6836.915373143974,1520546.0,0.0003600000054575503,-0.0015399999683722854,-0.0036299999337643385,7.500999927520752
6836.916372915896,1520547.0,0.0006300000241026282,0.0013200000394135714,-0.00880999956279993,7.513000011444092
6836.917372687819,1520548.0,0.0009899999713525176,-0.001180000021122396,-0.003220000071451068,7.545000076293945
6836.9183724597415,1520549.0,0.0012600000482052565,-0.004310000222176313,-0.004089999943971634,7.526000022888184
6836.919372231665,1520550.0,0.00107999995816499,0.0021800000686198473,0.0010000000474974513,7.586999893188477
6836.9203720035875,1520551.0,0.0010300000431016088,-0.0037700000684708357,0.0018599999602884054,7.446000099182129
6836.92137177551,1520552.0,0.0008999999845400453,0.0013599999947473407,-0.0033599999733269215,7.605000019073486
6836.922371547433,1520553.0,0.0009399999980814755,0.0030900000128895044,-0.003809999907389283,7.598999977111816
6836.923371319355,1520554.0,0.000539999979082495,-0.003719999920576811,-0.004540000110864639,7.635000228881836
6836.924371091279,1520555.0,0.0006699999794363976,-0.005810000002384186,-0.0036299999337643385,7.736000061035156
6836.925370863201,1520556.0,0.0007200000109151006,0.0027699999045580626,-0.004040000028908253,7.6539998054504395
6836.926370635124,1520557.0,0.00018000000272877514,-0.003719999920576811,0.001769999973475933,7.684000015258789
6836.9273704070465,1520558.0,0.00018000000272877514,0.003590000094845891,-0.004809999838471413,7.6479997634887695
6836.928370178969,1520559.0,-0.00039999998989515007,0.0007300000288523734,-0.0020000000949949026,7.51800012588501
6836.929369950893,1520560.0,-0.000539999979082495,-0.004629999864846468,-0.005270000081509352,7.442999839782715
6836.930369722815,1520561.0,-0.0014400000218302011,-0.0072200000286102295,-0.003000000026077032,7.663000106811523
6836.931369494738,1520562.0,-0.0011699999449774623,0.002360000042244792,-0.003809999907389283,7.755000114440918
6836.93236926666,1520563.0,-0.0012600000482052565,-0.001500000013038516,0.004540000110864639,7.675000190734863
6836.933369038583,1520564.0,-0.000539999979082495,-0.002630000002682209,-0.0033199999015778303,7.818999767303467
6836.9343688105055,1520565.0,0.001979999942705035,-0.003719999920576811,-0.003539999946951866,7.836999893188477
6836.935368582429,1520566.0,0.0028800000436604023,0.0030900000128895044,-0.00418000016361475,7.85099983215332
6836.9363683543515,1520567.0,0.003590000094845891,-0.0027199999894946814,0.0025400000158697367,7.684000015258789
6836.937368126274,1520568.0,0.003819999983534217,-0.003269999986514449,-0.0027199999894946814,7.730000019073486
6836.938367898197,1520569.0,0.0034099998883903027,0.002950000111013651,0.002409999957308173,7.573999881744385
6836.939367670119,1520570.0,0.004939999897032976,-0.004449999891221523,-0.005590000189840794,7.732999801635742
6836.940367442043,1520571.0,0.008089999668300152,0.0,-0.003719999920576811,7.744999885559082
6836.941367213965,1520572.0,0.009519999846816063,0.003860000055283308,0.001449999981559813,7.755000114440918
6836.942366985888,1520573.0,0.010060000233352184,-0.002630000002682209,0.001820000004954636,7.875
6836.9433667578105,1520574.0,0.011680000461637974,-0.001820000004954636,0.0020000000949949026,7.757999897003174
6836.944366529733,1520575.0,0.014550000429153442,-0.0012700000079348683,-0.007540000136941671,7.561999797821045
6836.945366301656,1520576.0,0.017559999600052834,-0.004860000219196081,-0.0010000000474974513,7.7769999504089355
6836.946366073579,1520577.0,0.017069999128580093,0.0025400000158697367,0.004449999891221523,7.794000148773193
6836.947365845502,1520578.0,0.01549999974668026,0.002360000042244792,0.00031999999191612005,7.802999973297119
6836.948365617424,1520579.0,0.012760000303387642,-0.0008200000156648457,-0.0036800000816583633,7.874000072479248
6836.949365389347,1520580.0,0.01095999963581562,-0.006310000084340572,0.0036299999337643385,7.820000171661377
6836.95036516127,1520581.0,0.008799999952316284,0.003449999960139394,0.0006799999973736703,7.635000228881836
6836.951364933193,1520582.0,0.006020000204443932,0.003809999907389283,0.0015399999683722854,7.88700008392334
6836.9523647051155,1520583.0,0.004670000169426203,-0.001820000004954636,0.001769999973475933,7.901000022888184
6836.953364477038,1520584.0,0.005030000116676092,-0.0063599999994039536,0.001820000004954636,7.635000228881836
6836.954364248961,1520585.0,0.006020000204443932,-0.00044999999227002263,-0.00418000016361475,8.001999855041504
6836.955364020883,1520586.0,0.005210000090301037,0.00031999999191612005,-0.0003600000054575503,7.635000228881836
6836.956363792807,1520587.0,0.0037700000684708357,-0.0033199999015778303,-0.0027199999894946814,8.02299976348877
6836.957363564729,1520588.0,0.0014799999771639705,-0.005539999809116125,-0.003909999970346689,8.055000305175781
6836.958363336652,1520589.0,-9.000000136438757e-05,0.005040000192821026,-0.00418000016361475,8.057000160217285
6836.9593631085745,1520590.0,-0.0011699999449774623,0.0030900000128895044,0.0006399999838322401,8.064000129699707
6836.960362880497,1520591.0,-0.0003600000054575503,-0.001820000004954636,-0.004089999943971634,7.932000160217285
6836.961362652421,1520592.0,-0.0008099999977275729,0.0003600000054575503,0.003809999907389283,7.982999801635742
6836.962362424343,1520593.0,-0.0003600000054575503,0.003809999907389283,-0.005090000107884407,7.947000026702881
6836.963362196266,1520594.0,0.00018000000272877514,0.00418000016361475,-0.0012700000079348683,7.947000026702881
6836.964361968188,1520595.0,-0.000539999979082495,-0.003269999986514449,-0.003719999920576811,7.9679999351501465
6836.965361740111,1520596.0,9.000000136438757e-05,-0.001820000004954636,-0.001820000004954636,7.965000152587891
6836.9663615120335,1520597.0,0.0017999999690800905,0.0016299999551847577,-0.005040000192821026,7.855000019073486
6836.967361283957,1520598.0,0.0024300001095980406,-0.006680000107735395,0.0002699999895412475,8.130000114440918
6836.9683610558795,1520599.0,0.001979999942705035,-0.0006399999838322401,-0.004089999943971634,7.755000114440918
6836.969360827802,1520600.0,0.0028800000436604023,-0.0051299999468028545,-0.003719999920576811,7.769999980926514
6836.970360599725,1520601.0,0.003590000094845891,-0.005630000028759241,-0.0024999999441206455,7.811999797821045
6836.971360371647,1520602.0,0.005119999870657921,-0.00571999978274107,-0.0029100000392645597,8.057000160217285
6836.972360143571,1520603.0,0.0048500001430511475,-0.0015399999683722854,-0.0007699999841861427,8.07800006866455
6836.973359915493,1520604.0,0.004129999782890081,0.003809999907389283,0.0,8.065999984741211
6836.974359687416,1520605.0,0.003590000094845891,-0.00535999983549118,-0.005090000107884407,8.151000022888184
6836.9753594593385,1520606.0,0.0020699999295175076,-0.00267999991774559,-0.004449999891221523,8.151000022888184
6836.976359231261,1520607.0,-3.9999998989515007e-05,0.0016299999551847577,-0.004900000058114529,8.17300033569336
6836.977359003185,1520608.0,-0.001930000027641654,0.001449999981559813,0.0013599999947473407,7.995999813079834
6836.978358775107,1520609.0,-0.0012600000482052565,-0.0013599999947473407,-0.010169999673962593,8.246000289916992
6836.97935854703,1520610.0,-0.0002699999895412475,0.0010000000474974513,0.003449999960139394,8.13599967956543
6836.980358318952,1520611.0,-0.0003600000054575503,-0.0027199999894946814,-0.00571999978274107,8.166999816894531
6836.981358090875,1520612.0,-0.001979999942705035,0.0016799999866634607,-0.0030900000128895044,8.170000076293945
6836.982357862798,1520613.0,-0.004129999782890081,0.0025400000158697367,-0.005630000028759241,8.20300006866455
6836.983357634721,1520614.0,-0.005570000037550926,0.003719999920576811,0.000539999979082495,8.237000465393066
6836.9843574066435,1520615.0,-0.0065100002102553844,-0.006630000192672014,-0.0021299999207258224,8.154000282287598
6836.985357178566,1520616.0,-0.0064199999906122684,0.0045900000259280205,0.004809999838471413,8.005000114440918
6836.986356950489,1520617.0,-0.007639999967068434,0.0028200000524520874,-0.004809999838471413,8.1850004196167
6836.987356722411,1520618.0,-0.0053900000639259815,0.0020000000949949026,-0.005539999809116125,8.208999633789062
6836.988356494335,1520619.0,-0.0016199999954551458,-0.0014100000262260437,-0.002630000002682209,8.190999984741211
6836.989356266257,1520620.0,-0.0008999999845400453,0.004540000110864639,0.0024500000290572643,8.343999862670898
6836.99035603818,1520621.0,0.0006300000241026282,-0.003449999960139394,-0.003449999960139394,8.246000289916992
6836.9913558101025,1520622.0,0.00107999995816499,0.0020000000949949026,-0.00018000000272877514,8.321999549865723
6836.992355582025,1520623.0,0.0008999999845400453,0.0029100000392645597,-0.003809999907389283,8.21500015258789
6836.993355353949,1520624.0,0.0007200000109151006,-0.0027199999894946814,-0.004900000058114529,8.324999809265137
6836.994355125871,1520625.0,0.00018000000272877514,-0.007079999893903732,-0.00686000008136034,8.41100025177002
6836.995354897794,1520626.0,-0.0009899999713525176,0.0007300000288523734,-0.0010400000028312206,8.034000396728516
6836.996354669716,1520627.0,-0.0012100000167265534,0.0020000000949949026,-0.003719999920576811,8.440999984741211
6836.997354441639,1520628.0,-0.0009899999713525176,-0.0012700000079348683,0.0020000000949949026,8.350000381469727
6836.9983542135615,1520629.0,0.00018000000272877514,-0.005539999809116125,0.000910000002477318,8.324999809265137
6836.999353985485,1520630.0,0.0007200000109151006,-0.005270000081509352,0.002090000081807375,8.343999862670898
6837.0003537574075,1520631.0,0.0007200000109151006,0.0016299999551847577,0.0017300000181421638,8.364999771118164
6837.00135352933,1520632.0,0.0014400000218302011,-0.005270000081509352,-0.007079999893903732,8.331000328063965
6837.002353301253,1520633.0,0.0017999999690800905,-9.000000136438757e-05,0.0015399999683722854,8.404999732971191
6837.003353073175,1520634.0,0.0016199999954551458,0.0002699999895412475,0.00031999999191612005,8.13599967956543
6837.004352845099,1520635.0,0.00107999995816499,0.0010900000343099236,0.001180000021122396,8.258000373840332
6837.005352617021,1520636.0,-9.000000136438757e-05,-0.005450000055134296,-0.0027199999894946814,8.347999572753906
6837.006352388944,1520637.0,-0.0020699999295175076,-0.0029100000392645597,-0.003539999946951866,8.28600025177002
6837.0073521608665,1520638.0,-0.0030499999411404133,0.0030900000128895044,-0.00418000016361475,8.571999549865723
6837.008351932789,1520639.0,-0.0035500000230968,-0.00018000000272877514,0.003449999960139394,8.440999984741211
6837.009351704713,1520640.0,-0.0016199999954551458,-0.004999999888241291,-0.004629999864846468,8.550999641418457
6837.010351476635,1520641.0,0.00018000000272877514,-0.0063599999994039536,-0.007079999893903732,8.565999984741211
6837.011351248558,1520642.0,0.0012600000482052565,-0.003449999960139394,-0.0033599999733269215,8.597000122070312
6837.01235102048,1520643.0,0.0030499999411404133,-0.00535999983549118,0.004000000189989805,8.458000183105469
6837.013350792403,1520644.0,0.0048500001430511475,0.0002699999895412475,-0.005270000081509352,8.496000289916992
6837.014350564326,1520645.0,0.004579999949783087,0.003269999986514449,0.00418000016361475,8.3149995803833
6837.015350336249,1520646.0,0.004310000222176313,-0.00535999983549118,-0.006949999835342169,8.517000198364258
6837.0163501081715,1520647.0,0.003280000062659383,-0.00418000016361475,-0.006039999891072512,8.515999794006348
6837.017349880094,1520648.0,0.0013500000350177288,0.0030900000128895044,-0.0033599999733269215,8.53600025177002
6837.018349652017,1520649.0,0.0003600000054575503,0.0027199999894946814,-0.0028200000524520874,8.678000450134277
6837.019349423939,1520650.0,0.0018899999558925629,-0.007720000110566616,-0.006719999946653843,8.538999557495117
6837.020349195863,1520651.0,0.00107999995816499,0.0012700000079348683,-0.0036299999337643385,8.527999877929688
6837.021348967785,1520652.0,0.00018000000272877514,0.003269999986514449,-0.007809999864548445,8.588000297546387
6837.022348739708,1520653.0,0.0007200000109151006,0.003449999960139394,-0.005810000002384186,8.612000465393066
6837.0233485116305,1520654.0,-0.000539999979082495,0.0008200000156648457,-0.00044999999227002263,8.614999771118164
6837.024348283553,1520655.0,-0.0012600000482052565,0.00031999999191612005,0.004679999779909849,8.717000007629395
6837.025348055477,1520656.0,-0.00107999995816499,-0.001449999981559813,-0.0010900000343099236,8.66100025177002
6837.026347827399,1520657.0,0.0006699999794363976,-0.000910000002477318,-0.0022700000554323196,8.748000144958496
6837.027347599322,1520658.0,0.0012600000482052565,0.0029100000392645597,-0.0016299999551847577,8.590999603271484
6837.028347371244,1520659.0,0.001979999942705035,-0.0036299999337643385,-0.004540000110864639,8.63599967956543
6837.029347143167,1520660.0,0.004129999782890081,-0.006899999920278788,-0.004449999891221523,8.656000137329102
6837.03034691509,1520661.0,0.004939999897032976,-0.004809999838471413,0.001449999981559813,8.687999725341797
6837.031346687013,1520662.0,0.0064199999906122684,0.004679999779909849,-0.004000000189989805,8.704999923706055
6837.0323464589355,1520663.0,0.008849999867379665,-0.003909999970346689,0.000910000002477318,8.74899959564209
6837.033346230858,1520664.0,0.010239999741315842,-0.005489999894052744,-0.0024999999441206455,8.892999649047852
6837.034346002781,1520665.0,0.009610000066459179,0.0003600000054575503,-0.001820000004954636,8.895999908447266
6837.035345774704,1520666.0,0.007819999940693378,0.0025400000158697367,-0.0044999998062849045,8.835000038146973
6837.036345546627,1520667.0,0.006289999932050705,-0.0002699999895412475,0.0007300000288523734,8.697999954223633
6837.037345318549,1520668.0,0.004540000110864639,-0.005770000163465738,-0.000539999979082495,8.871000289916992
6837.038345090472,1520669.0,0.003590000094845891,0.005450000055134296,0.001820000004954636,8.782999992370605
6837.0393448623945,1520670.0,0.0028800000436604023,0.0010000000474974513,-9.000000136438757e-05,8.782999992370605
6837.040344634317,1520671.0,0.001979999942705035,-0.00041000000783242285,0.0024999999441206455,8.803999900817871
6837.041344406241,1520672.0,0.0016199999954551458,-0.005270000081509352,0.003590000094845891,8.831999778747559
6837.042344178163,1520673.0,0.0016199999954551458,0.0010900000343099236,0.0021299999207258224,8.868000030517578
6837.043343950086,1520674.0,0.0028800000436604023,-0.00418000016361475,-0.002630000002682209,8.850000381469727
6837.044343722008,1520675.0,0.005840000230818987,-0.003590000094845891,0.000910000002477318,8.845999717712402
6837.045343493931,1520676.0,0.005929999984800816,-0.000539999979082495,-0.0002699999895412475,8.868000030517578
6837.046343265854,1520677.0,0.0030499999411404133,-0.004860000219196081,0.0024999999441206455,8.89900016784668
6837.047343037777,1520678.0,-0.00044999999227002263,-0.002360000042244792,0.0016299999551847577,8.913999557495117
6837.0483428096995,1520679.0,-0.0027000000700354576,0.0031799999997019768,-0.003809999907389283,8.89900016784668
6837.049342581622,1520680.0,-0.002959999954327941,0.0012700000079348683,-0.004900000058114529,8.795000076293945
6837.050342353545,1520681.0,-0.0011699999449774623,-0.002589999930933118,-0.0027199999894946814,8.994000434875488
6837.051342125467,1520682.0,-9.000000136438757e-05,-0.006990000139921904,0.001820000004954636,8.963000297546387
6837.052341897391,1520683.0,-9.000000136438757e-05,-0.001820000004954636,-0.00018000000272877514,8.947999954223633
6837.053341669313,1520684.0,-0.0003600000054575503,0.0059899999760091305,0.003269999986514449,9.057999610900879
6837.054341441236,1520685.0,-0.00018000000272877514,-0.0027199999894946814,-0.0005000000237487257,8.729999542236328
6837.0553412131585,1520686.0,0.0,0.003220000071451068,-0.008080000057816505,9.142999649047852
6837.056340985081,1520687.0,-0.000539999979082495,-0.004900000058114529,0.0030900000128895044,8.79800033569336
6837.057340757005,1520688.0,-0.0008999999845400453,-0.0012700000079348683,-0.00018000000272877514,8.770999908447266
6837.058340528927,1520689.0,-0.0014400000218302011,0.0021299999207258224,0.0030900000128895044,8.819999694824219
6837.05934030085,1520690.0,-0.004220000002533197,0.004629999864846468,-0.005900000222027302,9.064000129699707
6837.060340072772,1520691.0,-0.006649999879300594,-0.004089999943971634,0.0030900000128895044,9.11299991607666
6837.061339844695,1520692.0,-0.007369999773800373,0.001180000021122396,-0.002360000042244792,9.076000213623047
6837.062339616618,1520693.0,-0.005570000037550926,0.005040000192821026,0.002950000111013651,9.225000381469727
6837.063339388541,1520694.0,-0.001979999942705035,-0.003000000026077032,0.003449999960139394,9.258999824523926
6837.0643391604635,1520695.0,-0.00018000000272877514,-0.005040000192821026,0.0024999999441206455,9.282999992370605
6837.065338932386,1520696.0,0.00215999991632998,0.000910000002477318,-0.004310000222176313,9.125
6837.066338704309,1520697.0,0.005570000037550926,0.001180000021122396,0.003809999907389283,9.23799991607666
6837.067338476232,1520698.0,0.00773000018671155,-0.006949999835342169,0.00044999999227002263,9.170999526977539
6837.068338248155,1520699.0,0.008849999867379665,-0.00044999999227002263,-0.002589999930933118,9.248000144958496
6837.069338020077,1520700.0,0.008630000054836273,-0.001449999981559813,-0.0021299999207258224,9.225000381469727
6837.070337792,1520701.0,0.008089999668300152,-0.007360000163316727,-0.0027199999894946814,9.232000350952148
6837.0713375639225,1520702.0,0.00925000011920929,-0.0059899999760091305,0.0012700000079348683,9.185999870300293
6837.072337335845,1520703.0,0.00872000027447939,0.004449999891221523,-0.004540000110864639,9.229000091552734
6837.073337107769,1520704.0,0.004540000110864639,-0.005270000081509352,0.005270000081509352,9.197999954223633
6837.074336879691,1520705.0,0.0017999999690800905,-0.003000000026077032,-0.0030900000128895044,9.27400016784668
6837.075336651614,1520706.0,0.000539999979082495,-0.004540000110864639,0.00018000000272877514,9.295999526977539
6837.076336423536,1520707.0,-0.00018000000272877514,0.0024500000290572643,-0.0025400000158697367,9.295999526977539
6837.077336195459,1520708.0,-0.00107999995816499,-0.007360000163316727,-0.0020000000949949026,9.449999809265137
6837.078335967382,1520709.0,-0.0030499999411404133,0.004360000137239695,-0.0059899999760091305,9.307999610900879
6837.079335739305,1520710.0,-0.004129999782890081,-0.006719999946653843,-0.002589999930933118,9.222000122070312
6837.0803355112275,1520711.0,-0.003590000094845891,-0.0063599999994039536,-0.005590000189840794,9.376999855041504
6837.08133528315,1520712.0,-0.001979999942705035,-0.004629999864846468,-0.0059899999760091305,9.369000434875488
6837.082335055073,1520713.0,-0.0018899999558925629,-0.002360000042244792,-0.0017300000181421638,9.371999740600586
6837.083334826995,1520714.0,-0.001979999942705035,-0.002090000081807375,-0.00044999999227002263,9.369000434875488
6837.084334598919,1520715.0,-0.0016199999954551458,0.003539999946951866,0.0010000000474974513,9.406000137329102
6837.085334370841,1520716.0,-0.0014400000218302011,-0.002859999891370535,-0.0020000000949949026,9.13700008392334
6837.086334142764,1520717.0,-0.0008999999845400453,-0.004000000189989805,-0.005270000081509352,9.140000343322754
6837.0873339146865,1520718.0,-0.0012600000482052565,-0.00041000000783242285,0.001180000021122396,9.479999542236328
6837.088333686609,1520719.0,-0.0018899999558925629,0.000910000002477318,-0.000539999979082495,9.180000305175781
6837.089333458533,1520720.0,-0.0021100000012665987,-0.006630000192672014,-0.006990000139921904,9.625
6837.090333230455,1520721.0,-0.002520000096410513,0.0012700000079348683,0.002090000081807375,9.479000091552734
6837.091333002378,1520722.0,-0.003229999914765358,-0.0020000000949949026,-0.003220000071451068,9.527999877929688
6837.0923327743,1520723.0,-0.002520000096410513,0.003590000094845891,-0.0010400000028312206,9.557999610900879
6837.093332546223,1520724.0,-0.001979999942705035,0.0059899999760091305,0.0016299999551847577,9.581000328063965
6837.094332318146,1520725.0,-0.0017999999690800905,0.0009500000160187483,0.000910000002477318,9.527999877929688
6837.095332090069,1520726.0,-0.0028800000436604023,-0.004809999838471413,-0.0030900000128895044,9.70199966430664
6837.0963318619915,1520727.0,-0.0025599999353289604,-0.000539999979082495,-0.005489999894052744,9.593000411987305
6837.097331633914,1520728.0,-0.0017500000540167093,0.001820000004954636,0.001449999981559813,9.722999572753906
6837.098331405837,1520729.0,-0.0013500000350177288,0.0012700000079348683,0.0030900000128895044,9.73799991607666
6837.09933117776,1520730.0,-9.000000136438757e-05,-0.0030900000128895044,0.000910000002477318,9.753000259399414
6837.100330949683,1520731.0,0.0014400000218302011,-0.0016299999551847577,0.002360000042244792,9.628000259399414
6837.101330721605,1520732.0,0.0014400000218302011,-0.0007300000288523734,0.00018000000272877514,9.71399974822998
6837.102330493528,1520733.0,0.0022499999031424522,-0.0027199999894946814,-0.003449999960139394,9.673999786376953
6837.1033302654505,1520734.0,0.004490000195801258,0.0010900000343099236,-0.00018000000272877514,9.772000312805176
6837.104330037373,1520735.0,0.0065100002102553844,0.0024999999441206455,0.004809999838471413,9.795999526977539
6837.105329809297,1520736.0,0.007189999800175428,-0.000910000002477318,0.0017300000181421638,9.821000099182129
6837.106329581219,1520737.0,0.0071000000461936,0.004999999888241291,-0.0016299999551847577,9.760000228881836
6837.107329353142,1520738.0,0.006649999879300594,0.0028200000524520874,0.0016799999866634607,9.704999923706055
6837.108329125064,1520739.0,0.004490000195801258,-0.004089999943971634,0.0003600000054575503,9.595999717712402
6837.109328896987,1520740.0,0.002739999908953905,-0.0010900000343099236,0.0031799999997019768,9.751999855041504
6837.11032866891,1520741.0,0.0021100000012665987,-0.003809999907389283,0.0003600000054575503,9.760000228881836
6837.111328440833,1520742.0,0.00107999995816499,-0.00686000008136034,-0.003590000094845891,9.776000022888184
6837.1123282127555,1520743.0,0.0006699999794363976,-0.0063599999994039536,0.0016299999551847577,9.786999702453613
6837.113327984678,1520744.0,-0.000539999979082495,0.001820000004954636,-0.004000000189989805,9.869000434875488
6837.114327756601,1520745.0,-0.0017999999690800905,-0.0015899999998509884,-0.0014100000262260437,9.579000473022461
6837.115327528524,1520746.0,-0.002959999954327941,-0.004809999838471413,-0.004720000084489584,9.824000358581543
6837.116327300447,1520747.0,-0.0037700000684708357,-0.006539999973028898,-0.004809999838471413,9.836000442504883
6837.117327072369,1520748.0,-0.0027000000700354576,-0.0031799999997019768,-0.00686000008136034,9.869000434875488
6837.118326844292,1520749.0,0.0003600000054575503,0.00018000000272877514,0.0010000000474974513,9.958000183105469
6837.1193266162145,1520750.0,0.00279000005684793,0.003809999907389283,-0.003909999970346689,9.885000228881836
6837.120326388138,1520751.0,0.003949999809265137,-0.00418000016361475,-0.006680000107735395,9.86299991607666
6837.121326160061,1520752.0,0.004000000189989805,-0.004900000058114529,-0.002360000042244792,9.649999618530273
6837.122325931983,1520753.0,0.0035500000230968,-0.005630000028759241,-0.001449999981559813,9.661999702453613
6837.123325703906,1520754.0,0.0047599999234080315,0.0,-0.0015399999683722854,9.690999984741211
6837.124325475828,1520755.0,0.004629999864846468,-0.004900000058114529,-0.002589999930933118,10.130000114440918
6837.125325247751,1520756.0,0.002959999954327941,0.0016299999551847577,0.0016299999551847577,9.972999572753906
6837.126325019674,1520757.0,0.000539999979082495,-0.00418000016361475,-0.0027199999894946814,9.994999885559082
6837.127324791597,1520758.0,0.0002699999895412475,-0.0018599999602884054,-0.003000000026077032,10.006999969482422
6837.1283245635195,1520759.0,0.0014400000218302011,0.001449999981559813,-0.000910000002477318,10.015999794006348
6837.129324335442,1520760.0,0.00018000000272877514,0.003909999970346689,0.000539999979082495,9.944000244140625
6837.130324107365,1520761.0,-0.0030499999411404133,-0.00418000016361475,-0.004040000028908253,10.149999618530273
6837.131323879288,1520762.0,-0.004670000169426203,0.0017300000181421638,0.003860000055283308,10.116999626159668
6837.132323651211,1520763.0,-0.0036800000816583633,-0.005090000107884407,-0.003909999970346689,10.211000442504883
6837.133323423133,1520764.0,-0.002959999954327941,-0.00044999999227002263,-0.003269999986514449,10.204000473022461
6837.134323195056,1520765.0,-0.005210000090301037,-0.0007300000288523734,-0.006539999973028898,10.262999534606934
6837.1353229669785,1520766.0,-0.007639999967068434,0.0010000000474974513,-0.003449999960139394,10.180999755859375
6837.136322738901,1520767.0,-0.007369999773800373,-0.0033599999733269215,-0.00798999983817339,10.138999938964844
6837.137322510825,1520768.0,-0.004310000222176313,0.0028200000524520874,-0.004629999864846468,10.137999534606934
6837.138322282747,1520769.0,-0.0027000000700354576,0.0006399999838322401,0.0020000000949949026,10.175000190734863
6837.13932205467,1520770.0,-0.0014400000218302011,0.0031799999997019768,0.004629999864846468,10.192999839782715
6837.140321826592,1520771.0,-0.0017500000540167093,-0.0021800000686198473,0.003809999907389283,10.211000442504883
6837.141321598515,1520772.0,-0.0023399998899549246,0.001820000004954636,0.0012700000079348683,10.394000053405762
6837.142321370438,1520773.0,-0.0023399998899549246,0.000539999979082495,0.0030900000128895044,10.244999885559082
6837.143321142361,1520774.0,-0.0008999999845400453,-0.004540000110864639,-0.0025400000158697367,10.274999618530273
6837.1443209142835,1520775.0,0.0006300000241026282,0.0033199999015778303,0.004089999943971634,10.288999557495117
6837.145320686206,1520776.0,0.0012600000482052565,-0.0031799999997019768,0.0025400000158697367,10.303000450134277
6837.146320458129,1520777.0,0.0006699999794363976,-0.003719999920576811,0.0029100000392645597,10.29699993133545
6837.147320230052,1520778.0,0.0007600000244565308,-0.002360000042244792,-0.004540000110864639,10.395999908447266
6837.148320001975,1520779.0,-0.000539999979082495,0.004629999864846468,0.0036800000816583633,10.126999855041504
6837.149319773897,1520780.0,-0.0012600000482052565,-0.004540000110864639,0.0020000000949949026,10.461000442504883
6837.15031954582,1520781.0,-0.0007600000244565308,-0.00418000016361475,0.004269999917596579,10.128999710083008
6837.1513193177425,1520782.0,0.00107999995816499,-0.004360000137239695,0.0027699999045580626,10.1899995803833
6837.152319089666,1520783.0,0.001979999942705035,-0.004540000110864639,-0.0022299999836832285,10.187999725341797
6837.153318861589,1520784.0,0.0016199999954551458,-0.003269999986514449,-0.0031799999997019768,10.406000137329102
6837.154318633511,1520785.0,-9.000000136438757e-05,0.004000000189989805,-0.004360000137239695,10.274999618530273
6837.155318405434,1520786.0,-0.001979999942705035,-0.006089999806135893,0.002360000042244792,10.60200023651123
6837.156318177356,1520787.0,-0.0030499999411404133,-0.003590000094845891,-0.0014100000262260437,10.541000366210938
6837.157317949279,1520788.0,-0.0033199999015778303,-0.001500000013038516,-0.0063599999994039536,10.553000450134277
6837.158317721202,1520789.0,-0.0028299998957663774,-0.002360000042244792,-0.005450000055134296,10.57699966430664
6837.159317493125,1520790.0,-0.0007200000109151006,-0.00535999983549118,0.0002300000051036477,10.515999794006348
6837.1603172650475,1520791.0,0.0006300000241026282,0.0002699999895412475,-0.0021800000686198473,10.663000106811523
6837.16131703697,1520792.0,0.0006699999794363976,-0.003809999907389283,-0.005630000028759241,10.50100040435791
6837.162316808893,1520793.0,-0.0007200000109151006,-0.0030900000128895044,-0.0025400000158697367,10.529000282287598
6837.163316580816,1520794.0,-0.00279000005684793,-9.000000136438757e-05,-0.006089999806135893,10.555000305175781
6837.164316352739,1520795.0,-0.005210000090301037,0.0010900000343099236,0.0025400000158697367,10.57699966430664
6837.165316124661,1520796.0,-0.005750000011175871,-0.005270000081509352,-0.0027199999894946814,10.656999588012695
6837.166315896584,1520797.0,-0.006200000178068876,0.0015399999683722854,-0.000910000002477318,10.593000411987305
6837.1673156685065,1520798.0,-0.006380000151693821,0.00535999983549118,-0.003949999809265137,10.604999542236328
6837.16831544043,1520799.0,-0.007280000019818544,0.0033599999733269215,0.003860000055283308,10.62600040435791
6837.169315212353,1520800.0,-0.008220000192523003,-0.000539999979082495,-0.0006399999838322401,10.699000358581543
6837.170314984275,1520801.0,-0.006649999879300594,-0.007449999917298555,-0.0019499999471008778,10.748000144958496
6837.171314756198,1520802.0,-0.003949999809265137,0.004900000058114529,-0.005179999861866236,10.651000022888184
6837.17231452812,1520803.0,-0.0026499999221414328,-0.0019099999917671084,-0.00041000000783242285,10.706000328063965
6837.173314300044,1520804.0,-0.0012600000482052565,-0.002630000002682209,9.000000136438757e-05,10.70300006866455
6837.174314071966,1520805.0,-0.0002699999895412475,-0.00418000016361475,0.0006399999838322401,10.729999542236328
6837.175313843889,1520806.0,-0.0003600000054575503,-0.008170000277459621,-0.001820000004954636,10.736000061035156
6837.1763136158115,1520807.0,-0.0007200000109151006,-0.003809999907389283,0.001820000004954636,10.753000259399414
6837.177313387734,1520808.0,-0.0009899999713525176,-0.0016299999551847577,-0.005489999894052744,10.71500015258789
6837.178313159657,1520809.0,-0.0012600000482052565,0.0024500000290572643,-0.0003600000054575503,10.875
6837.17931293158,1520810.0,0.0008999999845400453,-0.004129999782890081,0.001820000004954636,10.675000190734863
6837.180312703503,1520811.0,0.0035000001080334187,-0.005630000028759241,0.006089999806135893,10.744999885559082
6837.181312475425,1520812.0,0.006289999932050705,0.004000000189989805,0.003000000026077032,10.829000473022461
6837.182312247348,1520813.0,0.008630000054836273,0.0029100000392645597,-0.0044999998062849045,10.692999839782715
6837.1833120192705,1520814.0,0.009879999794065952,-0.007449999917298555,0.004000000189989805,11.045999526977539
6837.184311791194,1520815.0,0.010599999688565731,0.005270000081509352,0.003000000026077032,10.86400032043457
6837.185311563117,1520816.0,0.0101500004529953,-0.00418000016361475,-0.00267999991774559,11.065999984741211
6837.186311335039,1520817.0,0.008270000107586384,-0.004089999943971634,-0.0030900000128895044,11.07800006866455
6837.187311106962,1520818.0,0.006289999932050705,0.003539999946951866,-0.005270000081509352,11.093000411987305
6837.188310878884,1520819.0,0.008799999952316284,0.0002699999895412475,-0.0012700000079348683,10.947999954223633
6837.189310650807,1520820.0,0.010289999656379223,-0.003449999960139394,-0.003909999970346689,10.951000213623047
6837.19031042273,1520821.0,0.00965999998152256,0.003809999907389283,-0.0012700000079348683,10.968000411987305
6837.191310194653,1520822.0,0.008799999952316284,-0.00031999999191612005,-0.0030900000128895044,10.982000350952148
6837.1923099665755,1520823.0,0.010060000233352184,0.0030900000128895044,-0.001180000021122396,10.98900032043457
6837.193309738498,1520824.0,0.009700000286102295,0.003449999960139394,0.0024500000290572643,11.031999588012695
6837.194309510421,1520825.0,0.009519999846816063,0.0022299999836832285,-0.0007300000288523734,11.190999984741211
6837.195309282344,1520826.0,0.008270000107586384,-0.005090000107884407,0.0012700000079348683,11.050000190734863
6837.196309054267,1520827.0,0.007369999773800373,0.0012700000079348683,0.0013599999947473407,10.944999694824219
6837.197308826189,1520828.0,0.005840000230818987,-0.002319999970495701,0.003269999986514449,11.09000015258789
6837.198308598112,1520829.0,0.004040000028908253,0.0033199999015778303,0.0002699999895412475,11.09000015258789
6837.1993083700345,1520830.0,0.0017999999690800905,0.0033199999015778303,-0.0022700000554323196,11.114999771118164
6837.200308141958,1520831.0,0.0007200000109151006,-0.002090000081807375,-0.0015399999683722854,11.295000076293945
6837.201307913881,1520832.0,0.0009899999713525176,-0.0021800000686198473,-0.0033199999015778303,11.118000030517578
6837.202307685803,1520833.0,0.005119999870657921,0.0012700000079348683,0.005450000055134296,11.114999771118164
6837.203307457726,1520834.0,0.008799999952316284,0.0006399999838322401,-0.0022700000554323196,11.208000183105469
6837.204307229648,1520835.0,0.00930000003427267,0.004360000137239695,-0.0025400000158697367,11.194000244140625
6837.205307001572,1520836.0,0.009519999846816063,0.0019099999917671084,-0.0059899999760091305,11.194999694824219
6837.206306773494,1520837.0,0.00795000046491623,-0.003949999809265137,-0.000910000002477318,11.371000289916992
6837.207306545417,1520838.0,0.007189999800175428,0.0002699999895412475,0.0010900000343099236,11.237000465393066
6837.2083063173395,1520839.0,0.007009999826550484,-0.0010900000343099236,-0.004720000084489584,11.163000106811523
6837.209306089262,1520840.0,0.00773000018671155,0.0020000000949949026,-0.0027199999894946814,10.98799991607666
6837.210305861185,1520841.0,0.008089999668300152,0.0033599999733269215,-0.004629999864846468,11.017000198364258
6837.211305633108,1520842.0,0.008539999835193157,-0.0010400000028312206,-0.004089999943971634,11.138999938964844
6837.212305405031,1520843.0,0.009700000286102295,-0.0002699999895412475,-0.003539999946951866,11.420000076293945
6837.213305176953,1520844.0,0.009879999794065952,-0.0027199999894946814,0.000539999979082495,11.107999801635742
6837.214304948876,1520845.0,0.01051000040024519,0.003809999907389283,-0.003719999920576811,11.505000114440918
6837.2153047207985,1520846.0,0.010239999741315842,0.0006799999973736703,-0.00418000016361475,11.456000328063965
6837.216304492722,1520847.0,0.009970000013709068,-0.004000000189989805,-0.0016299999551847577,11.39799976348877
6837.217304264645,1520848.0,0.008799999952316284,-0.006630000192672014,-0.003539999946951866,11.388999938964844
6837.218304036567,1520849.0,0.00547999981790781,0.0012700000079348683,0.002589999930933118,11.395000457763672
6837.21930380849,1520850.0,0.0034099998883903027,0.0024500000290572643,-0.003539999946951866,11.428999900817871
6837.220303580412,1520851.0,0.0028800000436604023,-0.005179999861866236,0.00018000000272877514,11.432000160217285
6837.221303352335,1520852.0,0.0023399998899549246,-0.007670000195503235,-0.0011399999493733048,11.493000030517578
6837.222303124258,1520853.0,0.00279000005684793,-0.0020000000949949026,-0.0016299999551847577,11.54800033569336
6837.223302896181,1520854.0,0.001979999942705035,-9.000000136438757e-05,-0.006310000084340572,11.505000114440918
6837.2243026681035,1520855.0,0.0016199999954551458,-0.005309999920427799,0.002360000042244792,11.529999732971191
6837.225302440026,1520856.0,0.0018899999558925629,0.000539999979082495,0.003809999907389283,11.300999641418457
6837.226302211949,1520857.0,0.0027000000700354576,-0.0020000000949949026,-0.0002699999895412475,11.541999816894531
6837.227301983872,1520858.0,0.004720000084489584,0.005090000107884407,-0.000539999979082495,11.555000305175781
6837.228301755795,1520859.0,0.0088900001719594,0.002090000081807375,-0.000910000002477318,11.569000244140625
6837.229301527717,1520860.0,0.011189999990165234,0.002630000002682209,-0.005179999861866236,11.725000381469727
6837.23030129964,1520861.0,0.010599999688565731,-0.00535999983549118,0.00418000016361475,11.638999938964844
6837.2313010715625,1520862.0,0.010420000180602074,0.00418000016361475,0.0033199999015778303,11.743000030517578
6837.232300843486,1520863.0,0.010239999741315842,-0.00018000000272877514,0.0017300000181421638,11.557000160217285
6837.233300615409,1520864.0,0.010329999960958958,0.0019099999917671084,-0.000910000002477318,11.493000030517578
6837.234300387331,1520865.0,0.011950000189244747,-0.0024500000290572643,0.000539999979082495,11.493000030517578
6837.235300159254,1520866.0,0.01131999958306551,0.000910000002477318,-0.004900000058114529,11.64900016784668
6837.236299931176,1520867.0,0.010599999688565731,-0.0016299999551847577,0.0002699999895412475,11.737000465393066
6837.2372997031,1520868.0,0.009789999574422836,-0.000910000002477318,-0.004269999917596579,11.70300006866455
6837.238299475022,1520869.0,0.00773000018671155,0.0027199999894946814,0.0016799999866634607,11.883999824523926
6837.239299246945,1520870.0,0.006829999852925539,-0.00018000000272877514,0.0014100000262260437,11.895999908447266
6837.2402990188675,1520871.0,0.0071000000461936,-0.0016299999551847577,-0.000539999979082495,11.890000343322754
6837.24129879079,1520872.0,0.007009999826550484,-0.006130000110715628,-0.00018000000272877514,11.78600025177002
6837.242298562713,1520873.0,0.006779999937862158,0.0020000000949949026,-0.0021299999207258224,11.862000465393066
6837.243298334636,1520874.0,0.0071000000461936,-0.006039999891072512,0.006180000025779009,11.803999900817871
6837.244298106559,1520875.0,0.006779999937862158,-0.004089999943971634,-0.000539999979082495,11.890000343322754
6837.245297878481,1520876.0,0.008449999615550041,-0.004000000189989805,-0.0029100000392645597,11.902000427246094
6837.246297650404,1520877.0,0.009879999794065952,0.004040000028908253,-0.007449999917298555,11.876999855041504
6837.2472974223265,1520878.0,0.011459999717772007,-0.008310000412166119,-0.005539999809116125,11.835000038146973
6837.24829719425,1520879.0,0.011950000189244747,-0.000910000002477318,-0.00953999999910593,11.87399959564209
6837.249296966173,1520880.0,0.01131999958306551,0.0025400000158697367,-0.00031999999191612005,11.89900016784668
6837.250296738095,1520881.0,0.010060000233352184,0.0036299999337643385,0.0011399999493733048,11.890000343322754
6837.251296510018,1520882.0,0.008089999668300152,0.0024500000290572643,0.0030900000128895044,11.89900016784668
6837.25229628194,1520883.0,0.006380000151693821,-0.0027199999894946814,0.003590000094845891,11.968999862670898
6837.253296053864,1520884.0,0.004670000169426203,0.0028200000524520874,0.000539999979082495,11.937999725341797
6837.254295825786,1520885.0,0.0023399998899549246,-0.0083600003272295,-0.00018000000272877514,11.932000160217285
6837.255295597709,1520886.0,0.0014799999771639705,0.0011399999493733048,-0.00018000000272877514,11.972000122070312
6837.2562953696315,1520887.0,0.00044999999227002263,-0.0025400000158697367,-0.00031999999191612005,11.980999946594238
6837.257295141554,1520888.0,-0.00107999995816499,-0.006899999920278788,-0.00018000000272877514,11.975000381469727
6837.258294913478,1520889.0,-0.0011699999449774623,-0.0007300000288523734,0.00418000016361475,12.005999565124512
6837.2592946854,1520890.0,0.00018000000272877514,-0.0027199999894946814,-0.004360000137239695,12.02400016784668
6837.260294457323,1520891.0,0.0012600000482052565,0.003449999960139394,0.00571999978274107,12.053999900817871
6837.261294229245,1520892.0,0.0028800000436604023,-0.004540000110864639,-0.000539999979082495,12.041999816894531
6837.262294001168,1520893.0,0.004490000195801258,-0.0028200000524520874,-0.005539999809116125,12.067000389099121
6837.2632937730905,1520894.0,0.006060000043362379,0.004629999864846468,-0.0015399999683722854,12.079999923706055
6837.264293545014,1520895.0,0.006560000125318766,0.0031799999997019768,0.0006799999973736703,11.975000381469727
6837.265293316937,1520896.0,0.00674000009894371,-0.005090000107884407,-0.003000000026077032,12.267999649047852
6837.266293088859,1520897.0,0.007280000019818544,-0.0007300000288523734,0.0024999999441206455,12.133999824523926
6837.267292860782,1520898.0,0.007009999826550484,-0.0012700000079348683,-0.005590000189840794,12.335000038146973
6837.268292632704,1520899.0,0.006289999932050705,0.0030900000128895044,-0.0030900000128895044,12.347000122070312
6837.269292404628,1520900.0,0.007459999993443489,0.0009500000160187483,-0.00418000016361475,12.361000061035156
6837.27029217655,1520901.0,0.007009999826550484,-0.00044999999227002263,0.0016299999551847577,12.16100025177002
6837.271291948473,1520902.0,0.004540000110864639,-0.006310000084340572,-0.00571999978274107,12.36299991607666
6837.2722917203955,1520903.0,0.004129999782890081,0.003000000026077032,-0.0051299999468028545,12.194999694824219
6837.273291492318,1520904.0,0.005750000011175871,-0.000539999979082495,0.000910000002477318,12.35200023651123
6837.274291264241,1520905.0,0.0064199999906122684,0.004000000189989805,0.004410000052303076,12.28600025177002
6837.275291036164,1520906.0,0.006200000178068876,0.0051299999468028545,0.001180000021122396,12.270999908447266
6837.276290808087,1520907.0,0.005659999791532755,0.0010000000474974513,-0.006130000110715628,12.267999649047852
6837.277290580009,1520908.0,0.004360000137239695,-0.0027199999894946814,-0.0072200000286102295,12.298999786376953
6837.278290351932,1520909.0,0.001979999942705035,0.0016299999551847577,0.0010900000343099236,12.434000015258789
6837.2792901238545,1520910.0,-0.0021100000012665987,-0.004540000110864639,-0.001180000021122396,12.326000213623047
6837.280289895778,1520911.0,-0.004040000028908253,0.0036299999337643385,-0.003809999907389283,12.326000213623047
6837.281289667701,1520912.0,-0.0052999998442828655,0.003449999960139394,-0.0062699997797608376,12.335000038146973
6837.282289439623,1520913.0,-0.004310000222176313,-0.0021800000686198473,0.0031799999997019768,12.34000015258789
6837.283289211546,1520914.0,-0.004129999782890081,-9.000000136438757e-05,0.0010900000343099236,12.357000350952148
6837.284288983468,1520915.0,-0.005210000090301037,-0.007360000163316727,-0.004540000110864639,12.557999610900879
6837.285288755392,1520916.0,-0.007009999826550484,-0.004900000058114529,0.005270000081509352,12.45300006866455
6837.286288527314,1520917.0,-0.011049999855458736,-0.0059899999760091305,-0.00031999999191612005,12.395999908447266
6837.287288299237,1520918.0,-0.015629999339580536,-0.0012700000079348683,-0.005040000192821026,12.407999992370605
6837.2882880711595,1520919.0,-0.019680000841617584,-0.005450000055134296,0.002360000042244792,12.439000129699707
6837.289287843082,1520920.0,-0.02384999953210354,0.004540000110864639,-0.005179999861866236,12.42199993133545
6837.290287615006,1520921.0,-0.025110000744462013,9.000000136438757e-05,-0.004089999943971634,12.607000350952148
6837.291287386928,1520922.0,-0.026410000398755074,-0.006899999920278788,-0.0020000000949949026,12.668999671936035
6837.292287158851,1520923.0,-0.028209999203681946,-0.0020000000949949026,-0.0016299999551847577,12.682999610900879
6837.293286930773,1520924.0,-0.02928999997675419,0.0020000000949949026,-0.0059899999760091305,12.708000183105469
6837.294286702696,1520925.0,-0.029829999431967735,-0.004540000110864639,0.0019099999917671084,12.201000213623047
6837.2952864746185,1520926.0,-0.028839999809861183,-0.000539999979082495,-0.0005000000237487257,12.694999694824219
6837.296286246542,1520927.0,-0.028440000489354134,-0.0027199999894946814,-0.005590000189840794,12.539999961853027
6837.297286018465,1520928.0,-0.028529999777674675,0.0028200000524520874,-0.0016299999551847577,12.555000305175781
6837.298285790387,1520929.0,-0.029239999130368233,0.0030900000128895044,-0.005270000081509352,12.569999694824219
6837.29928556231,1520930.0,-0.03162999823689461,0.000539999979082495,-0.0010900000343099236,12.579000473022461
6837.300285334232,1520931.0,-0.03288000077009201,-0.0017300000181421638,-0.00535999983549118,12.468999862670898
6837.301285106156,1520932.0,-0.03288000077009201,-0.0022700000554323196,0.0010000000474974513,12.765999794006348
6837.302284878078,1520933.0,-0.03189999982714653,0.0010400000028312206,0.00018000000272877514,12.310999870300293
6837.303284650001,1520934.0,-0.030009999871253967,0.0031300000846385956,0.00031999999191612005,12.689000129699707
6837.3042844219235,1520935.0,-0.027489999309182167,-0.0022700000554323196,-0.0020000000949949026,12.668000221252441
6837.305284193846,1520936.0,-0.025699999183416367,-0.0016299999551847577,0.0012700000079348683,12.659000396728516
6837.306283965769,1520937.0,-0.025699999183416367,0.0010900000343099236,-0.005179999861866236,12.640000343322754
6837.307283737692,1520938.0,-0.027400000020861626,-0.00018000000272877514,-0.0027199999894946814,12.866000175476074
6837.308283509615,1520939.0,-0.028839999809861183,0.0029100000392645597,0.004449999891221523,12.402000427246094
6837.309283281537,1520940.0,-0.029510000720620155,0.002589999930933118,0.000539999979082495,12.42199993133545
6837.31028305346,1520941.0,-0.030009999871253967,0.0017300000181421638,0.0031799999997019768,12.420999526977539
6837.311282825383,1520942.0,-0.03432000055909157,-0.0003600000054575503,-0.0059899999760091305,12.72599983215332
6837.312282597306,1520943.0,-0.038359999656677246,-0.00418000016361475,0.0022299999836832285,12.729999542236328
6837.313282369229,1520944.0,-0.03971000015735626,-0.0029100000392645597,-0.00018000000272877514,12.86299991607666
6837.314282141151,1520945.0,-0.04205000028014183,0.0002699999895412475,-0.00044999999227002263,12.798999786376953
6837.315281913074,1520946.0,-0.043310001492500305,-0.006539999973028898,-0.001230000052601099,12.802000045776367
6837.316281684996,1520947.0,-0.04645000025629997,-0.005090000107884407,-0.00418000016361475,12.909000396728516
6837.31728145692,1520948.0,-0.053369998931884766,-0.005450000055134296,-0.003909999970346689,12.572999954223633
6837.318281228842,1520949.0,-0.06324999779462814,0.002360000042244792,-0.0024500000290572643,13.027999877929688
6837.319281000765,1520950.0,-0.07254999876022339,-0.0059899999760091305,0.001449999981559813,12.84000015258789
6837.3202807726875,1520951.0,-0.08014000207185745,-0.007040000054985285,-0.005590000189840794,12.984999656677246
6837.32128054461,1520952.0,-0.08507999777793884,-0.008539999835193157,-0.003269999986514449,13.024999618530273
6837.322280316534,1520953.0,-0.09029000252485275,0.003269999986514449,-0.0010900000343099236,13.043000221252441
6837.323280088456,1520954.0,-0.09397999942302704,-0.00418000016361475,0.0006799999973736703,12.902999877929688
6837.324279860379,1520955.0,-0.09307999908924103,0.00203999993391335,-0.001180000021122396,13.034000396728516
6837.325279632301,1520956.0,-0.087459996342659,-0.003449999960139394,-0.0012700000079348683,12.645999908447266
6837.326279404224,1520957.0,-0.08261000365018845,-0.005400000140070915,-0.007449999917298555,12.914999961853027
6837.3272791761465,1520958.0,-0.07897000014781952,0.004999999888241291,-0.002630000002682209,12.932999610900879
6837.32827894807,1520959.0,-0.07366999983787537,0.0010400000028312206,-0.005179999861866236,12.95300006866455
6837.3292787199925,1520960.0,-0.06459999829530716,-0.0033599999733269215,0.003809999907389283,13.152999877929688
6837.330278491915,1520961.0,-0.055080000311136246,-0.000539999979082495,0.0002699999895412475,12.97599983215332
6837.331278263838,1520962.0,-0.04428999871015549,0.0,-0.0036299999337643385,12.982000350952148
6837.33227803576,1520963.0,-0.03206999972462654,-0.0010000000474974513,-0.0051299999468028545,12.720000267028809
6837.333277807684,1520964.0,-0.018279999494552612,0.0015399999683722854,-0.0029100000392645597,12.677000045776367
6837.334277579606,1520965.0,-0.009789999574422836,0.0002699999895412475,-0.002360000042244792,12.848999977111816
6837.335277351529,1520966.0,-0.004129999782890081,0.002360000042244792,-0.000539999979082495,13.229000091552734
6837.3362771234515,1520967.0,0.002520000096410513,-0.003719999920576811,0.000539999979082495,13.036999702453613
6837.337276895374,1520968.0,0.009700000286102295,0.001820000004954636,-0.003449999960139394,12.923999786376953
6837.338276667298,1520969.0,0.0175199992954731,0.0059899999760091305,0.0025400000158697367,12.76200008392334
6837.33927643922,1520970.0,0.026680000126361847,0.0016299999551847577,0.004900000058114529,12.765999794006348
6837.340276211143,1520971.0,0.03584999963641167,0.0017300000181421638,0.002360000042244792,12.774999618530273
6837.341275983065,1520972.0,0.04473999887704849,0.0003600000054575503,-0.004720000084489584,13.262999534606934
6837.342275754988,1520973.0,0.050939999520778656,-0.004000000189989805,-0.005630000028759241,13.116000175476074
6837.343275526911,1520974.0,0.05310000106692314,0.004629999864846468,0.004000000189989805,13.116000175476074
6837.344275298834,1520975.0,0.05570000037550926,-0.0006799999973736703,0.002360000042244792,13.137999534606934
6837.3452750707565,1520976.0,0.06199000030755997,0.0021800000686198473,-0.000910000002477318,13.135000228881836
6837.346274842679,1520977.0,0.06711000204086304,-0.004809999838471413,-0.005090000107884407,12.84000015258789
6837.347274614602,1520978.0,0.07079999893903732,0.002360000042244792,0.0022299999836832285,13.305999755859375
6837.348274386524,1520979.0,0.07421000301837921,-0.004900000058114529,0.0002699999895412475,13.1899995803833
6837.349274158448,1520980.0,0.07686000317335129,0.0029100000392645597,-0.004679999779909849,13.20199966430664
6837.35027393037,1520981.0,0.07852999866008759,-0.001820000004954636,-0.0072200000286102295,13.177000045776367
6837.351273702293,1520982.0,0.07852999866008759,-0.003909999970346689,-0.00535999983549118,13.194000244140625
6837.3522734742155,1520983.0,0.0763700008392334,-0.000859999970998615,-0.000539999979082495,12.887999534606934
6837.353273246138,1520984.0,0.07026000320911407,-0.0020000000949949026,-0.000910000002477318,13.361000061035156
6837.354273018062,1520985.0,0.06486999988555908,-0.0010400000028312206,0.00018000000272877514,13.269000053405762
6837.355272789984,1520986.0,0.05934000015258789,0.0007300000288523734,0.00031999999191612005,13.22599983215332
6837.356272561907,1520987.0,0.05358999967575073,0.004720000084489584,0.001180000021122396,13.20300006866455
6837.357272333829,1520988.0,0.04910000041127205,-0.0008200000156648457,0.005810000002384186,13.097999572753906
6837.358272105752,1520989.0,0.04428999871015549,0.001449999981559813,-0.0013599999947473407,13.300000190734863
6837.3592718776745,1520990.0,0.038989998400211334,-0.003000000026077032,0.006630000192672014,13.300000190734863
6837.360271649598,1520991.0,0.036479998379945755,0.002360000042244792,0.001820000004954636,13.47700023651123
6837.3612714215205,1520992.0,0.03629999980330467,0.004360000137239695,-0.005630000028759241,13.300000190734863
6837.362271193443,1520993.0,0.03468000143766403,0.0006799999973736703,-0.011260000057518482,13.22599983215332
6837.363270965366,1520994.0,0.031539998948574066,-0.00014000000373926014,-0.009449999779462814,13.08899974822998
6837.364270737288,1520995.0,0.027130000293254852,0.002090000081807375,0.0002300000051036477,13.390999794006348
6837.365270509212,1520996.0,0.02353999949991703,-0.007079999893903732,0.0002699999895412475,13.057999610900879
6837.366270281134,1520997.0,0.02102000080049038,0.0059899999760091305,-0.004000000189989805,13.449000358581543
6837.367270053057,1520998.0,0.01899999938905239,0.004629999864846468,0.00031999999191612005,13.41100025177002
6837.3682698249795,1520999.0,0.015720000490546227,0.003539999946951866,0.0012700000079348683,13.390999794006348
6837.369269596902,1521000.0,0.012760000303387642,-0.00014000000373926014,0.005859999917447567,13.458000183105469
6837.370269368826,1521001.0,0.008449999615550041,0.0010900000343099236,-0.0051299999468028545,13.385000228881836
6837.371269140748,1521002.0,0.004269999917596579,-0.006680000107735395,0.0018599999602884054,13.630999565124512
6837.372268912671,1521003.0,0.003229999914765358,0.001230000052601099,-0.00041000000783242285,13.437000274658203
6837.373268684593,1521004.0,0.0048500001430511475,0.001180000021122396,0.002950000111013651,13.593999862670898
6837.374268456516,1521005.0,0.006380000151693821,-0.004769999999552965,0.0027199999894946814,13.647000312805176
6837.375268228439,1521006.0,0.006649999879300594,-0.007079999893903732,0.003449999960139394,13.54800033569336
6837.376268000362,1521007.0,0.005210000090301037,-0.002630000002682209,-0.0027699999045580626,13.463000297546387
6837.3772677722845,1521008.0,0.005570000037550926,0.0012700000079348683,-0.0007699999841861427,13.4399995803833
6837.378267544207,1521009.0,0.007550000213086605,-0.004360000137239695,-0.0012700000079348683,13.678000450134277
6837.37926731613,1521010.0,0.005619999952614307,-0.003719999920576811,0.004999999888241291,13.699000358581543
6837.380267088052,1521011.0,0.0037700000684708357,0.001500000013038516,-0.000910000002477318,13.71500015258789
6837.381266859976,1521012.0,0.003100000089034438,0.004089999943971634,-0.0010900000343099236,13.72700023651123
6837.382266631898,1521013.0,0.00279000005684793,-0.0016299999551847577,0.004089999943971634,13.595999717712402
6837.383266403821,1521014.0,0.0012600000482052565,0.0029100000392645597,-0.003809999907389283,13.71500015258789
6837.3842661757435,1521015.0,-0.0008099999977275729,-0.0012700000079348683,0.001449999981559813,13.53499984741211
6837.385265947666,1521016.0,-0.0014400000218302011,0.000910000002477318,-0.0024500000290572643,13.545000076293945
6837.38626571959,1521017.0,0.0006300000241026282,0.0012700000079348683,-0.002360000042244792,13.555999755859375
6837.387265491512,1521018.0,0.0008999999845400453,0.00018000000272877514,-0.006899999920278788,13.567999839782715
6837.388265263435,1521019.0,-0.0012100000167265534,-0.005590000189840794,0.000910000002477318,13.597000122070312
6837.389265035357,1521020.0,-0.002520000096410513,0.000910000002477318,-0.0007699999841861427,13.770000457763672
6837.39026480728,1521021.0,-0.0008999999845400453,-0.0013599999947473407,-0.004040000028908253,13.51200008392334
6837.391264579203,1521022.0,0.0020699999295175076,0.0021299999207258224,-0.0027199999894946814,13.555999755859375
6837.392264351126,1521023.0,0.004040000028908253,0.002360000042244792,-0.004900000058114529,13.531000137329102
6837.3932641230485,1521024.0,0.004129999782890081,0.000539999979082495,-0.004449999891221523,13.286999702453613
6837.394263894971,1521025.0,0.004490000195801258,0.001820000004954636,-0.00018000000272877514,13.84000015258789
6837.395263666894,1521026.0,0.003860000055283308,-0.00418000016361475,0.001449999981559813,13.666000366210938
6837.396263438817,1521027.0,0.0023399998899549246,0.0010000000474974513,-0.007400000002235174,13.866000175476074
6837.39726321074,1521028.0,0.00215999991632998,-0.003449999960139394,-0.004809999838471413,13.866999626159668
6837.398262982662,1521029.0,0.0016199999954551458,-0.002859999891370535,0.001449999981559813,13.869000434875488
6837.399262754585,1521030.0,0.0002699999895412475,-0.002090000081807375,-0.0010900000343099236,13.640999794006348
6837.4002625265075,1521031.0,-0.00018000000272877514,0.0029100000392645597,-0.006719999946653843,13.746999740600586
6837.40126229843,1521032.0,-0.0030499999411404133,-0.007720000110566616,-0.0020000000949949026,13.385000228881836
6837.402262070354,1521033.0,-0.004129999782890081,-0.003539999946951866,-0.005090000107884407,13.706999778747559
6837.403261842276,1521034.0,-0.004490000195801258,-0.0020000000949949026,-0.0033599999733269215,13.72700023651123
6837.404261614199,1521035.0,-0.00646999990567565,4.999999873689376e-05,-0.004410000052303076,13.708000183105469
6837.405261386121,1521036.0,-0.008270000107586384,-0.002090000081807375,0.0016299999551847577,13.923999786376953
6837.406261158044,1521037.0,-0.009879999794065952,-0.0006799999973736703,-0.002360000042244792,13.72700023651123
6837.407260929967,1521038.0,-0.010599999688565731,-0.00018000000272877514,-0.002630000002682209,13.729999542236328
6837.40826070189,1521039.0,-0.009479999542236328,-0.003909999970346689,-0.004900000058114529,13.428999900817871
6837.4092604738125,1521040.0,-0.00773000018671155,0.003809999907389283,-0.005090000107884407,13.510000228881836
6837.410260245735,1521041.0,-0.005929999984800816,0.003590000094845891,0.001449999981559813,13.487000465393066
6837.411260017658,1521042.0,-0.0036800000816583633,0.000910000002477318,-0.000539999979082495,13.90999984741211
6837.41225978958,1521043.0,-0.0015300000086426735,-0.004629999864846468,0.0016299999551847577,13.800000190734863
6837.413259561504,1521044.0,0.0017999999690800905,0.002859999891370535,0.0020000000949949026,13.800000190734863
6837.414259333426,1521045.0,0.0048500001430511475,0.0010900000343099236,0.004540000110864639,13.647000312805176
6837.415259105349,1521046.0,0.006920000072568655,0.000539999979082495,0.0022299999836832285,13.86400032043457
6837.4162588772715,1521047.0,0.009209999814629555,0.0028200000524520874,0.0031799999997019768,13.873000144958496
6837.417258649194,1521048.0,0.010239999741315842,-0.001820000004954636,-0.002360000042244792,14.031999588012695
6837.418258421118,1521049.0,0.009970000013709068,0.000910000002477318,-0.005090000107884407,13.79699993133545
6837.41925819304,1521050.0,0.009069999679923058,0.0029100000392645597,0.000910000002477318,13.831000328063965
6837.420257964963,1521051.0,0.007369999773800373,0.002360000042244792,-0.0024999999441206455,13.8149995803833
6837.421257736885,1521052.0,0.007550000213086605,-0.004720000084489584,-0.004769999999552965,13.85200023651123
6837.422257508808,1521053.0,0.010329999960958958,-0.00535999983549118,-0.0030900000128895044,13.916000366210938
6837.423257280731,1521054.0,0.011769999749958515,0.004000000189989805,0.003449999960139394,13.86400032043457
6837.424257052654,1521055.0,0.012849999591708183,-0.004410000052303076,-0.000539999979082495,13.519000053405762
6837.4252568245765,1521056.0,0.013570000417530537,-0.004360000137239695,-0.0059899999760091305,14.020000457763672
6837.426256596499,1521057.0,0.013659999705851078,-0.0030900000128895044,-0.004900000058114529,14.043999671936035
6837.427256368422,1521058.0,0.013389999978244305,0.000539999979082495,0.0008200000156648457,14.069000244140625
6837.428256140345,1521059.0,0.011680000461637974,0.0025400000158697367,0.0013599999947473407,14.074999809265137
6837.429255912268,1521060.0,0.00925000011920929,-0.0036800000816583633,-0.003269999986514449,13.92199993133545
6837.43025568419,1521061.0,0.0071000000461936,0.0030900000128895044,0.003809999907389283,13.97700023651123
6837.431255456113,1521062.0,0.00215999991632998,-0.0036800000816583633,-0.005309999920427799,13.885000228881836
6837.4322552280355,1521063.0,-0.00215999991632998,0.005040000192821026,0.000539999979082495,13.89799976348877
6837.433254999958,1521064.0,-0.002469999948516488,0.0024999999441206455,0.0006799999973736703,13.892999649047852
6837.434254771882,1521065.0,-0.0023399998899549246,-0.0027199999894946814,-0.001500000013038516,14.043999671936035
6837.435254543804,1521066.0,-0.0022499999031424522,0.003449999960139394,-0.0030400000978261232,13.979999542236328
6837.436254315727,1521067.0,-0.0024300001095980406,-0.005630000028759241,-0.003809999907389283,14.093000411987305
6837.437254087649,1521068.0,-0.0016199999954551458,-0.002360000042244792,-0.000910000002477318,13.986000061035156
6837.438253859572,1521069.0,0.0006300000241026282,-0.006719999946653843,0.004040000028908253,13.98900032043457
6837.439253631495,1521070.0,0.00018000000272877514,-0.0014100000262260437,0.0030900000128895044,13.98799991607666
6837.440253403418,1521071.0,-9.000000136438757e-05,-0.0030900000128895044,-0.0027199999894946814,13.970999717712402
6837.4412531753405,1521072.0,-0.0007200000109151006,0.000539999979082495,0.005630000028759241,13.885000228881836
6837.442252947263,1521073.0,-0.0012600000482052565,0.003539999946951866,-0.006719999946653843,14.166000366210938
6837.443252719186,1521074.0,-0.0023399998899549246,-0.005090000107884407,0.0063599999994039536,13.901000022888184
6837.444252491108,1521075.0,-0.000539999979082495,-0.0003600000054575503,0.003449999960139394,13.925000190734863
6837.445252263032,1521076.0,0.0023399998899549246,0.0010000000474974513,0.0007300000288523734,13.928000450134277
6837.446252034954,1521077.0,0.0021100000012665987,0.00571999978274107,-0.004900000058114529,13.958999633789062
6837.447251806877,1521078.0,0.002199999988079071,-0.005450000055134296,-0.0014100000262260437,13.958999633789062
6837.4482515787995,1521079.0,0.0012600000482052565,0.0006399999838322401,4.999999873689376e-05,14.20300006866455
6837.449251350722,1521080.0,-0.00018000000272877514,0.0006799999973736703,-0.004900000058114529,13.925000190734863
6837.450251122646,1521081.0,0.0015300000086426735,0.001449999981559813,-0.005270000081509352,13.762999534606934
6837.451250894568,1521082.0,0.003860000055283308,-0.003269999986514449,-0.007809999864548445,13.647000312805176
6837.452250666491,1521083.0,0.0052999998442828655,0.0012700000079348683,0.0036299999337643385,14.180000305175781
6837.453250438413,1521084.0,0.006649999879300594,-0.0030900000128895044,0.0027699999045580626,14.065999984741211
6837.454250210336,1521085.0,0.006020000204443932,0.004900000058114529,-0.004720000084489584,14.050000190734863
6837.455249982259,1521086.0,0.004670000169426203,0.0019099999917671084,-0.0003600000054575503,13.71500015258789
6837.456249754182,1521087.0,0.0031399999279528856,0.0018599999602884054,0.0033199999015778303,13.762999534606934
6837.4572495261045,1521088.0,0.001120000029914081,-9.000000136438757e-05,0.0031799999997019768,13.75100040435791
6837.458249298027,1521089.0,0.0008999999845400453,0.004720000084489584,-0.0036299999337643385,14.13599967956543
6837.45924906995,1521090.0,0.0014400000218302011,-0.004860000219196081,-0.0012700000079348683,13.718000411987305
6837.460248841873,1521091.0,0.00279000005684793,0.002360000042244792,0.005630000028759241,14.239999771118164
6837.461248613796,1521092.0,0.0030499999411404133,0.004540000110864639,-0.0015399999683722854,14.15999984741211
6837.462248385718,1521093.0,0.0030499999411404133,0.000910000002477318,-0.004000000189989805,14.15999984741211
6837.463248157641,1521094.0,0.0017999999690800905,-0.0010900000343099236,-0.005090000107884407,14.21500015258789
6837.4642479295635,1521095.0,0.0014400000218302011,0.004000000189989805,0.001449999981559813,14.039999961853027
6837.465247701486,1521096.0,-0.0003600000054575503,-0.005630000028759241,-0.0020000000949949026,14.069000244140625
6837.46624747341,1521097.0,-0.0007200000109151006,0.0021800000686198473,-0.008539999835193157,14.069000244140625
6837.467247245332,1521098.0,-0.00107999995816499,0.005859999917447567,-0.003449999960139394,14.104999542236328
6837.468247017255,1521099.0,-0.0017999999690800905,0.0010000000474974513,-0.0020000000949949026,14.178000450134277
6837.469246789177,1521100.0,-0.0009899999713525176,-0.002360000042244792,0.002090000081807375,14.190999984741211
6837.4702465611,1521101.0,-0.0008099999977275729,0.0062699997797608376,-0.004720000084489584,13.729999542236328
6837.471246333023,1521102.0,-0.0012600000482052565,-0.004040000028908253,0.0016299999551847577,14.251999855041504
6837.472246104946,1521103.0,-0.0008999999845400453,0.004540000110864639,-0.004269999917596579,14.059000015258789
6837.4732458768685,1521104.0,0.0013899999903514981,0.00018000000272877514,0.00018000000272877514,14.062000274658203
6837.474245648791,1521105.0,0.003229999914765358,0.000910000002477318,0.0028200000524520874,14.074999809265137
6837.475245420714,1521106.0,0.005210000090301037,-0.0024500000290572643,0.0007300000288523734,14.159000396728516
6837.476245192637,1521107.0,0.005570000037550926,-0.0006799999973736703,0.0019099999917671084,14.12399959564209
6837.47724496456,1521108.0,0.005260000005364418,-0.005179999861866236,-0.004540000110864639,14.161999702453613
6837.478244736482,1521109.0,0.004220000002533197,0.003809999907389283,0.00418000016361475,14.104999542236328
6837.479244508405,1521110.0,0.0030499999411404133,-9.000000136438757e-05,-0.001180000021122396,14.081000328063965
6837.4802442803275,1521111.0,0.004129999782890081,-0.005900000222027302,-0.007449999917298555,14.095000267028809
6837.481244052251,1521112.0,0.005210000090301037,0.0029100000392645597,-0.0076299998909235,14.312999725341797
6837.482243824174,1521113.0,0.004490000195801258,-0.0019099999917671084,-0.003909999970346689,14.076000213623047
6837.483243596096,1521114.0,0.003590000094845891,-9.000000136438757e-05,0.006810000166296959,13.96500015258789
6837.484243368019,1521115.0,0.00215999991632998,0.0059899999760091305,-0.0033199999015778303,14.166000366210938
6837.485243139941,1521116.0,0.0017999999690800905,-0.000910000002477318,-0.003909999970346689,14.168999671936035
6837.486242911864,1521117.0,0.00018000000272877514,-0.003909999970346689,-0.00018000000272877514,14.166000366210938
6837.487242683787,1521118.0,-0.00018000000272877514,0.0003600000054575503,0.007079999893903732,14.194000244140625
6837.48824245571,1521119.0,0.0016199999954551458,-0.00018000000272877514,-0.0021299999207258224,14.130000114440918
6837.4892422276325,1521120.0,0.0030499999411404133,0.0016299999551847577,-0.003000000026077032,14.008000373840332
6837.490241999555,1521121.0,0.0017999999690800905,-0.000539999979082495,-0.0019099999917671084,14.107999801635742
6837.491241771478,1521122.0,0.00044999999227002263,-0.0036299999337643385,-0.003449999960139394,14.121999740600586
6837.492241543401,1521123.0,0.0002699999895412475,-0.007079999893903732,-0.0052200001664459705,14.109999656677246
6837.493241315324,1521124.0,0.0008999999845400453,-0.006490000057965517,0.002090000081807375,14.32800006866455
6837.494241087246,1521125.0,0.0012600000482052565,0.003449999960139394,-0.0007300000288523734,14.095999717712402
6837.495240859169,1521126.0,0.0023399998899549246,-0.0033599999733269215,-0.0062699997797608376,14.197999954223633
6837.4962406310915,1521127.0,0.0034600000362843275,-0.005090000107884407,0.0031300000846385956,14.043999671936035
6837.497240403014,1521128.0,0.0035000001080334187,-0.003909999970346689,0.000910000002477318,14.043999671936035
6837.498240174938,1521129.0,0.0036800000816583633,0.0012700000079348683,0.0030900000128895044,13.920999526977539
6837.49923994686,1521130.0,0.004129999782890081,-0.0029100000392645597,-0.005400000140070915,14.276000022888184
6837.500239718783,1521131.0,0.0035500000230968,0.0017300000181421638,0.0006799999973736703,13.788000106811523
6837.501239490705,1521132.0,0.0020699999295175076,-0.007079999893903732,0.0012700000079348683,14.307999610900879
6837.502239262628,1521133.0,-0.00018000000272877514,-0.007079999893903732,0.005040000192821026,14.22700023651123
6837.503239034551,1521134.0,-0.0018899999558925629,-0.0027199999894946814,0.002090000081807375,14.154000282287598
6837.504238806474,1521135.0,0.0012600000482052565,0.004040000028908253,9.000000136438757e-05,14.178000450134277
6837.5052385783965,1521136.0,0.007590000052005053,-0.0020000000949949026,-0.000910000002477318,14.142000198364258
6837.506238350319,1521137.0,0.012889999896287918,0.003909999970346689,-0.003719999920576811,14.00100040435791
6837.507238122242,1521138.0,0.014820000156760216,-0.004449999891221523,-0.00418000016361475,14.331000328063965
6837.508237894165,1521139.0,0.01607999950647354,-0.005810000002384186,-0.007449999917298555,14.329999923706055
6837.509237666088,1521140.0,0.014469999819993973,-0.002950000111013651,-0.0083600003272295,14.324999809265137
6837.51023743801,1521141.0,0.010739999823272228,-0.0007699999841861427,-0.005630000028759241,14.324999809265137
6837.511237209933,1521142.0,0.008089999668300152,-0.004540000110864639,-0.0020000000949949026,14.142000198364258
6837.5122369818555,1521143.0,0.004939999897032976,0.002409999957308173,0.003269999986514449,14.154000282287598
6837.513236753779,1521144.0,0.0020699999295175076,-0.0062699997797608376,-0.0030900000128895044,14.116999626159668
6837.514236525702,1521145.0,-0.00215999991632998,-0.001500000013038516,-0.005450000055134296,14.116999626159668
6837.515236297624,1521146.0,-0.0034099998883903027,0.007809999864548445,-0.0015399999683722854,14.126999855041504
6837.516236069547,1521147.0,-0.003949999809265137,0.0010900000343099236,-0.002630000002682209,14.111000061035156
6837.517235841469,1521148.0,-0.0031399999279528856,-0.004040000028908253,-0.004360000137239695,14.11299991607666
6837.518235613392,1521149.0,0.0009899999713525176,0.0002699999895412475,0.008220000192523003,14.229000091552734
6837.519235385315,1521150.0,0.004670000169426203,0.002630000002682209,-0.0019099999917671084,14.081000328063965
6837.520235157238,1521151.0,0.006829999852925539,4.999999873689376e-05,-0.004089999943971634,14.081000328063965
6837.5212349291605,1521152.0,0.008449999615550041,-0.006219999864697456,-0.004000000189989805,14.104999542236328
6837.522234701083,1521153.0,0.010239999741315842,-0.00014000000373926014,0.0020000000949949026,13.800000190734863
6837.523234473006,1521154.0,0.013120000250637531,-0.0024500000290572643,-0.004540000110864639,14.263999938964844
6837.524234244929,1521155.0,0.015180000104010105,-0.0020000000949949026,-0.005450000055134296,14.126999855041504
6837.525234016852,1521156.0,0.015629999339580536,0.004629999864846468,0.00041000000783242285,14.263999938964844
6837.526233788774,1521157.0,0.014910000376403332,0.002090000081807375,0.0027199999894946814,14.229999542236328
6837.527233560697,1521158.0,0.011769999749958515,-0.003449999960139394,-9.000000136438757e-05,14.156999588012695
6837.5282333326195,1521159.0,0.009519999846816063,-0.001180000021122396,-0.0033599999733269215,13.776000022888184
6837.529233104543,1521160.0,0.008630000054836273,0.0003600000054575503,0.0010900000343099236,14.288000106811523
6837.530232876466,1521161.0,0.008630000054836273,-0.0018599999602884054,-0.0015899999998509884,14.130999565124512
6837.531232648388,1521162.0,0.00547999981790781,0.0,0.0031300000846385956,14.331000328063965
6837.532232420311,1521163.0,0.0016199999954551458,-0.004999999888241291,0.004449999891221523,14.307000160217285
6837.533232192233,1521164.0,-0.00215999991632998,-0.004900000058114529,-0.004089999943971634,14.32800006866455
6837.534231964157,1521165.0,-0.0028800000436604023,-0.000539999979082495,-0.002360000042244792,13.994999885559082
6837.535231736079,1521166.0,-0.0025599999353289604,-0.0016299999551847577,-0.0019099999917671084,14.315999984741211
6837.536231508002,1521167.0,-0.003229999914765358,0.005270000081509352,0.001180000021122396,14.116999626159668
6837.5372312799245,1521168.0,-0.004129999782890081,-0.0006399999838322401,-0.004449999891221523,14.161999702453613
6837.538231051847,1521169.0,-0.00547999981790781,0.0016799999866634607,-0.0021800000686198473,14.175000190734863
6837.53923082377,1521170.0,-0.00610999995842576,-0.003449999960139394,-0.002360000042244792,14.206000328063965
6837.540230595693,1521171.0,-0.00610999995842576,0.0029100000392645597,-0.00418000016361475,13.92199993133545
6837.541230367616,1521172.0,-0.008089999668300152,-0.008170000277459621,0.0021800000686198473,14.22700023651123
6837.542230139538,1521173.0,-0.009159999899566174,0.0013599999947473407,-0.00018000000272877514,14.130000114440918
6837.543229911461,1521174.0,-0.010780000127851963,0.002360000042244792,0.0036299999337643385,14.303999900817871
6837.5442296833835,1521175.0,-0.012670000083744526,-0.0006799999973736703,0.005630000028759241,14.288000106811523
6837.545229455307,1521176.0,-0.01348000019788742,-0.005090000107884407,0.0015399999683722854,14.276000022888184
6837.54622922723,1521177.0,-0.011859999969601631,0.005270000081509352,-0.0008200000156648457,14.10200023651123
6837.547228999152,1521178.0,-0.010420000180602074,-0.004999999888241291,-0.003000000026077032,14.086999893188477
6837.548228771075,1521179.0,-0.009429999627172947,0.0021800000686198473,0.003809999907389283,14.13700008392334
6837.549228542997,1521180.0,-0.009879999794065952,0.000910000002477318,-0.0029100000392645597,14.20300006866455
6837.55022831492,1521181.0,-0.008449999615550041,-0.001820000004954636,-0.005090000107884407,14.182999610900879
6837.551228086843,1521182.0,-0.006829999852925539,-0.006719999946653843,-0.004720000084489584,14.133999824523926
6837.552227858766,1521183.0,-0.003590000094845891,0.0016299999551847577,0.000539999979082495,13.946999549865723
6837.5532276306885,1521184.0,-0.00018000000272877514,-0.006719999946653843,0.0020000000949949026,14.258999824523926
6837.554227402611,1521185.0,0.002199999988079071,-0.003000000026077032,-0.003590000094845891,13.817999839782715
6837.555227174534,1521186.0,0.003590000094845891,-0.002360000042244792,-0.003449999960139394,13.901000022888184
6837.556226946457,1521187.0,0.0028800000436604023,-0.0024500000290572643,-0.003449999960139394,13.878999710083008
6837.55722671838,1521188.0,0.0030499999411404133,0.0016299999551847577,0.0020000000949949026,13.781999588012695
6837.558226490302,1521189.0,0.003860000055283308,-0.005590000189840794,-0.0063599999994039536,14.255000114440918
6837.559226262225,1521190.0,0.0030499999411404133,0.0031799999997019768,-0.001449999981559813,14.043999671936035
6837.5602260341475,1521191.0,0.0015300000086426735,-0.00418000016361475,-9.000000136438757e-05,14.111000061035156
6837.561225806071,1521192.0,-0.0008099999977275729,-0.00418000016361475,0.0016299999551847577,14.031999588012695
6837.562225577994,1521193.0,-0.0017999999690800905,0.0035000001080334187,0.0016799999866634607,14.031999588012695
6837.563225349916,1521194.0,-0.0003600000054575503,0.0031799999997019768,0.0016799999866634607,13.791000366210938
6837.564225121839,1521195.0,0.0023399998899549246,0.00018000000272877514,0.0013599999947473407,14.246000289916992
6837.565224893761,1521196.0,0.004939999897032976,0.00571999978274107,-0.0019099999917671084,14.055999755859375
6837.566224665685,1521197.0,0.007550000213086605,-0.001449999981559813,0.002360000042244792,14.208999633789062
6837.567224437607,1521198.0,0.010239999741315842,-0.002630000002682209,0.004540000110864639,14.190999984741211
6837.56822420953,1521199.0,0.011680000461637974,0.0003600000054575503,0.0035000001080334187,14.156999588012695
6837.5692239814525,1521200.0,0.012040000408887863,0.0036299999337643385,-0.006630000192672014,14.13599967956543
6837.570223753375,1521201.0,0.011140000075101852,-0.005270000081509352,0.000539999979082495,14.043999671936035
6837.571223525298,1521202.0,0.010599999688565731,0.0027199999894946814,0.003269999986514449,13.836999893188477
6837.572223297221,1521203.0,0.010060000233352184,-0.0002699999895412475,-0.003000000026077032,14.02400016784668
6837.573223069144,1521204.0,0.010239999741315842,0.0029100000392645597,-0.006490000057965517,14.020000457763672
6837.574222841066,1521205.0,0.011680000461637974,0.003449999960139394,-0.004449999891221523,14.031999588012695
6837.575222612989,1521206.0,0.012040000408887863,0.002360000042244792,0.0024500000290572643,14.069000244140625
6837.5762223849115,1521207.0,0.010689999908208847,-0.002360000042244792,-0.005270000081509352,14.01099967956543
6837.577222156835,1521208.0,0.009159999899566174,0.000910000002477318,-0.0020000000949949026,13.982999801635742
6837.578221928758,1521209.0,0.009030000306665897,0.005040000192821026,-0.0025400000158697367,13.666000366210938
6837.57922170068,1521210.0,0.008630000054836273,0.0006799999973736703,-0.003539999946951866,13.666000366210938
6837.580221472603,1521211.0,0.010110000148415565,0.0012700000079348683,-0.001449999981559813,14.031999588012695
6837.581221244525,1521212.0,0.01051000040024519,0.005270000081509352,0.0010000000474974513,14.194999694824219
6837.582221016448,1521213.0,0.009340000338852406,-0.004310000222176313,0.000910000002477318,13.998000144958496
6837.583220788371,1521214.0,0.010239999741315842,0.004540000110864639,-0.0033599999733269215,13.925000190734863
6837.584220560294,1521215.0,0.01051000040024519,0.0003600000054575503,0.0010000000474974513,13.656999588012695
6837.5852203322165,1521216.0,0.010689999908208847,0.001769999973475933,-0.0013599999947473407,13.625
6837.586220104139,1521217.0,0.010239999741315842,0.0012700000079348683,0.0030900000128895044,14.020999908447266
6837.587219876062,1521218.0,0.009159999899566174,0.0,-0.002630000002682209,14.098999977111816
6837.588219647985,1521219.0,0.009159999899566174,0.000539999979082495,-0.001769999973475933,13.95300006866455
6837.589219419908,1521220.0,0.007910000160336494,-0.0021299999207258224,0.0014100000262260437,13.916000366210938
6837.59021919183,1521221.0,0.006560000125318766,0.0025400000158697367,0.002360000042244792,13.87600040435791
6837.591218963753,1521222.0,0.007369999773800373,0.0024500000290572643,0.003449999960139394,13.90999984741211
6837.5922187356755,1521223.0,0.006649999879300594,-0.002360000042244792,0.004809999838471413,13.934000015258789
6837.593218507599,1521224.0,0.007550000213086605,0.0027199999894946814,0.0020000000949949026,13.954000473022461
6837.594218279522,1521225.0,0.011500000022351742,-0.0028200000524520874,-0.004000000189989805,13.82800006866455
6837.595218051444,1521226.0,0.014820000156760216,0.0003600000054575503,0.0027199999894946814,14.10200023651123
6837.596217823367,1521227.0,0.015270000323653221,-0.00044999999227002263,0.0016799999866634607,14.020000457763672
6837.597217595289,1521228.0,0.014639999717473984,-0.0036299999337643385,0.0027199999894946814,13.928000450134277
6837.598217367213,1521229.0,0.01513999979943037,-0.001449999981559813,0.003449999960139394,13.970999717712402
6837.599217139135,1521230.0,0.014019999653100967,0.002360000042244792,0.0016299999551847577,13.651000022888184
6837.600216911058,1521231.0,0.014550000429153442,-0.00535999983549118,-0.004449999891221523,14.085000038146973
6837.6012166829805,1521232.0,0.016349999234080315,-0.000539999979082495,0.0016299999551847577,13.604999542236328
6837.602216454903,1521233.0,0.016939999535679817,-0.004360000137239695,-0.004449999891221523,13.704000473022461
6837.603216226826,1521234.0,0.014379999600350857,-0.005270000081509352,-0.00535999983549118,13.744000434875488
6837.604215998749,1521235.0,0.013249999843537807,-0.007269999943673611,-0.006719999946653843,13.904000282287598
6837.605215770672,1521236.0,0.013120000250637531,0.004540000110864639,-0.0020000000949949026,13.843000411987305
6837.606215542594,1521237.0,0.013299999758601189,-0.004900000058114529,0.0027199999894946814,14.031999588012695
6837.607215314517,1521238.0,0.011719999834895134,0.0028200000524520874,-0.000539999979082495,13.857000350952148
6837.6082150864395,1521239.0,0.008089999668300152,-0.00418000016361475,-0.0030900000128895044,13.824000358581543
6837.609214858363,1521240.0,0.00610999995842576,-0.005630000028759241,-0.001180000021122396,13.84000015258789
6837.610214630286,1521241.0,0.004220000002533197,-0.009259999729692936,0.0020000000949949026,13.555999755859375
6837.611214402208,1521242.0,0.0023399998899549246,0.002589999930933118,-0.004449999891221523,14.04699993133545
6837.612214174131,1521243.0,0.0014400000218302011,-0.005630000028759241,-0.003449999960139394,13.836999893188477
6837.613213946053,1521244.0,-0.00018000000272877514,-0.003719999920576811,-0.003539999946951866,14.039999961853027
6837.614213717977,1521245.0,0.0,-0.005630000028759241,-0.00571999978274107,14.008000373840332
6837.615213489899,1521246.0,0.0027000000700354576,-0.003220000071451068,-0.00018000000272877514,14.00100040435791
6837.616213261822,1521247.0,0.007189999800175428,-0.0008200000156648457,0.003590000094845891,13.776000022888184
6837.6172130337445,1521248.0,0.008799999952316284,0.002360000042244792,0.004900000058114529,14.013999938964844
6837.618212805667,1521249.0,0.009610000066459179,-0.0051299999468028545,-0.0027199999894946814,13.824000358581543
6837.619212577591,1521250.0,0.00925000011920929,-0.004360000137239695,-0.0022700000554323196,13.873000144958496
6837.620212349513,1521251.0,0.007369999773800373,-0.005179999861866236,0.000539999979082495,13.888999938964844
6837.621212121436,1521252.0,0.004670000169426203,-0.004129999782890081,0.0031799999997019768,13.937000274658203
6837.622211893358,1521253.0,0.004399999976158142,-0.00418000016361475,-0.003909999970346689,13.73900032043457
6837.623211665281,1521254.0,0.004490000195801258,0.002360000042244792,-0.001449999981559813,13.991000175476074
6837.6242114372035,1521255.0,0.005210000090301037,-0.004360000137239695,0.0013599999947473407,13.776000022888184
6837.625211209127,1521256.0,0.00547999981790781,-0.005179999861866236,0.000539999979082495,13.779999732971191
6837.62621098105,1521257.0,0.004310000222176313,-0.0010000000474974513,0.00686000008136034,13.779000282287598
6837.627210752972,1521258.0,0.0031399999279528856,0.003590000094845891,-0.0017300000181421638,13.776000022888184
6837.628210524895,1521259.0,0.000539999979082495,-0.007670000195503235,0.0012700000079348683,13.71500015258789
6837.629210296817,1521260.0,-0.0018400000408291817,0.0025400000158697367,-0.003220000071451068,13.916000366210938
6837.630210068741,1521261.0,-0.0030499999411404133,-0.0033599999733269215,0.0035000001080334187,13.800000190734863
6837.631209840663,1521262.0,-0.004129999782890081,0.0012700000079348683,-0.0016299999551847577,13.788000106811523
6837.632209612586,1521263.0,-0.001979999942705035,0.004269999917596579,-0.0027199999894946814,13.765999794006348
6837.6332093845085,1521264.0,0.00044999999227002263,-0.0016299999551847577,-0.005450000055134296,13.741999626159668
6837.634209156431,1521265.0,0.0024300001095980406,0.0013599999947473407,0.0007699999841861427,13.885000228881836
6837.635208928354,1521266.0,0.004490000195801258,-0.005630000028759241,-0.004040000028908253,13.718000411987305
6837.636208700277,1521267.0,0.004490000195801258,0.003809999907389283,-0.003909999970346689,13.72700023651123
6837.6372084722,1521268.0,0.0052999998442828655,0.0003600000054575503,-0.0031799999997019768,13.72700023651123
6837.638208244122,1521269.0,0.007009999826550484,-0.004809999838471413,-0.0062699997797608376,13.824000358581543
6837.639208016045,1521270.0,0.009610000066459179,-0.003449999960139394,0.000910000002477318,13.812000274658203
6837.6402077879675,1521271.0,0.01131999958306551,-0.0036800000816583633,-0.003809999907389283,13.6899995803833
6837.641207559891,1521272.0,0.009519999846816063,0.00571999978274107,0.0027199999894946814,13.654000282287598
6837.642207331814,1521273.0,0.005929999984800816,-0.002589999930933118,-0.0020000000949949026,13.663000106811523
6837.643207103736,1521274.0,0.004670000169426203,0.004900000058114529,-0.0027199999894946814,13.654000282287598
6837.644206875659,1521275.0,0.007009999826550484,-0.00018000000272877514,-0.006990000139921904,13.645999908447266
6837.645206647581,1521276.0,0.013120000250637531,-0.0062699997797608376,-0.002630000002682209,13.711999893188477
6837.646206419505,1521277.0,0.015270000323653221,0.004220000002533197,-0.006130000110715628,13.291999816894531
6837.647206191427,1521278.0,0.013299999758601189,-0.004900000058114529,-0.000539999979082495,13.788000106811523
6837.64820596335,1521279.0,0.011950000189244747,0.002630000002682209,0.000539999979082495,13.324000358581543
6837.6492057352725,1521280.0,0.011500000022351742,-0.0062699997797608376,0.000910000002477318,13.628999710083008
6837.650205507195,1521281.0,0.009970000013709068,-0.0028200000524520874,0.002589999930933118,13.65999984741211
6837.651205279119,1521282.0,0.008849999867379665,-0.0063599999994039536,0.001449999981559813,13.607999801635742
6837.652205051041,1521283.0,0.007009999826550484,0.0006799999973736703,-0.0029100000392645597,13.543999671936035
6837.653204822964,1521284.0,0.006380000151693821,0.0031300000846385956,-0.005630000028759241,13.762999534606934
6837.654204594886,1521285.0,0.004399999976158142,-0.004999999888241291,-0.00031999999191612005,13.572999954223633
6837.655204366809,1521286.0,0.0027000000700354576,-0.002630000002682209,-0.00041000000783242285,13.567999839782715
6837.6562041387315,1521287.0,0.0017999999690800905,0.004629999864846468,0.000910000002477318,13.531000137329102
6837.657203910655,1521288.0,9.000000136438757e-05,-0.0022299999836832285,-0.003719999920576811,13.557000160217285
6837.658203682578,1521289.0,-0.0011699999449774623,0.0020000000949949026,0.0,13.531000137329102
6837.6592034545,1521290.0,-0.002520000096410513,0.0002300000051036477,-0.004720000084489584,13.722000122070312
6837.660203226423,1521291.0,-0.001979999942705035,-0.005630000028759241,0.003590000094845891,13.527999877929688
6837.661202998345,1521292.0,-0.00044999999227002263,0.005539999809116125,0.003449999960139394,13.519000053405762
6837.662202770269,1521293.0,9.000000136438757e-05,0.0021800000686198473,0.0017300000181421638,13.506999969482422
6837.663202542191,1521294.0,0.0006699999794363976,-0.00031999999191612005,-0.0062699997797608376,13.519000053405762
6837.664202314114,1521295.0,0.0013500000350177288,-0.004310000222176313,-0.0021800000686198473,13.248000144958496
6837.6652020860365,1521296.0,0.0016599999507889152,0.000910000002477318,0.004540000110864639,13.694999694824219
6837.666201857959,1521297.0,0.0027000000700354576,0.0030900000128895044,0.0021800000686198473,13.531000137329102
6837.667201629882,1521298.0,0.003590000094845891,0.0027199999894946814,-0.001180000021122396,13.487000465393066
6837.668201401805,1521299.0,0.003229999914765358,0.0012700000079348683,-0.003809999907389283,13.470000267028809
6837.669201173728,1521300.0,0.000539999979082495,0.0029100000392645597,0.0020000000949949026,13.470000267028809
6837.67020094565,1521301.0,-0.0013899999903514981,-0.007670000195503235,-0.004360000137239695,13.425000190734863
6837.671200717573,1521302.0,-0.004399999976158142,0.000910000002477318,0.0003600000054575503,13.656999588012695
6837.672200489496,1521303.0,-0.006560000125318766,-0.00044999999227002263,-0.004000000189989805,13.616999626159668
6837.673200261419,1521304.0,-0.007369999773800373,-0.00418000016361475,-0.004540000110864639,13.532999992370605
6837.674200033342,1521305.0,-0.00773000018671155,-0.005770000163465738,-0.005630000028759241,13.473999977111816
6837.675199805264,1521306.0,-0.00773000018671155,-0.006630000192672014,0.002360000042244792,13.510000228881836
6837.676199577187,1521307.0,-0.009879999794065952,0.0002699999895412475,-0.0010400000028312206,13.08899974822998
6837.677199349109,1521308.0,-0.010689999908208847,-0.002950000111013651,-0.004540000110864639,13.567999839782715
6837.678199121033,1521309.0,-0.012040000408887863,-0.004410000052303076,-0.007579999975860119,13.586000442504883
6837.679198892955,1521310.0,-0.014639999717473984,0.003590000094845891,-0.0059899999760091305,13.593000411987305
6837.680198664878,1521311.0,-0.014109999872744083,0.002360000042244792,-0.0027199999894946814,13.571000099182129
6837.6811984368005,1521312.0,-0.009879999794065952,-0.007720000110566616,0.001449999981559813,13.380000114440918
6837.682198208723,1521313.0,-0.005119999870657921,-0.0010400000028312206,0.0017300000181421638,13.355999946594238
6837.683197980647,1521314.0,0.00215999991632998,0.003909999970346689,-0.003809999907389283,13.380000114440918
6837.684197752569,1521315.0,0.008089999668300152,-0.002360000042244792,-0.005450000055134296,13.347999572753906
6837.685197524492,1521316.0,0.0129399998113513,-0.005539999809116125,-0.0059899999760091305,13.342000007629395
6837.686197296414,1521317.0,0.01590000092983246,0.0011399999493733048,-0.0015399999683722854,13.380000114440918
6837.687197068337,1521318.0,0.016170000657439232,-0.000910000002477318,-0.000910000002477318,13.184000015258789
6837.6881968402595,1521319.0,0.014469999819993973,0.0003600000054575503,0.0,13.48900032043457
6837.689196612183,1521320.0,0.012400000356137753,0.0027199999894946814,-0.001820000004954636,13.312000274658203
6837.690196384106,1521321.0,0.008799999952316284,0.002360000042244792,-0.0036299999337643385,13.336000442504883
6837.691196156028,1521322.0,0.004040000028908253,-0.004900000058114529,-0.0027199999894946814,13.446000099182129
6837.692195927951,1521323.0,-0.0004900000058114529,-0.003449999960139394,-0.004000000189989805,13.277000427246094
6837.693195699873,1521324.0,-0.0030499999411404133,0.0018599999602884054,-0.0012700000079348683,13.399999618530273
6837.694195471797,1521325.0,-0.0022499999031424522,-0.004449999891221523,0.000910000002477318,13.342000007629395
6837.695195243719,1521326.0,0.0008999999845400453,-9.000000136438757e-05,-0.005630000028759241,13.35099983215332
6837.696195015642,1521327.0,0.0023399998899549246,-0.003809999907389283,-0.0062699997797608376,13.288999557495117
6837.6971947875645,1521328.0,0.003590000094845891,-0.0059899999760091305,-0.0030900000128895044,13.269000053405762
6837.698194559487,1521329.0,0.004490000195801258,-0.001769999973475933,0.0010900000343099236,13.425000190734863
6837.699194331411,1521330.0,0.005210000090301037,0.007899999618530273,-0.004540000110864639,13.255000114440918
6837.700194103333,1521331.0,0.008270000107586384,-0.0059899999760091305,-0.0006799999973736703,13.376999855041504
6837.701193875256,1521332.0,0.012040000408887863,-0.003000000026077032,-0.003000000026077032,13.019000053405762
6837.702193647178,1521333.0,0.011769999749958515,-0.006810000166296959,-0.005270000081509352,13.187000274658203
6837.703193419101,1521334.0,0.008799999952316284,0.0030900000128895044,-0.000539999979082495,13.144000053405762
6837.704193191024,1521335.0,0.005210000090301037,-0.004360000137239695,0.0027199999894946814,13.21399974822998
6837.705192962947,1521336.0,0.0017999999690800905,-0.0016299999551847577,0.0010900000343099236,13.034000396728516
6837.70619273487,1521337.0,0.0012600000482052565,0.0024500000290572643,-0.003590000094845891,13.37399959564209
6837.707192506792,1521338.0,0.0030499999411404133,-0.0014100000262260437,0.0019099999917671084,13.232000350952148
6837.708192278715,1521339.0,0.0048500001430511475,0.0010400000028312206,0.003000000026077032,13.244999885559082
6837.709192050637,1521340.0,0.005570000037550926,0.002589999930933118,0.0009500000160187483,13.269000053405762
6837.710191822561,1521341.0,0.005750000011175871,-0.004540000110864639,-0.004999999888241291,13.21399974822998
6837.711191594483,1521342.0,0.004579999949783087,-0.005630000028759241,0.002360000042244792,13.300000190734863
6837.712191366406,1521343.0,0.0031399999279528856,0.0003600000054575503,-0.0063599999994039536,13.140999794006348
6837.7131911383285,1521344.0,0.003229999914765358,0.004360000137239695,0.0009500000160187483,13.220000267028809
6837.714190910251,1521345.0,0.0016199999954551458,0.005270000081509352,0.0012700000079348683,13.217000007629395
6837.715190682175,1521346.0,-0.0016199999954551458,0.004900000058114529,0.0024500000290572643,13.140999794006348
6837.716190454097,1521347.0,-0.003909999970346689,0.004089999943971634,-0.0029100000392645597,13.071000099182129
6837.71719022602,1521348.0,-0.007009999826550484,-0.005590000189840794,-0.0016299999551847577,13.300000190734863
6837.718189997942,1521349.0,-0.009879999794065952,0.003449999960139394,-0.0008200000156648457,13.086000442504883
6837.719189769865,1521350.0,-0.012310000136494637,0.0017300000181421638,0.003809999907389283,13.067999839782715
6837.7201895417875,1521351.0,-0.015629999339580536,-0.0029100000392645597,0.0020000000949949026,13.057999610900879
6837.721189313711,1521352.0,-0.017069999128580093,-0.0033599999733269215,-0.0006399999838322401,13.043000221252441
6837.7221890856335,1521353.0,-0.01513999979943037,-0.00044999999227002263,0.004540000110864639,13.043000221252441
6837.723188857556,1521354.0,-0.012760000303387642,-0.0064500002190470695,-0.005590000189840794,13.152999877929688
6837.724188629479,1521355.0,-0.010420000180602074,0.000539999979082495,-0.004999999888241291,12.798999786376953
6837.725188401401,1521356.0,-0.008539999835193157,-0.0021800000686198473,-0.007079999893903732,12.847999572753906
6837.726188173325,1521357.0,-0.003949999809265137,-0.004629999864846468,-0.006089999806135893,12.946000099182129
6837.727187945247,1521358.0,0.0030499999411404133,-0.0063599999994039536,-0.006899999920278788,12.729000091552734
6837.72818771717,1521359.0,0.007230000104755163,0.00418000016361475,-0.0027199999894946814,13.156000137329102
6837.7291874890925,1521360.0,0.007459999993443489,-0.004720000084489584,0.004540000110864639,12.996999740600586
6837.730187261015,1521361.0,0.007369999773800373,0.0025400000158697367,-0.002950000111013651,12.958999633789062
6837.731187032939,1521362.0,0.007369999773800373,-0.00018000000272877514,-0.001180000021122396,12.970000267028809
6837.732186804861,1521363.0,0.007819999940693378,-0.0030900000128895044,0.0002699999895412475,12.918000221252441
6837.733186576784,1521364.0,0.00610999995842576,-0.0019499999471008778,0.001449999981559813,12.753000259399414
6837.734186348706,1521365.0,0.004490000195801258,0.002360000042244792,0.0014100000262260437,13.062000274658203
6837.735186120629,1521366.0,0.0037700000684708357,-0.004089999943971634,-0.005040000192821026,12.932999610900879
6837.736185892552,1521367.0,0.0024300001095980406,9.000000136438757e-05,0.00031999999191612005,13.0649995803833
6837.737185664475,1521368.0,0.0020699999295175076,-0.00418000016361475,0.002090000081807375,13.024999618530273
6837.7381854363975,1521369.0,0.0017099999822676182,-0.005090000107884407,0.0028200000524520874,13.039999961853027
6837.73918520832,1521370.0,-0.0010300000431016088,-0.0029100000392645597,0.0030900000128895044,12.597999572753906
6837.740184980243,1521371.0,-0.005119999870657921,0.004449999891221523,0.0021800000686198473,13.01099967956543
6837.741184752165,1521372.0,-0.006779999937862158,-0.004900000058114529,-0.00018000000272877514,13.036999702453613
6837.742184524089,1521373.0,-0.006599999964237213,-0.0008200000156648457,0.0012700000079348683,12.859999656677246
6837.743184296011,1521374.0,-0.006599999964237213,-0.005090000107884407,0.0020000000949949026,12.842000007629395
6837.744184067934,1521375.0,-0.007009999826550484,-0.0036299999337643385,0.0012700000079348683,12.786999702453613
6837.7451838398565,1521376.0,-0.008630000054836273,-0.0029100000392645597,-0.003590000094845891,12.836000442504883
6837.746183611779,1521377.0,-0.007369999773800373,0.0021299999207258224,0.0,12.82800006866455
6837.747183383703,1521378.0,-0.0034099998883903027,-0.004720000084489584,-0.0015399999683722854,12.906000137329102
6837.748183155625,1521379.0,-0.00215999991632998,-0.007079999893903732,0.002950000111013651,12.984999656677246
