LSL_Time,PLUX_P1_nSeq,PLUX_P1_ECG0,PLUX_P1_EMG1,PLUX_P1_EMG2,PLUX_P1_RESPIRATION3
6636.819677237733,1319254.0,-0.02012999914586544,-0.002409999957308173,-0.0020000000949949026,-0.08445999771356583
6636.820677009949,1319255.0,-0.015410000458359718,-0.0019099999917671084,0.0018599999602884054,-0.08414000272750854
6636.821676782164,1319256.0,-0.015540000051259995,0.001500000013038516,0.004410000052303076,-0.08121000230312347
6636.8226765543795,1319257.0,-0.016349999234080315,0.00267999991774559,-0.0007300000288523734,-0.08280999958515167
6636.823676326594,1319258.0,-0.01779000088572502,0.0016799999866634607,0.0019099999917671084,-0.07924000173807144
6636.8246760988095,1319259.0,-0.017880000174045563,0.00267999991774559,0.001769999973475933,-0.08083999902009964
6636.825675871025,1319260.0,-0.017340000718832016,-0.00041000000783242285,-0.0018599999602884054,-0.07681000232696533
6636.82667564324,1319261.0,-0.017160000279545784,0.003449999960139394,0.0011399999493733048,-0.0798799991607666
6636.827675415456,1319262.0,-0.021560000255703926,0.0051299999468028545,-0.004040000028908253,-0.07878000289201736
6636.828675187671,1319263.0,-0.031539998948574066,0.00953999999910593,0.0036800000816583633,-0.07419999688863754
6636.829674959886,1319264.0,-0.04617999866604805,0.005900000222027302,0.00031999999191612005,-0.07740999758243561
6636.830674732101,1319265.0,-0.0611799992620945,0.001230000052601099,-0.004629999864846468,-0.0723700001835823
6636.831674504317,1319266.0,-0.07254999876022339,0.003220000071451068,-4.999999873689376e-05,-0.07603000104427338
6636.832674276532,1319267.0,-0.07982999831438065,-0.0007699999841861427,-0.006579999811947346,-0.07085999846458435
6636.8336740487475,1319268.0,-0.08014000207185745,0.00018000000272877514,-0.004220000002533197,-0.0743900015950203
6636.834673820962,1319269.0,-0.07412000000476837,-0.004000000189989805,0.003220000071451068,-0.06926000118255615
6636.8356735931775,1319270.0,-0.06544999778270721,-0.00839999970048666,0.0014100000262260437,-0.07186999917030334
6636.836673365393,1319271.0,-0.054269999265670776,-0.0020000000949949026,-0.0030900000128895044,-0.06797999888658524
6636.837673137608,1319272.0,-0.03953000158071518,-0.0033199999015778303,0.0031799999997019768,-0.06999000161886215
6636.838672909824,1319273.0,-0.02645999938249588,-0.005489999894052744,0.00267999991774559,-0.06825000047683716
6636.839672682039,1319274.0,-0.018239999189972878,0.002630000002682209,0.00031999999191612005,-0.06641999632120132
6636.840672454254,1319275.0,-0.0101500004529953,-0.00041000000783242285,0.0031799999997019768,-0.067610003054142
6636.841672226469,1319276.0,-0.0026499999221414328,-0.001500000013038516,0.006680000107735395,-0.06413000077009201
6636.842671998685,1319277.0,0.0003100000030826777,0.004129999782890081,-0.002360000042244792,-0.06752000004053116
6636.8436717709,1319278.0,0.0008999999845400453,0.0022700000554323196,-0.0019099999917671084,-0.061799999326467514
6636.8446715431155,1319279.0,0.0003100000030826777,0.0007699999841861427,0.0010900000343099236,-0.06532000005245209
6636.84567131533,1319280.0,-0.0008099999977275729,0.00031999999191612005,-0.002409999957308173,-0.05973999947309494
6636.8466710875455,1319281.0,-0.0034099998883903027,0.00014000000373926014,-0.0027699999045580626,-0.06413000077009201
6636.847670859761,1319282.0,-0.010060000233352184,0.005309999920427799,0.004679999779909849,-0.059050001204013824
6636.848670631976,1319283.0,-0.019770000129938126,0.005950000137090683,-0.0011399999493733048,-0.06193999946117401
6636.849670404192,1319284.0,-0.030910000205039978,0.003860000055283308,-0.004769999999552965,-0.05745000019669533
6636.850670176407,1319285.0,-0.041999999433755875,0.0059899999760091305,0.0022700000554323196,-0.060419999063014984
6636.851669948622,1319286.0,-0.051750000566244125,-4.999999873689376e-05,-0.006219999864697456,-0.05556999891996384
6636.852669720837,1319287.0,-0.055879998952150345,0.00031999999191612005,-0.004129999782890081,-0.058320000767707825
6636.853669493053,1319288.0,-0.05516999959945679,-0.004220000002533197,0.0002699999895412475,-0.05378999933600426
6636.854669265268,1319289.0,-0.05107999965548515,-0.004310000222176313,-0.0021299999207258224,-0.05716999992728233
6636.8556690374835,1319290.0,-0.04383999854326248,-0.005590000189840794,-0.0031300000846385956,-0.05099000036716461
6636.856668809698,1319291.0,-0.03517000004649162,-0.009080000221729279,0.001820000004954636,-0.0546099990606308
6636.8576685819135,1319292.0,-0.025520000606775284,-0.0011399999493733048,-0.002950000111013651,-0.04848000034689903
6636.858668354129,1319293.0,-0.015949999913573265,-0.002409999957308173,-0.0018599999602884054,-0.05310000106692314
6636.859668126344,1319294.0,-0.008129999972879887,-0.0015899999998509884,-0.0022299999836832285,-0.046549998223781586
6636.86066789856,1319295.0,-0.004490000195801258,0.0022299999836832285,0.001769999973475933,-0.049710001796483994
6636.861667670775,1319296.0,-0.005210000090301037,-0.0002699999895412475,0.003949999809265137,-0.048889998346567154
6636.86266744299,1319297.0,-0.007189999800175428,-4.999999873689376e-05,0.0028200000524520874,-0.04500000178813934
6636.863667215205,1319298.0,-0.01001999992877245,0.002360000042244792,0.00031999999191612005,-0.04839000105857849
6636.864666987421,1319299.0,-0.013120000250637531,0.004679999779909849,-0.0024500000290572643,-0.04165999963879585
6636.865666759636,1319300.0,-0.01711999997496605,0.0008200000156648457,0.001230000052601099,-0.04472000151872635
6636.8666665318515,1319301.0,-0.021700000390410423,0.00014000000373926014,0.0037700000684708357,-0.04546000063419342
6636.867666304066,1319302.0,-0.02776000089943409,0.00031999999191612005,0.004360000137239695,-0.040470000356435776
6636.868666076281,1319303.0,-0.039400000125169754,0.005859999917447567,-0.00014000000373926014,-0.03830999881029129
6636.869665848497,1319304.0,-0.053369998931884766,0.00880999956279993,-0.0007699999841861427,-0.041839998215436935
6636.870665620712,1319305.0,-0.06496000289916992,0.005630000028759241,-0.001230000052601099,-0.035750001668930054
6636.871665392928,1319306.0,-0.07124999910593033,-0.0021800000686198473,0.000910000002477318,-0.039409998804330826
6636.872665165142,1319307.0,-0.07312999665737152,-0.002090000081807375,-0.0063599999994039536,-0.0342399999499321
6636.873664937358,1319308.0,-0.07107000052928925,-0.0031799999997019768,-0.0013200000394135714,-0.03790000081062317
6636.874664709573,1319309.0,-0.06289000064134598,-0.0022299999836832285,-0.0005000000237487257,-0.03172000125050545
6636.875664481789,1319310.0,-0.05031000077724457,-0.003719999920576811,-0.004410000052303076,-0.036070000380277634
6636.876664254004,1319311.0,-0.03720000013709068,-0.00571999978274107,-0.0007300000288523734,-0.030990000814199448
6636.877664026219,1319312.0,-0.028710000216960907,-0.005489999894052744,0.002859999891370535,-0.03488000109791756
6636.878663798434,1319313.0,-0.02102000080049038,-0.0002300000051036477,0.00418000016361475,-0.030079999938607216
6636.879663570649,1319314.0,-0.012889999896287918,0.00031999999191612005,-0.0015899999998509884,-0.027149999514222145
6636.880663342865,1319315.0,-0.005210000090301037,-0.0016799999866634607,0.001230000052601099,-0.0319099985063076
6636.88166311508,1319316.0,-0.0014799999771639705,0.003220000071451068,0.005679999943822622,-0.02727999910712242
6636.882662887296,1319317.0,-0.001930000027641654,0.005590000189840794,-0.001500000013038516,-0.024119999259710312
6636.88366265951,1319318.0,-0.0026100000832229853,0.003220000071451068,-0.00203999993391335,-0.02930000051856041
6636.884662431726,1319319.0,-0.0020699999295175076,0.00031999999191612005,0.00031999999191612005,-0.02677999995648861
6636.885662203941,1319320.0,-0.0034099998883903027,-0.0017300000181421638,-0.00267999991774559,-0.02101000025868416
6636.886661976157,1319321.0,-0.00646999990567565,0.001769999973475933,-0.0011399999493733048,-0.02604999952018261
6636.887661748372,1319322.0,-0.00800000037997961,0.005630000028759241,-0.0002699999895412475,-0.020549999549984932
6636.8886615205865,1319323.0,-0.012489999644458294,0.005040000192821026,-0.0024999999441206455,-0.021880000829696655
6636.889661292802,1319324.0,-0.022280000150203705,0.00494999997317791,-0.000859999970998615,-0.02311999909579754
6636.890661065017,1319325.0,-0.036249998956918716,0.004040000028908253,0.0016799999866634607,-0.017260000109672546
6636.891660837233,1319326.0,-0.047439999878406525,-0.0013599999947473407,-0.001180000021122396,-0.01761999912559986
6636.892660609448,1319327.0,-0.051750000566244125,0.0015899999998509884,0.001230000052601099,-0.01940999925136566
6636.893660381664,1319328.0,-0.0510299988090992,-0.0044999998062849045,-0.0012700000079348683,-0.01616000011563301
6636.894660153878,1319329.0,-0.04388999938964844,-0.005489999894052744,-0.002090000081807375,-0.01436999998986721
6636.895659926094,1319330.0,-0.031449999660253525,-0.007809999864548445,-0.0027199999894946814,-0.015790000557899475
6636.896659698309,1319331.0,-0.0175199992954731,-0.004410000052303076,0.004269999917596579,-0.01140000019222498
6636.897659470525,1319332.0,-0.0034099998883903027,-0.004769999999552965,-0.001180000021122396,-0.016109999269247055
6636.89865924274,1319333.0,0.009030000306665897,-0.002589999930933118,-0.0009500000160187483,-0.008510000072419643
6636.8996590149545,1319334.0,0.017559999600052834,-4.999999873689376e-05,0.0037700000684708357,-0.013460000045597553
6636.90065878717,1319335.0,0.020479999482631683,0.0027199999894946814,-0.000590000010561198,-0.0064500002190470695
6636.901658559385,1319336.0,0.01779000088572502,0.005489999894052744,-0.0016299999551847577,-0.011540000326931477
6636.902658331601,1319337.0,0.013120000250637531,0.00031999999191612005,0.003220000071451068,-0.0040699997916817665
6636.903658103816,1319338.0,0.004670000169426203,0.0034099998883903027,-0.0003600000054575503,-0.009060000069439411
6636.904657876032,1319339.0,-0.002959999954327941,0.0033199999015778303,-0.003269999986514449,-0.0024300001095980406
6636.905657648246,1319340.0,-0.009159999899566174,0.0014100000262260437,-0.0022299999836832285,-0.007280000019818544
6636.906657420462,1319341.0,-0.00875999964773655,-9.000000136438757e-05,-0.002409999957308173,-0.0007800000021234155
6636.907657192677,1319342.0,-0.010599999688565731,0.003719999920576811,-0.002090000081807375,-0.001879999996162951
6636.9086569648925,1319343.0,-0.016440000385046005,0.00686000008136034,0.0022299999836832285,-0.005539999809116125
6636.909656737108,1319344.0,-0.024170000106096268,0.004629999864846468,0.003909999970346689,0.0026100000832229853
6636.9106565093225,1319345.0,-0.03215999901294708,0.0030400000978261232,0.0012700000079348683,-0.001560000004246831
6636.911656281538,1319346.0,-0.040070001035928726,0.0027699999045580626,-0.003949999809265137,0.004809999838471413
6636.912656053753,1319347.0,-0.04636000096797943,0.002360000042244792,9.000000136438757e-05,4.999999873689376e-05
6636.913655825969,1319348.0,-0.048700001090765,-0.0014100000262260437,-0.001180000021122396,0.002749999985098839
6636.914655598184,1319349.0,-0.046810001134872437,-0.006949999835342169,-0.004310000222176313,0.007230000104755163
6636.9156553704,1319350.0,-0.03931000083684921,-0.007860000245273113,-0.002950000111013651,0.0029299999587237835
6636.916655142614,1319351.0,-0.026590000838041306,-0.006769999861717224,0.0028200000524520874,0.008969999849796295
6636.91765491483,1319352.0,-0.011680000461637974,-0.008129999972879887,0.001769999973475933,0.005539999809116125
6636.918654687045,1319353.0,0.002199999988079071,-0.0027699999045580626,-0.00203999993391335,0.011169999837875366
6636.9196544592605,1319354.0,0.013930000364780426,0.0011399999493733048,0.0044999998062849045,0.007780000101774931
6636.920654231476,1319355.0,0.01940999925136566,0.0010400000028312206,-0.0018599999602884054,0.011859999969601631
6636.9216540036905,1319356.0,0.02022000029683113,0.003860000055283308,0.001180000021122396,0.009610000066459179
6636.922653775906,1319357.0,0.02012999914586544,0.005590000189840794,0.0029100000392645597,0.012860000133514404
6636.923653548121,1319358.0,0.0200399998575449,0.001180000021122396,-0.0019099999917671084,0.011669999919831753
6636.924653320337,1319359.0,0.0185100007802248,-0.0009500000160187483,0.0035000001080334187,0.017030000686645508
6636.925653092552,1319360.0,0.014820000156760216,0.0022700000554323196,-0.0033199999015778303,0.013500000350177288
6636.926652864768,1319361.0,0.012400000356137753,0.003220000071451068,0.00014000000373926014,0.019680000841617584
6636.927652636982,1319362.0,0.010599999688565731,0.002859999891370535,0.003220000071451068,0.015610000118613243
6636.928652409198,1319363.0,0.0028800000436604023,0.007579999975860119,-0.002409999957308173,0.021379999816417694
6636.929652181413,1319364.0,-0.011049999855458736,0.00535999983549118,0.00031999999191612005,0.017489999532699585
6636.9306519536285,1319365.0,-0.023000000044703484,0.0013200000394135714,-0.0007699999841861427,0.023479999974370003
6636.931651725844,1319366.0,-0.03117999993264675,0.003000000026077032,-0.005489999894052744,0.02005000039935112
6636.9326514980585,1319367.0,-0.03458999842405319,0.0017300000181421638,0.00203999993391335,0.023250000551342964
6636.933651270274,1319368.0,-0.030549999326467514,-0.00203999993391335,0.001230000052601099,0.025499999523162842
6636.934651042489,1319369.0,-0.022190000861883163,-0.0064500002190470695,-0.004449999891221523,0.023760000243782997
6636.935650814705,1319370.0,-0.012129999697208405,-0.007899999618530273,-9.000000136438757e-05,0.02718999981880188
6636.93665058692,1319371.0,-0.0023399998899549246,-0.009580000303685665,-0.0006399999838322401,0.028790000826120377
6636.937650359135,1319372.0,0.008089999668300152,-0.003000000026077032,-4.999999873689376e-05,0.026179999113082886
6636.93865013135,1319373.0,0.013609999790787697,-0.0007699999841861427,-0.0022299999836832285,0.02961999922990799
6636.939649903566,1319374.0,0.017969999462366104,0.00031999999191612005,0.0016299999551847577,0.02865999937057495
6636.940649675781,1319375.0,0.02102000080049038,0.00031999999191612005,0.00031999999191612005,0.03127000108361244
6636.9416494479965,1319376.0,0.020659999921917915,-0.0006399999838322401,-0.0012700000079348683,0.03401000052690506
6636.942649220211,1319377.0,0.018279999494552612,-0.0009500000160187483,0.00014000000373926014,0.03359999880194664
6636.9436489924265,1319378.0,0.015449999831616879,0.00031999999191612005,-0.0011399999493733048,0.03643999993801117
6636.944648764642,1319379.0,0.013880000449717045,0.0024999999441206455,-0.003539999946951866,0.03313999995589256
6636.945648536857,1319380.0,0.011370000429451466,0.0010400000028312206,0.003590000094845891,0.03844999894499779
6636.946648309073,1319381.0,0.009700000286102295,-0.0009500000160187483,0.0010400000028312206,0.035659998655319214
6636.947648081288,1319382.0,0.006649999879300594,0.0044999998062849045,-0.0022299999836832285,0.04134000092744827
6636.948647853503,1319383.0,0.0007200000109151006,0.010490000247955322,-0.003590000094845891,0.03748999908566475
6636.949647625718,1319384.0,-0.006020000204443932,0.001769999973475933,0.002319999970495701,0.038040000945329666
6636.950647397934,1319385.0,-0.014820000156760216,0.004629999864846468,0.0010400000028312206,0.045409999787807465
6636.951647170149,1319386.0,-0.024800000712275505,0.00031999999191612005,-0.0033199999015778303,0.040470000356435776
6636.9526469423645,1319387.0,-0.030910000205039978,-0.002589999930933118,-0.0045900000259280205,0.04769999906420708
6636.953646714579,1319388.0,-0.03260999917984009,-0.002859999891370535,0.003220000071451068,0.04261999949812889
6636.954646486794,1319389.0,-0.027629999443888664,-0.00803999975323677,-9.000000136438757e-05,0.05057999864220619
6636.95564625901,1319390.0,-0.018689999356865883,-0.004269999917596579,-0.00044999999227002263,0.04495000094175339
6636.956646031225,1319391.0,-0.008539999835193157,-0.0014100000262260437,0.002859999891370535,0.048889998346567154
6636.957645803441,1319392.0,0.0028800000436604023,-0.0030900000128895044,-0.00203999993391335,0.04682999849319458
6636.958645575656,1319393.0,0.013340000063180923,-0.005489999894052744,-0.003809999907389283,0.054749999195337296
6636.959645347871,1319394.0,0.022280000150203705,0.0013200000394135714,0.001449999981559813,0.04893000051379204
6636.960645120086,1319395.0,0.029689999297261238,0.0025400000158697367,0.0024999999441206455,0.05483999848365784
6636.961644892302,1319396.0,0.03522000089287758,0.0010400000028312206,0.0015899999998509884,0.05177000164985657
6636.962644664517,1319397.0,0.03872000053524971,0.0014100000262260437,-0.003269999986514449,0.05689999833703041
6636.9636444367325,1319398.0,0.0399399995803833,0.0024999999441206455,0.005590000189840794,0.05268999934196472
6636.964644208947,1319399.0,0.037689998745918274,0.00031999999191612005,0.001230000052601099,0.06061000004410744
6636.965643981162,1319400.0,0.032930001616477966,0.0017300000181421638,0.0,0.054659999907016754
6636.966643753378,1319401.0,0.029020000249147415,0.00535999983549118,-0.004809999838471413,0.059459999203681946
6636.967643525593,1319402.0,0.021740000694990158,0.004629999864846468,0.003590000094845891,0.06289999932050705
6636.968643297809,1319403.0,0.009789999574422836,0.004679999779909849,0.0015399999683722854,0.05846000090241432
6636.969643070024,1319404.0,-0.005210000090301037,0.006130000110715628,0.0010000000474974513,0.0628499984741211
6636.970642842239,1319405.0,-0.021379999816417694,0.005040000192821026,-0.0029100000392645597,0.06641999632120132
6636.971642614454,1319406.0,-0.030500000342726707,0.0019099999917671084,-0.0051299999468028545,0.061069998890161514
6636.97264238667,1319407.0,-0.03432000055909157,0.00014000000373926014,0.0027699999045580626,0.06719999760389328
6636.973642158885,1319408.0,-0.03491000086069107,-0.004809999838471413,-4.999999873689376e-05,0.06719999760389328
6636.9746419311,1319409.0,-0.029200000688433647,-0.002589999930933118,-0.006219999864697456,0.06706000119447708
6636.975641703315,1319410.0,-0.017969999462366104,-0.006130000110715628,0.00031999999191612005,0.06953000277280807
6636.97664147553,1319411.0,-0.008630000054836273,-0.007899999618530273,0.0013599999947473407,0.06554999947547913
6636.977641247746,1319412.0,0.0031900000758469105,-0.003539999946951866,-0.0027699999045580626,0.07315000146627426
6636.978641019961,1319413.0,0.01513999979943037,-0.0006799999973736703,-0.000539999979082495,0.06843999773263931
6636.979640792177,1319414.0,0.023719999939203262,-0.002589999930933118,0.004129999782890081,0.07644999772310257
6636.980640564392,1319415.0,0.029020000249147415,0.003220000071451068,-0.001449999981559813,0.06976000219583511
6636.981640336607,1319416.0,0.030859999358654022,0.006130000110715628,-0.0017300000181421638,0.07621999830007553
6636.982640108822,1319417.0,0.028030000627040863,0.002409999957308173,0.004679999779909849,0.07686000317335129
6636.983639881038,1319418.0,0.020169999450445175,0.00031999999191612005,0.003719999920576811,0.07246000319719315
6636.984639653253,1319419.0,0.01095999963581562,0.0014100000262260437,-0.0009500000160187483,0.08025000244379044
6636.985639425468,1319420.0,0.005750000011175871,0.0010400000028312206,-0.0022299999836832285,0.07479999959468842
6636.986639197683,1319421.0,0.005030000116676092,0.0016799999866634607,-0.0015899999998509884,0.08252999931573868
6636.987638969898,1319422.0,0.004540000110864639,0.003909999970346689,-0.002589999930933118,0.07667999714612961
6636.988638742114,1319423.0,-0.0003600000054575503,0.0002699999895412475,0.00031999999191612005,0.08523999899625778
6636.989638514329,1319424.0,-0.009879999794065952,0.005859999917447567,0.005400000140070915,0.07886999845504761
6636.990638286545,1319425.0,-0.021700000390410423,0.005900000222027302,0.00031999999191612005,0.08129999786615372
6636.99163805876,1319426.0,-0.03342000022530556,0.0024999999441206455,-0.0033599999733269215,0.0865200012922287
6636.992637830975,1319427.0,-0.0399399995803833,-0.00018000000272877514,-0.005859999917447567,0.0822099968791008
6636.99363760319,1319428.0,-0.04047999903559685,-0.003449999960139394,-0.00418000016361475,0.08976999670267105
6636.994637375406,1319429.0,-0.03756000101566315,-0.00494999997317791,-0.002859999891370535,0.08821000158786774
6636.995637147621,1319430.0,-0.03037000074982643,-0.004040000028908253,-0.003860000055283308,0.08455000072717667
6636.996636919836,1319431.0,-0.020840000361204147,-0.009039999917149544,-0.002090000081807375,0.08925999701023102
6636.997636692051,1319432.0,-0.007590000052005053,-0.004040000028908253,0.0014100000262260437,0.09076999872922897
6636.998636464266,1319433.0,0.006200000178068876,0.0030400000978261232,0.00018000000272877514,0.09114000201225281
6636.999636236482,1319434.0,0.014779999852180481,0.00031999999191612005,0.0010400000028312206,0.09233000129461288
6637.000636008697,1319435.0,0.022099999710917473,-0.000539999979082495,-0.0017300000181421638,0.09114000201225281
6637.001635780913,1319436.0,0.02525000087916851,0.001769999973475933,0.0030900000128895044,0.09581000357866287
6637.002635553127,1319437.0,0.026410000398755074,0.003220000071451068,0.0022299999836832285,0.09059000015258789
6637.003635325343,1319438.0,0.02645999938249588,0.0036800000816583633,-0.0019099999917671084,0.09736999869346619
6637.004635097558,1319439.0,0.019770000129938126,0.0015899999998509884,-0.0033199999015778303,0.09168999642133713
6637.0056348697735,1319440.0,0.009519999846816063,0.00014000000373926014,0.003909999970346689,0.09993000328540802
6637.006634641989,1319441.0,0.004269999917596579,0.00031999999191612005,-0.0007699999841861427,0.09407000243663788
6637.0076344142035,1319442.0,0.00018000000272877514,0.00203999993391335,-0.002630000002682209,0.10148999840021133
6637.008634186419,1319443.0,-0.005750000011175871,0.0030400000978261232,0.004129999782890081,0.095210000872612
6637.009633958634,1319444.0,-0.013209999538958073,0.00795000046491623,0.002360000042244792,0.1043199971318245
6637.01063373085,1319445.0,-0.01931999996304512,0.006130000110715628,-0.00203999993391335,0.09700000286102295
6637.011633503065,1319446.0,-0.0243500005453825,0.0010400000028312206,0.001769999973475933,0.1057400032877922
6637.012633275281,1319447.0,-0.027580000460147858,9.000000136438757e-05,0.0015399999683722854,0.09873999655246735
6637.013633047495,1319448.0,-0.0257399994879961,0.00031999999191612005,-0.004720000084489584,0.10698000341653824
6637.014632819711,1319449.0,-0.01971999928355217,-0.0072200000286102295,-0.0027199999894946814,0.10620000213384628
6637.015632591926,1319450.0,-0.009340000338852406,-0.009220000356435776,-0.0022299999836832285,0.1025800034403801
6637.0166323641415,1319451.0,0.001120000029914081,-0.0031300000846385956,0.004679999779909849,0.11014000326395035
6637.017632136357,1319452.0,0.011680000461637974,-0.005489999894052744,0.0021299999207258224,0.10281000286340714
6637.0186319085715,1319453.0,0.021740000694990158,-0.004269999917596579,0.00031999999191612005,0.10666000097990036
6637.019631680787,1319454.0,0.028529999777674675,-0.000539999979082495,-0.001230000052601099,0.11082000285387039
6637.020631453002,1319455.0,0.03382999822497368,0.0016799999866634607,-0.0011399999493733048,0.10570000112056732
6637.021631225218,1319456.0,0.03849999979138374,0.00267999991774559,0.00031999999191612005,0.11403000354766846
6637.022630997433,1319457.0,0.039080001413822174,0.00031999999191612005,-0.00044999999227002263,0.11242999881505966
6637.023630769649,1319458.0,0.037470001727342606,0.008310000412166119,0.004860000219196081,0.1077599972486496
6637.024630541863,1319459.0,0.03570999950170517,0.004679999779909849,-0.0013200000394135714,0.11631999909877777
6637.025630314079,1319460.0,0.03468000143766403,-0.002090000081807375,-0.004040000028908253,0.1141199991106987
6637.026630086294,1319461.0,0.03181000053882599,-0.0027699999045580626,-0.0002699999895412475,0.11105000227689743
6637.0276298585095,1319462.0,0.028929999098181725,0.004089999943971634,0.00031999999191612005,0.11750999838113785
6637.028629630725,1319463.0,0.022460000589489937,0.0064500002190470695,0.0022700000554323196,0.11128000169992447
6637.0296294029395,1319464.0,0.011859999969601631,0.006130000110715628,-0.0018599999602884054,0.11833000183105469
6637.030629175155,1319465.0,-0.000539999979082495,0.0025400000158697367,0.0014100000262260437,0.11750999838113785
6637.03162894737,1319466.0,-0.010830000042915344,0.0010400000028312206,-0.002589999930933118,0.11599999666213989
6637.032628719586,1319467.0,-0.01621999964118004,-0.004410000052303076,0.002319999970495701,0.12134999781847
6637.033628491801,1319468.0,-0.016529999673366547,-0.006219999864697456,-0.0024500000290572643,0.11599999666213989
6637.034628264017,1319469.0,-0.012889999896287918,-0.0033599999733269215,-0.006219999864697456,0.12336999922990799
6637.035628036231,1319470.0,-0.006020000204443932,-0.006579999811947346,0.00014000000373926014,0.11750999838113785
6637.036627808447,1319471.0,0.0027000000700354576,-0.004769999999552965,-0.001449999981559813,0.12447000294923782
6637.037627580662,1319472.0,0.01384000014513731,-0.00418000016361475,0.0015899999998509884,0.11833000183105469
6637.0386273528775,1319473.0,0.02425999939441681,-0.0021299999207258224,0.0019499999471008778,0.12630000710487366
6637.039627125093,1319474.0,0.030950000509619713,0.003809999907389283,0.002630000002682209,0.12116999924182892
6637.040626897307,1319475.0,0.03338000178337097,0.0010400000028312206,0.0009500000160187483,0.1291400045156479
6637.041626669523,1319476.0,0.03269999846816063,-0.002950000111013651,-0.00031999999191612005,0.12066999822854996
6637.042626441738,1319477.0,0.029020000249147415,0.004720000084489584,-0.0013200000394135714,0.1288599967956543
6637.043626213954,1319478.0,0.02686000056564808,0.0016299999551847577,0.0,0.12318000197410583
6637.044625986169,1319479.0,0.024529999122023582,-4.999999873689376e-05,0.002950000111013651,0.12684999406337738
6637.045625758385,1319480.0,0.02223999984562397,0.0034099998883903027,-0.00044999999227002263,0.13022999465465546
6637.046625530599,1319481.0,0.021649999544024467,0.001180000021122396,-0.002589999930933118,0.12767000496387482
6637.047625302815,1319482.0,0.023310000076889992,0.001769999973475933,0.0024999999441206455,0.1321599930524826
6637.04862507503,1319483.0,0.02043999917805195,0.006039999891072512,0.003220000071451068,0.12804000079631805
6637.0496248472455,1319484.0,0.009159999899566174,0.0019499999471008778,-0.002859999891370535,0.13508999347686768
6637.050624619461,1319485.0,-0.003590000094845891,0.004129999782890081,0.003860000055283308,0.1289999932050705
6637.051624391675,1319486.0,-0.010239999741315842,0.006130000110715628,0.0019099999917671084,0.13801999390125275
6637.052624163891,1319487.0,-0.010870000347495079,-0.0031300000846385956,0.00031999999191612005,0.1295499950647354
6637.053623936106,1319488.0,-0.006380000151693821,-0.0011399999493733048,0.00203999993391335,0.13947999477386475
6637.054623708322,1319489.0,0.0009399999980814755,-0.003860000055283308,-0.0030400000978261232,0.13161000609397888
6637.055623480537,1319490.0,0.010870000347495079,-0.006769999861717224,-0.0062699997797608376,0.14094999432563782
6637.056623252753,1319491.0,0.02043999917805195,-0.005900000222027302,0.001769999973475933,0.13298000395298004
6637.057623024967,1319492.0,0.03109000064432621,-0.0013200000394135714,-0.0011399999493733048,0.1418199986219406
6637.058622797183,1319493.0,0.04047999903559685,-0.006039999891072512,-0.003539999946951866,0.13646000623703003
6637.059622569398,1319494.0,0.04326000064611435,0.001769999973475933,0.0021800000686198473,0.14232000708580017
6637.060622341613,1319495.0,0.039889998733997345,0.0024500000290572643,0.0015899999998509884,0.14236000180244446
6637.061622113829,1319496.0,0.03849999979138374,0.001180000021122396,0.00031999999191612005,0.14203999936580658
6637.062621886043,1319497.0,0.038989998400211334,0.005590000189840794,0.00031999999191612005,0.14529000222682953
6637.063621658259,1319498.0,0.036479998379945755,0.003949999809265137,0.0010000000474974513,0.14067000150680542
6637.064621430474,1319499.0,0.031449999660253525,-0.0017300000181421638,-0.0018599999602884054,0.14722000062465668
6637.06562120269,1319500.0,0.0276699997484684,0.0018599999602884054,-0.0019099999917671084,0.14145000278949738
6637.066620974905,1319501.0,0.024709999561309814,-0.00044999999227002263,0.002319999970495701,0.1506499946117401
6637.06762074712,1319502.0,0.020390000194311142,0.003220000071451068,-0.0011399999493733048,0.14223000407218933
6637.068620519335,1319503.0,0.009569999761879444,0.006949999835342169,-0.0035000001080334187,0.15230000019073486
6637.069620291551,1319504.0,-0.0033199999015778303,0.009630000218749046,0.001769999973475933,0.1502400040626526
6637.070620063766,1319505.0,-0.016440000385046005,0.0021299999207258224,0.0016799999866634607,0.14754000306129456
6637.071619835981,1319506.0,-0.02384999953210354,-9.000000136438757e-05,-0.0022299999836832285,0.1555899977684021
6637.072619608196,1319507.0,-0.02425999939441681,-0.005489999894052744,-0.0021299999207258224,0.14803999662399292
6637.073619380411,1319508.0,-0.019859999418258667,-0.003220000071451068,-0.0030400000978261232,0.15756000578403473
6637.074619152627,1319509.0,-0.011640000157058239,-0.003539999946951866,-0.002319999970495701,0.15070000290870667
6637.075618924842,1319510.0,-0.0011699999449774623,-0.0033199999015778303,-0.0003600000054575503,0.1578799933195114
6637.076618697058,1319511.0,0.010110000148415565,-0.007309999782592058,-0.0010400000028312206,0.1522500067949295
6637.077618469273,1319512.0,0.022460000589489937,-0.0035000001080334187,0.0014100000262260437,0.15926000475883484
6637.078618241488,1319513.0,0.033240001648664474,-0.00018000000272877514,-0.0028200000524520874,0.15458999574184418
6637.079618013703,1319514.0,0.041510000824928284,-0.0005000000237487257,-0.0005000000237487257,0.1603499948978424
6637.080617785919,1319515.0,0.04473999887704849,-0.0014100000262260437,9.000000136438757e-05,0.1643799990415573
6637.081617558134,1319516.0,0.043129999190568924,0.0052200001664459705,0.006680000107735395,0.1576099991798401
6637.082617330349,1319517.0,0.03962000086903572,0.005040000192821026,0.0022700000554323196,0.15604999661445618
6637.083617102564,1319518.0,0.03468000143766403,0.00571999978274107,0.002409999957308173,0.16493000090122223
6637.084616874779,1319519.0,0.03027999959886074,0.0014100000262260437,-0.001230000052601099,0.1637900024652481
6637.085616646995,1319520.0,0.02353999949991703,-0.0002300000051036477,-0.00203999993391335,0.15851999819278717
6637.08661641921,1319521.0,0.017069999128580093,-0.00044999999227002263,-4.999999873689376e-05,0.16721999645233154
6637.087616191426,1319522.0,0.013120000250637531,0.003269999986514449,-0.0007300000288523734,0.17005999386310577
6637.088615963641,1319523.0,0.007910000160336494,0.003590000094845891,-0.000859999970998615,0.16144999861717224
6637.089615735856,1319524.0,0.0008099999977275729,0.00031999999191612005,0.0013200000394135714,0.1726199984550476
6637.090615508071,1319525.0,-0.007550000213086605,0.007540000136941671,0.004040000028908253,0.1643799990415573
6637.0916152802865,1319526.0,-0.015629999339580536,0.00267999991774559,-0.00203999993391335,0.1726199984550476
6637.092615052502,1319527.0,-0.022910000756382942,0.00031999999191612005,-0.003949999809265137,0.1672700047492981
6637.093614824717,1319528.0,-0.027089999988675117,-0.005489999894052744,-0.005489999894052744,0.17358000576496124
6637.094614596932,1319529.0,-0.023180000483989716,-0.0062699997797608376,0.0010000000474974513,0.16951000690460205
6637.095614369147,1319530.0,-0.013570000417530537,-0.0059899999760091305,0.003220000071451068,0.17583000659942627
6637.096614141363,1319531.0,-0.0023399998899549246,-0.003909999970346689,-0.0007699999841861427,0.17294000089168549
6637.097613913578,1319532.0,0.010239999741315842,-0.006769999861717224,-0.000859999970998615,0.1687300056219101
6637.098613685794,1319533.0,0.023000000044703484,-0.004040000028908253,-0.0013200000394135714,0.18004000186920166
6637.099613458009,1319534.0,0.030009999871253967,-0.0009500000160187483,0.0035000001080334187,0.17505000531673431
6637.100613230224,1319535.0,0.03359999880194664,0.002950000111013651,9.000000136438757e-05,0.1722099930047989
6637.101613002439,1319536.0,0.03522000089287758,0.0031799999997019768,-0.001769999973475933,0.18140999972820282
6637.1026127746545,1319537.0,0.034860000014305115,0.0030900000128895044,0.003949999809265137,0.18365000188350677
6637.10361254687,1319538.0,0.03432000055909157,0.003220000071451068,-0.0011399999493733048,0.17775000631809235
6637.104612319085,1319539.0,0.03378000110387802,0.0072200000286102295,-0.0013599999947473407,0.18306000530719757
6637.1056120913,1319540.0,0.03342000022530556,-4.999999873689376e-05,-0.0006399999838322401,0.18704000115394592
6637.106611863515,1319541.0,0.032340001314878464,-0.0015899999998509884,-0.0034099998883903027,0.17669999599456787
6637.107611635731,1319542.0,0.026590000838041306,0.004629999864846468,0.00031999999191612005,0.18745000660419464
6637.108611407946,1319543.0,0.014550000429153442,0.005040000192821026,0.0012700000079348683,0.1834300011396408
6637.109611180162,1319544.0,0.0014400000218302011,0.0028200000524520874,0.0024999999441206455,0.18050000071525574
6637.110610952377,1319545.0,-0.011049999855458736,0.006130000110715628,-0.0033199999015778303,0.18964999914169312
6637.111610724592,1319546.0,-0.019950000569224358,-0.000539999979082495,0.0021299999207258224,0.18964999914169312
6637.112610496807,1319547.0,-0.023180000483989716,0.0002699999895412475,-0.0002699999895412475,0.1848900020122528
6637.1136102690225,1319548.0,-0.02111000008881092,-0.0019099999917671084,-0.0018599999602884054,0.1917099952697754
6637.114610041238,1319549.0,-0.01257999986410141,-0.00989999994635582,-0.0029100000392645597,0.19446000456809998
6637.115609813453,1319550.0,-0.0013000000035390258,-0.002589999930933118,-0.001230000052601099,0.18854999542236328
6637.116609585668,1319551.0,0.011140000075101852,-0.006490000057965517,-0.0019099999917671084,0.18636000156402588
6637.117609357883,1319552.0,0.02402999997138977,-0.0010000000474974513,0.0021299999207258224,0.19368000328540802
6637.118609130099,1319553.0,0.03468000143766403,-4.999999873689376e-05,-0.0006399999838322401,0.19794000685214996
6637.119608902314,1319554.0,0.03971000015735626,-0.0003600000054575503,0.00014000000373926014,0.1906999945640564
6637.12060867453,1319555.0,0.041689999401569366,0.001769999973475933,0.006680000107735395,0.19762000441551208
6637.121608446745,1319556.0,0.041370000690221786,0.0013200000394135714,0.0020000000949949026,0.19404999911785126
6637.12260821896,1319557.0,0.04187000170350075,-0.0036800000816583633,-0.0019099999917671084,0.19756999611854553
6637.123607991175,1319558.0,0.04042999818921089,0.00031999999191612005,0.0009500000160187483,0.20241999626159668
6637.1246077633905,1319559.0,0.03711000084877014,9.000000136438757e-05,0.0006799999973736703,0.19596999883651733
6637.125607535606,1319560.0,0.03633999824523926,-0.0014100000262260437,-0.002409999957308173,0.19276000559329987
6637.126607307821,1319561.0,0.039080001413822174,0.003220000071451068,-0.0011399999493733048,0.20393000543117523
6637.127607080036,1319562.0,0.0370200015604496,0.0031799999997019768,0.0021299999207258224,0.19945000112056732
6637.128606852251,1319563.0,0.02857000008225441,0.003949999809265137,-0.0013599999947473407,0.1982100009918213
6637.129606624467,1319564.0,0.015449999831616879,0.006130000110715628,0.001449999981559813,0.20247000455856323
6637.130606396682,1319565.0,0.0027000000700354576,0.003909999970346689,-4.999999873689376e-05,0.2077299952507019
6637.131606168898,1319566.0,-0.0069599999114871025,0.000910000002477318,-0.0011399999493733048,0.1983499974012375
6637.132605941112,1319567.0,-0.011900000274181366,-0.002950000111013651,0.0010000000474974513,0.20924000442028046
6637.133605713328,1319568.0,-0.01590000092983246,-0.002630000002682209,-0.0064500002190470695,0.19844000041484833
6637.134605485543,1319569.0,-0.012980000115931034,-0.0030400000978261232,0.0016799999866634607,0.21010999381542206
6637.1356052577585,1319570.0,-0.0034099998883903027,-0.006039999891072512,-0.004310000222176313,0.20393000543117523
6637.136605029974,1319571.0,0.012400000356137753,-0.002950000111013651,-0.004809999838471413,0.21025000512599945
6637.137604802188,1319572.0,0.025520000606775284,-0.008129999972879887,-0.0006399999838322401,0.20833000540733337
6637.138604574404,1319573.0,0.03189999982714653,0.002360000042244792,-0.002090000081807375,0.20658999681472778
6637.139604346619,1319574.0,0.0350399985909462,-0.004129999782890081,0.0030400000978261232,0.20979000627994537
6637.140604118835,1319575.0,0.040070001035928726,0.002630000002682209,-0.0002699999895412475,0.21410000324249268
6637.14160389105,1319576.0,0.04340000078082085,0.0052200001664459705,0.0027699999045580626,0.2119400054216385
6637.142603663266,1319577.0,0.04205000028014183,-0.00014000000373926014,0.00018000000272877514,0.2103399932384491
6637.14360343548,1319578.0,0.03790999948978424,0.004220000002533197,-0.001769999973475933,0.21419000625610352
6637.144603207696,1319579.0,0.03513000160455704,0.00031999999191612005,-0.001500000013038516,0.219310000538826
6637.145602979911,1319580.0,0.03359999880194664,0.0007699999841861427,0.0018599999602884054,0.21299999952316284
6637.1466027521265,1319581.0,0.03305999934673309,0.00203999993391335,9.000000136438757e-05,0.2171200066804886
6637.147602524342,1319582.0,0.029650000855326653,0.0013599999947473407,-4.999999873689376e-05,0.22142000496387482
6637.148602296556,1319583.0,0.02191999927163124,0.003949999809265137,-0.0033199999015778303,0.21528999507427216
6637.149602068772,1319584.0,0.010110000148415565,0.007180000189691782,0.002589999930933118,0.22110000252723694
6637.150601840987,1319585.0,-0.006560000125318766,0.002319999970495701,0.0015899999998509884,0.21918000280857086
6637.151601613203,1319586.0,-0.016529999673366547,0.001769999973475933,-4.999999873689376e-05,0.2136400043964386
6637.152601385418,1319587.0,-0.0218299999833107,0.006130000110715628,-0.002589999930933118,0.22371000051498413
6637.153601157634,1319588.0,-0.021740000694990158,-0.0033199999015778303,-0.0027699999045580626,0.22123999893665314
6637.154600929848,1319589.0,-0.013749999925494194,-0.005900000222027302,-0.0011399999493733048,0.21419000625610352
6637.155600702064,1319590.0,-0.0031900000758469105,-0.004540000110864639,-0.001820000004954636,0.22713999450206757
6637.156600474279,1319591.0,0.005929999984800816,-0.008080000057816505,-0.004129999782890081,0.2211499959230423
6637.157600246494,1319592.0,0.017340000718832016,-0.006949999835342169,-0.0010000000474974513,0.22700999677181244
6637.15860001871,1319593.0,0.028710000216960907,-0.0019099999917671084,0.005590000189840794,0.2249000072479248
6637.159599790924,1319594.0,0.035670001059770584,0.00031999999191612005,-0.0013200000394135714,0.219310000538826
6637.16059956314,1319595.0,0.03782999888062477,-9.000000136438757e-05,0.00031999999191612005,0.2306700050830841
6637.161599335355,1319596.0,0.03863000124692917,0.004679999779909849,0.00203999993391335,0.2259099930524826
6637.162599107571,1319597.0,0.03863000124692917,0.002409999957308173,0.0021299999207258224,0.23103000223636627
6637.163598879786,1319598.0,0.03669999912381172,0.005090000107884407,-0.005539999809116125,0.23231999576091766
6637.164598652002,1319599.0,0.03652000054717064,-0.0016799999866634607,0.003809999907389283,0.22536000609397888
6637.165598424216,1319600.0,0.036159999668598175,0.003809999907389283,-0.0002300000051036477,0.23377999663352966
6637.166598196432,1319601.0,0.034370001405477524,-0.0020000000949949026,-0.005770000163465738,0.23469999432563782
6637.167597968647,1319602.0,0.029650000855326653,0.0022299999836832285,0.0045900000259280205,0.2259099930524826
6637.168597740862,1319603.0,0.02102000080049038,0.005950000137090683,0.001449999981559813,0.23611000180244446
6637.169597513078,1319604.0,0.008179999887943268,0.008630000054836273,-0.0045900000259280205,0.2370299994945526
6637.170597285292,1319605.0,-0.00547999981790781,0.005770000163465738,0.0012700000079348683,0.22934000194072723
6637.171597057508,1319606.0,-0.0147299999371171,-0.0028200000524520874,0.00018000000272877514,0.2386299967765808
6637.172596829723,1319607.0,-0.020889999344944954,-0.002589999930933118,-0.005859999917447567,0.23973000049591064
6637.173596601939,1319608.0,-0.023669999092817307,-0.000590000010561198,0.0020000000949949026,0.2312600016593933
6637.174596374154,1319609.0,-0.01923000067472458,-0.006680000107735395,-0.0011399999493733048,0.24120000004768372
6637.17559614637,1319610.0,-0.010379999876022339,-0.009259999729692936,-0.0010000000474974513,0.2405499964952469
6637.176595918584,1319611.0,-0.0003600000054575503,-0.00571999978274107,0.0045900000259280205,0.2315399944782257
6637.1775956907995,1319612.0,0.007369999773800373,-0.006680000107735395,0.0011399999493733048,0.2452699989080429
6637.178595463015,1319613.0,0.012400000356137753,-0.0027699999045580626,-0.0020000000949949026,0.23396000266075134
6637.17959523523,1319614.0,0.016039999201893806,9.000000136438757e-05,-0.003000000026077032,0.24751000106334686
6637.180595007446,1319615.0,0.017559999600052834,-0.0027699999045580626,0.0016299999551847577,0.2410999983549118
6637.18159477966,1319616.0,0.018780000507831573,0.00031999999191612005,0.002859999891370535,0.2448599934577942
6637.182594551876,1319617.0,0.018780000507831573,0.00494999997317791,-0.001449999981559813,0.2491600066423416
6637.183594324091,1319618.0,0.017880000174045563,0.004900000058114529,0.0013599999947473407,0.23959000408649445
6637.184594096307,1319619.0,0.01671000011265278,0.0,0.00031999999191612005,0.24842999875545502
6637.185593868522,1319620.0,0.013609999790787697,0.0016299999551847577,-0.001180000021122396,0.25044000148773193
6637.186593640738,1319621.0,0.009519999846816063,0.0017300000181421638,-0.0030900000128895044,0.24115000665187836
6637.187593412952,1319622.0,0.004040000028908253,-0.0010900000343099236,0.0031300000846385956,0.25126999616622925
6637.1885931851675,1319623.0,-0.00547999981790781,0.005040000192821026,0.0002300000051036477,0.24741999804973602
6637.189592957383,1319624.0,-0.019360000267624855,0.010490000247955322,-0.0010400000028312206,0.2403700053691864
6637.190592729598,1319625.0,-0.03674999997019768,0.010040000081062317,0.0020000000949949026,0.2533699870109558
6637.191592501814,1319626.0,-0.04887999966740608,-0.0007699999841861427,-0.0011399999493733048,0.2540999948978424
6637.192592274028,1319627.0,-0.05623999983072281,0.001769999973475933,-0.0013599999947473407,0.2500300109386444
6637.193592046244,1319628.0,-0.05965999886393547,-0.0002699999895412475,0.00031999999191612005,0.25501999258995056
6637.194591818459,1319629.0,-0.054090000689029694,-0.007670000195503235,-0.0011399999493733048,0.2506699860095978
6637.195591590675,1319630.0,-0.04447000101208687,-0.005489999894052744,-0.002859999891370535,0.2542400062084198
6637.19659136289,1319631.0,-0.032249998301267624,-0.005489999894052744,-0.002090000081807375,0.2594600021839142
6637.197591135105,1319632.0,-0.019770000129938126,-0.0059899999760091305,0.004679999779909849,0.2530499994754791
6637.19859090732,1319633.0,-0.008630000054836273,-0.008220000192523003,-0.003949999809265137,0.2576799988746643
6637.1995906795355,1319634.0,-0.0017500000540167093,0.0002699999895412475,0.0009500000160187483,0.256989985704422
6637.200590451751,1319635.0,0.001979999942705035,0.003949999809265137,0.0021800000686198473,0.2581300139427185
6637.201590223966,1319636.0,0.005570000037550926,0.005770000163465738,-0.002360000042244792,0.26256999373435974
6637.202589996181,1319637.0,0.00646999990567565,0.0029100000392645597,0.003860000055283308,0.2501699924468994
6637.203589768396,1319638.0,0.004490000195801258,0.00014000000373926014,0.00031999999191612005,0.26541000604629517
6637.204589540612,1319639.0,-0.00022000000171829015,-0.0002699999895412475,-0.0011399999493733048,0.2575800120830536
6637.205589312827,1319640.0,-0.004310000222176313,-0.0011399999493733048,0.00031999999191612005,0.26381000876426697
6637.206589085043,1319641.0,-0.009840000420808792,0.0036299999337643385,-0.00203999993391335,0.2610200047492981
6637.207588857258,1319642.0,-0.0175199992954731,0.002090000081807375,0.001449999981559813,0.263949990272522
6637.208588629473,1319643.0,-0.029200000688433647,0.005679999943822622,0.0018599999602884054,0.2663699984550476
6637.209588401688,1319644.0,-0.0436599999666214,0.008270000107586384,0.0014100000262260437,0.255840003490448
6637.2105881739035,1319645.0,-0.05812999978661537,0.005679999943822622,-0.0011399999493733048,0.26829999685287476
6637.211587946119,1319646.0,-0.06577000021934509,0.00031999999191612005,0.001180000021122396,0.2659600079059601
6637.212587718334,1319647.0,-0.06586000323295593,-0.0027199999894946814,-0.0028200000524520874,0.25644001364707947
6637.213587490549,1319648.0,-0.06379000097513199,-0.005679999943822622,-0.0015899999998509884,0.2701700031757355
6637.214587262764,1319649.0,-0.05525999888777733,-0.007269999943673611,-0.0035000001080334187,0.26848000288009644
6637.21558703498,1319650.0,-0.0428600013256073,-0.005539999809116125,0.00031999999191612005,0.2594600021839142
6637.216586807195,1319651.0,-0.03099999949336052,-0.005630000028759241,-0.003590000094845891,0.27309998869895935
6637.217586579411,1319652.0,-0.02133999951183796,-0.008449999615550041,-0.00041000000783242285,0.26802000403404236
6637.218586351626,1319653.0,-0.0142000000923872,0.00031999999191612005,0.0020000000949949026,0.2713199853897095
6637.219586123841,1319654.0,-0.008980000391602516,-0.001769999973475933,-0.0002300000051036477,0.27452000975608826
6637.220585896056,1319655.0,-0.006649999879300594,0.002090000081807375,0.0021299999207258224,0.26673999428749084
6637.2215856682715,1319656.0,-0.005659999791532755,-0.0005000000237487257,-0.0002699999895412475,0.2786400020122528
6637.222585440487,1319657.0,-0.005030000116676092,0.004629999864846468,0.0017300000181421638,0.2636699974536896
6637.223585212702,1319658.0,-0.004490000195801258,0.005450000055134296,0.00267999991774559,0.2787800133228302
6637.224584984917,1319659.0,-0.004490000195801258,0.0031300000846385956,0.003449999960139394,0.2713199853897095
6637.225584757132,1319660.0,-0.003229999914765358,0.0020000000949949026,-0.002630000002682209,0.2786400020122528
6637.226584529348,1319661.0,-0.000539999979082495,-9.000000136438757e-05,0.002589999930933118,0.27254998683929443
6637.227584301563,1319662.0,0.00215999991632998,0.0012700000079348683,-4.999999873689376e-05,0.2815699875354767
6637.228584073779,1319663.0,-0.0015300000086426735,0.0021299999207258224,-0.0028200000524520874,0.26930001378059387
6637.229583845994,1319664.0,-0.010689999908208847,-0.0007699999841861427,-0.001180000021122396,0.2824400067329407
6637.230583618209,1319665.0,-0.02353999949991703,0.00798999983817339,0.002409999957308173,0.2777700126171112
6637.231583390424,1319666.0,-0.03198999911546707,-0.0007699999841861427,-0.0008200000156648457,0.2811099886894226
6637.2325831626395,1319667.0,-0.03387000039219856,-0.0018599999602884054,-0.004629999864846468,0.2829900085926056
6637.233582934855,1319668.0,-0.035760000348091125,-0.001449999981559813,-0.002630000002682209,0.27932998538017273
6637.23458270707,1319669.0,-0.03720000013709068,-0.008630000054836273,-0.005489999894052744,0.2833099961280823
6637.235582479285,1319670.0,-0.03513000160455704,-0.00571999978274107,-0.00571999978274107,0.28134000301361084
6637.2365822515,1319671.0,-0.02897999994456768,-0.00494999997317791,0.003220000071451068,0.28624001145362854
6637.237582023716,1319672.0,-0.01810000091791153,-0.007040000054985285,-0.003949999809265137,0.2815699875354767
6637.238581795931,1319673.0,-0.005929999984800816,0.00031999999191612005,0.00031999999191612005,0.2867000102996826
6637.239581568147,1319674.0,0.003370000049471855,0.0016799999866634607,0.00031999999191612005,0.2841300070285797
6637.240581340362,1319675.0,0.010420000180602074,-0.0014100000262260437,0.00203999993391335,0.2897599935531616
6637.241581112577,1319676.0,0.0147299999371171,0.004860000219196081,-0.000910000002477318,0.2796500027179718
6637.242580884792,1319677.0,0.016039999201893806,0.0021299999207258224,0.0030400000978261232,0.2931100130081177
6637.243580657007,1319678.0,0.015359999611973763,0.0017300000181421638,0.0013200000394135714,0.2779099941253662
6637.244580429223,1319679.0,0.013749999925494194,0.0021299999207258224,-0.001449999981559813,0.29328998923301697
6637.245580201438,1319680.0,0.012760000303387642,-0.0002300000051036477,0.0034099998883903027,0.28971999883651733
6637.246579973653,1319681.0,0.010420000180602074,0.00031999999191612005,-0.0009500000160187483,0.29260000586509705
6637.247579745868,1319682.0,0.008630000054836273,0.004220000002533197,-0.0036800000816583633,0.2903600037097931
6637.248579518084,1319683.0,0.004540000110864639,0.0018599999602884054,0.002589999930933118,0.29328998923301697
6637.249579290299,1319684.0,-0.0017999999690800905,0.005770000163465738,-0.0013200000394135714,0.2939800024032593
6637.250579062515,1319685.0,-0.009840000420808792,0.007079999893903732,-0.004040000028908253,0.2914600074291229
6637.25157883473,1319686.0,-0.01508999988436699,0.0011399999493733048,0.00571999978274107,0.2964000105857849
6637.252578606945,1319687.0,-0.015589999966323376,-0.0021800000686198473,-0.0017300000181421638,0.2930600047111511
6637.25357837916,1319688.0,-0.01384000014513731,-0.0016799999866634607,-0.00571999978274107,0.29892000555992126
6637.254578151375,1319689.0,-0.008449999615550041,-0.005489999894052744,0.0017300000181421638,0.2910900115966797
6637.255577923591,1319690.0,0.0017099999822676182,-0.006219999864697456,-0.0007699999841861427,0.30226001143455505
6637.256577695806,1319691.0,0.014820000156760216,-0.006579999811947346,-0.0031799999997019768,0.28925999999046326
6637.257577468021,1319692.0,0.024660000577569008,-0.006810000166296959,-0.0016299999551847577,0.30331000685691833
6637.258577240236,1319693.0,0.030009999871253967,0.001230000052601099,0.006130000110715628,0.29100000858306885
6637.259577012452,1319694.0,0.032519999891519547,0.0013599999947473407,-0.001769999973475933,0.30469000339508057
6637.260576784667,1319695.0,0.03347000107169151,-0.0011399999493733048,-0.003860000055283308,0.28925999999046326
6637.261576556883,1319696.0,0.033330000936985016,0.0030400000978261232,0.004220000002533197,0.30647000670433044
6637.262576329097,1319697.0,0.034860000014305115,-0.0007300000288523734,0.00031999999191612005,0.29205000400543213
6637.2635761013125,1319698.0,0.03720000013709068,0.00267999991774559,0.00031999999191612005,0.3081200122833252
6637.264575873528,1319699.0,0.037470001727342606,0.003000000026077032,0.004040000028908253,0.2923299968242645
6637.265575645743,1319700.0,0.03449999913573265,-0.000859999970998615,-0.0016299999551847577,0.30921998620033264
6637.266575417959,1319701.0,0.03248000144958496,0.003220000071451068,0.00031999999191612005,0.3037700057029724
6637.267575190173,1319702.0,0.029330000281333923,-0.0014100000262260437,0.003449999960139394,0.30904000997543335
6637.268574962389,1319703.0,0.02053000032901764,0.003719999920576811,0.00203999993391335,0.3047800064086914
6637.269574734604,1319704.0,0.007230000104755163,0.006130000110715628,0.0013599999947473407,0.30807000398635864
6637.27057450682,1319705.0,-0.009340000338852406,0.002409999957308173,0.004540000110864639,0.30976998805999756
6637.271574279035,1319706.0,-0.019139999523758888,0.004089999943971634,-0.0010000000474974513,0.3079400062561035
6637.272574051251,1319707.0,-0.021740000694990158,0.0010000000474974513,-0.0027699999045580626,0.3079400062561035
6637.273573823465,1319708.0,-0.019899999722838402,-0.001769999973475933,0.00031999999191612005,0.3121500015258789
6637.2745735956805,1319709.0,-0.009879999794065952,-0.004220000002533197,0.0010400000028312206,0.30963000655174255
6637.275573367896,1319710.0,0.0031399999279528856,-0.005590000189840794,-0.006769999861717224,0.31415998935699463
6637.276573140111,1319711.0,0.015449999831616879,-0.005489999894052744,0.005770000163465738,0.3093999922275543
6637.277572912327,1319712.0,0.027400000020861626,-0.0033199999015778303,-0.0022299999836832285,0.31338998675346375
6637.278572684541,1319713.0,0.03976000100374222,-0.003909999970346689,-0.0010400000028312206,0.31292998790740967
6637.279572456757,1319714.0,0.04766000062227249,0.0030400000978261232,0.0016299999551847577,0.3108699917793274
6637.280572228972,1319715.0,0.05130000039935112,0.002319999970495701,-0.000910000002477318,0.31525999307632446
6637.281572001188,1319716.0,0.05390999838709831,-0.00203999993391335,-0.002950000111013651,0.3130599856376648
6637.282571773403,1319717.0,0.053769998252391815,0.003220000071451068,0.0059899999760091305,0.31672999262809753
6637.2835715456185,1319718.0,0.0528700016438961,0.004310000222176313,-0.0036299999337643385,0.31365999579429626
6637.284571317833,1319719.0,0.05268999934196472,0.00031999999191612005,-0.0034099998883903027,0.3192000091075897
6637.2855710900485,1319720.0,0.052560001611709595,0.0022299999836832285,0.0010400000028312206,0.3082999885082245
6637.286570862264,1319721.0,0.0514799989759922,0.00014000000373926014,0.002319999970495701,0.31929001212120056
6637.287570634479,1319722.0,0.048920001834630966,0.001230000052601099,-0.002859999891370535,0.3225899934768677
6637.288570406695,1319723.0,0.04187000170350075,0.006039999891072512,0.0013599999947473407,0.3161799907684326
6637.289570178909,1319724.0,0.03162999823689461,0.004540000110864639,-0.0037700000684708357,0.3076600134372711
6637.290569951125,1319725.0,0.02133999951183796,0.006899999920278788,0.0019499999471008778,0.3207100033760071
6637.29156972334,1319726.0,0.012310000136494637,0.0018599999602884054,0.00031999999191612005,0.3219499886035919
6637.292569495556,1319727.0,0.007550000213086605,-0.004410000052303076,-0.0036800000816583633,0.30963000655174255
6637.293569267771,1319728.0,0.00646999990567565,0.00031999999191612005,-0.0034099998883903027,0.32245001196861267
6637.2945690399865,1319729.0,0.009159999899566174,-0.0051299999468028545,-0.0013200000394135714,0.3225399851799011
6637.295568812201,1319730.0,0.014469999819993973,-0.008899999782443047,-0.0037700000684708357,0.3108699917793274
6637.2965685844165,1319731.0,0.02022000029683113,-0.005489999894052744,0.0030900000128895044,0.3241400122642517
6637.297568356632,1319732.0,0.025699999183416367,-0.0059899999760091305,0.0010400000028312206,0.32642999291419983
6637.298568128847,1319733.0,0.03288000077009201,-0.003220000071451068,-0.0033199999015778303,0.31746000051498413
6637.299567901063,1319734.0,0.041510000824928284,-0.00014000000373926014,0.0018599999602884054,0.32491999864578247
6637.300567673277,1319735.0,0.047439999878406525,0.0031799999997019768,-0.003269999986514449,0.32912999391555786
6637.301567445493,1319736.0,0.05071999877691269,0.004629999864846468,0.0027699999045580626,0.3196600079536438
6637.302567217708,1319737.0,0.04967999830842018,0.002859999891370535,0.003220000071451068,0.32552000880241394
6637.303566989924,1319738.0,0.04816000163555145,0.0016799999866634607,0.00018000000272877514,0.33028000593185425
6637.304566762139,1319739.0,0.044199999421834946,0.000859999970998615,0.0027699999045580626,0.32102999091148376
6637.3055665343545,1319740.0,0.04343999922275543,0.0015399999683722854,-0.0009500000160187483,0.32697999477386475
6637.306566306569,1319741.0,0.04343999922275543,0.001820000004954636,-0.000859999970998615,0.3306399881839752
6637.3075660787845,1319742.0,0.04042999818921089,0.001769999973475933,0.0010000000474974513,0.32541999220848083
6637.308565851,1319743.0,0.032340001314878464,0.006039999891072512,-0.0014100000262260437,0.32607001066207886
6637.309565623215,1319744.0,0.019899999722838402,0.004679999779909849,-0.0016299999551847577,0.3315599858760834
6637.310565395431,1319745.0,0.005030000116676092,0.006990000139921904,0.0018599999602884054,0.3271600008010864
6637.311565167645,1319746.0,-0.005880000069737434,0.004310000222176313,-0.0016799999866634607,0.32752999663352966
6637.312564939861,1319747.0,-0.009519999846816063,0.0015899999998509884,-0.004410000052303076,0.3323799967765808
6637.313564712076,1319748.0,-0.005570000037550926,-0.004220000002533197,-0.0015899999998509884,0.33278998732566833
6637.314564484292,1319749.0,0.003819999983534217,-0.004410000052303076,-0.005040000192821026,0.3206599950790405
6637.315564256507,1319750.0,0.018060000613331795,-0.005859999917447567,-0.005489999894052744,0.3328399956226349
6637.3165640287225,1319751.0,0.033240001648664474,-0.004860000219196081,0.003909999970346689,0.3342599868774414
6637.317563800937,1319752.0,0.04771000146865845,-0.006219999864697456,-0.0002699999895412475,0.32295000553131104
6637.3185635731525,1319753.0,0.060019999742507935,-0.0051299999468028545,0.0024999999441206455,0.3332099914550781
6637.319563345368,1319754.0,0.06869000196456909,-0.0010400000028312206,-0.0008200000156648457,0.33682000637054443
6637.320563117583,1319755.0,0.07479999959468842,0.0021299999207258224,0.0002300000051036477,0.32532998919487
6637.321562889799,1319756.0,0.07780999690294266,0.0015899999998509884,0.003220000071451068,0.33722999691963196
6637.322562662013,1319757.0,0.07507000118494034,0.0015399999683722854,-0.0015899999998509884,0.3320600092411041
6637.323562434229,1319758.0,0.06764999777078629,0.003539999946951866,0.005900000222027302,0.3320600092411041
6637.324562206444,1319759.0,0.060920000076293945,0.00267999991774559,0.0016299999551847577,0.33522000908851624
6637.32556197866,1319760.0,0.05812999978661537,0.0029100000392645597,0.003220000071451068,0.3330700099468231
6637.326561750875,1319761.0,0.057009998708963394,-0.002319999970495701,-0.0019499999471008778,0.336870014667511
6637.32756152309,1319762.0,0.05601999908685684,0.0002699999895412475,-0.0002300000051036477,0.33278998732566833
6637.328561295305,1319763.0,0.05211000144481659,0.005950000137090683,0.002859999891370535,0.3360399901866913
6637.32956106752,1319764.0,0.04546000063419342,0.003220000071451068,-0.0003600000054575503,0.3343000113964081
6637.330560839736,1319765.0,0.037470001727342606,0.007579999975860119,-0.0028200000524520874,0.33709999918937683
6637.331560611951,1319766.0,0.028839999809861183,0.003220000071451068,0.001769999973475933,0.3306399881839752
6637.332560384166,1319767.0,0.0257399994879961,-0.002090000081807375,0.00031999999191612005,0.3401600122451782
6637.333560156381,1319768.0,0.027489999309182167,0.0013200000394135714,-0.005679999943822622,0.3313800096511841
6637.334559928597,1319769.0,0.03454999998211861,-0.007540000136941671,-0.0007699999841861427,0.3390200138092041
6637.335559700812,1319770.0,0.041600000113248825,-0.010579999536275864,-0.0015899999998509884,0.3335700035095215
6637.336559473028,1319771.0,0.04761999845504761,-0.00494999997317791,-0.0010400000028312206,0.3401600122451782
6637.337559245243,1319772.0,0.052069999277591705,-0.00494999997317791,0.002589999930933118,0.3348099887371063
6637.338559017458,1319773.0,0.05463000014424324,-0.001230000052601099,0.0031799999997019768,0.33956998586654663
6637.339558789673,1319774.0,0.05615000054240227,0.000910000002477318,-0.004449999891221523,0.33562999963760376
6637.340558561888,1319775.0,0.05610999837517738,-0.0007699999841861427,0.005950000137090683,0.3411700129508972
6637.341558334104,1319776.0,0.05490000173449516,0.0036800000816583633,0.00031999999191612005,0.3304100036621094
6637.342558106319,1319777.0,0.05319000035524368,0.00535999983549118,-0.0033599999733269215,0.3430899977684021
6637.343557878534,1319778.0,0.05031000077724457,0.002319999970495701,0.0037700000684708357,0.3274399936199188
6637.344557650749,1319779.0,0.04918999969959259,0.005900000222027302,0.000859999970998615,0.3439599871635437
6637.345557422965,1319780.0,0.046539999544620514,0.00203999993391335,-0.003590000094845891,0.32684001326560974
6637.34655719518,1319781.0,0.04707999899983406,0.00031999999191612005,0.003860000055283308,0.34345999360084534
6637.347556967396,1319782.0,0.04887999966740608,0.004999999888241291,-0.0005000000237487257,0.32986000180244446
6637.348556739611,1319783.0,0.045419998466968536,0.0016799999866634607,-0.0033199999015778303,0.34488001465797424
6637.3495565118255,1319784.0,0.03522000089287758,0.006949999835342169,0.00031999999191612005,0.3305099904537201
6637.350556284041,1319785.0,0.02111000008881092,0.00494999997317791,-0.001500000013038516,0.34373000264167786
6637.351556056256,1319786.0,0.008310000412166119,-4.999999873689376e-05,-0.003719999920576811,0.33577001094818115
6637.352555828472,1319787.0,-0.0006300000241026282,-0.0010400000028312206,-0.0016799999866634607,0.34213000535964966
6637.353555600687,1319788.0,-0.008220000192523003,-0.008129999972879887,-0.0022299999836832285,0.3393400013446808
6637.354555372902,1319789.0,-0.00773000018671155,-0.0021800000686198473,-0.003719999920576811,0.34066998958587646
6637.355555145117,1319790.0,-0.0003600000054575503,-0.00872000027447939,0.0028200000524520874,0.34272998571395874
6637.356554917333,1319791.0,0.009519999846816063,-0.002950000111013651,-0.0022700000554323196,0.33893001079559326
6637.357554689548,1319792.0,0.021379999816417694,-0.007670000195503235,-0.0018599999602884054,0.3454299867153168
6637.358554461764,1319793.0,0.030460000038146973,-0.004860000219196081,0.007449999917298555,0.34125998616218567
6637.359554233979,1319794.0,0.035259999334812164,-0.001180000021122396,0.0018599999602884054,0.34053000807762146
6637.3605540061935,1319795.0,0.04024999961256981,-0.0010000000474974513,-0.0010400000028312206,0.33983999490737915
6637.361553778409,1319796.0,0.043219998478889465,0.00031999999191612005,0.0024999999441206455,0.34470000863075256
6637.362553550624,1319797.0,0.04303999990224838,0.005400000140070915,0.0013200000394135714,0.34084999561309814
6637.36355332284,1319798.0,0.04145999997854233,0.00494999997317791,0.000910000002477318,0.34529000520706177
6637.364553095055,1319799.0,0.037379998713731766,0.007040000054985285,0.0010400000028312206,0.34011998772621155
6637.36555286727,1319800.0,0.03449999913573265,0.0015899999998509884,-0.0012700000079348683,0.34602001309394836
6637.366552639485,1319801.0,0.029330000281333923,-0.0013599999947473407,-0.0021800000686198473,0.34081000089645386
6637.367552411701,1319802.0,0.01841999962925911,0.004410000052303076,9.000000136438757e-05,0.34446999430656433
6637.368552183916,1319803.0,-0.00279000005684793,0.006130000110715628,0.001820000004954636,0.34071001410484314
6637.3695519561315,1319804.0,-0.030009999871253967,0.004220000002533197,-0.0003600000054575503,0.3444199860095978
6637.370551728347,1319805.0,-0.06015000119805336,0.008489999920129776,-0.0009500000160187483,0.3421800136566162
6637.3715515005615,1319806.0,-0.08597999811172485,0.002859999891370535,0.0031300000846385956,0.3401600122451782
6637.372551272777,1319807.0,-0.10538999736309052,-0.0030900000128895044,-0.002589999930933118,0.3423599898815155
6637.373551044992,1319808.0,-0.11931999772787094,0.0014100000262260437,-0.003000000026077032,0.3411700129508972
6637.374550817208,1319809.0,-0.12762999534606934,-0.004040000028908253,0.00031999999191612005,0.34400999546051025
6637.375550589423,1319810.0,-0.1304599940776825,-0.006490000057965517,-0.002630000002682209,0.3401600122451782
6637.376550361638,1319811.0,-0.13050000369548798,-0.004900000058114529,-0.0009500000160187483,0.3453800082206726
6637.377550133853,1319812.0,-0.12857000529766083,-0.006579999811947346,0.0021800000686198473,0.33417001366615295
6637.378549906069,1319813.0,-0.12520000338554382,-0.004360000137239695,0.001230000052601099,0.3468500077724457
6637.379549678284,1319814.0,-0.12273000180721283,-0.0007699999841861427,-0.001180000021122396,0.33114999532699585
6637.3805494504995,1319815.0,-0.123539999127388,4.999999873689376e-05,0.005400000140070915,0.34749001264572144
6637.381549222715,1319816.0,-0.1263200044631958,0.003449999960139394,0.00031999999191612005,0.33013999462127686
6637.3825489949295,1319817.0,-0.12775999307632446,0.004449999891221523,-0.0015899999998509884,0.3471199870109558
6637.383548767145,1319818.0,-0.12848000228405,-0.0030400000978261232,-0.0009500000160187483,0.3410300016403198
6637.38454853936,1319819.0,-0.130280002951622,0.0024999999441206455,0.005090000107884407,0.3435100018978119
6637.385548311576,1319820.0,-0.13112999498844147,0.003220000071451068,-0.001230000052601099,0.341949999332428
6637.386548083791,1319821.0,-0.12842999398708344,-0.0021800000686198473,-0.0021800000686198473,0.34703001379966736
6637.387547856006,1319822.0,-0.12056999653577805,0.0045900000259280205,-0.00018000000272877514,0.33636000752449036
6637.388547628221,1319823.0,-0.11311999708414078,0.009669999592006207,0.0019499999471008778,0.34749001264572144
6637.389547400437,1319824.0,-0.1083500012755394,0.00535999983549118,0.0035000001080334187,0.3343000113964081
6637.390547172652,1319825.0,-0.10493999719619751,0.011900000274181366,-0.00267999991774559,0.34602001309394836
6637.3915469448675,1319826.0,-0.09560000151395798,0.003220000071451068,0.0002699999895412475,0.3328399956226349
6637.392546717082,1319827.0,-0.07794000208377838,-0.000590000010561198,0.003909999970346689,0.3469400107860565
6637.3935464892975,1319828.0,-0.05665000155568123,0.000859999970998615,0.0016299999551847577,0.3296400010585785
6637.394546261513,1319829.0,-0.027089999988675117,-0.003539999946951866,-0.003809999907389283,0.34602001309394836
6637.395546033728,1319830.0,0.010239999741315842,-0.0076299998909235,-0.0002699999895412475,0.3404799997806549
6637.396545805944,1319831.0,0.05282999947667122,-0.002589999930933118,0.003220000071451068,0.3418999910354614
6637.397545578158,1319832.0,0.09747999906539917,-0.0030400000978261232,-0.0013200000394135714,0.34011998772621155
6637.398545350374,1319833.0,0.14124000072479248,-0.0010000000474974513,0.005270000081509352,0.33939000964164734
6637.399545122589,1319834.0,0.17754000425338745,0.004129999782890081,0.0037700000684708357,0.34259000420570374
6637.400544894805,1319835.0,0.20430999994277954,0.001230000052601099,-0.0010400000028312206,0.334850013256073
6637.40154466702,1319836.0,0.22182999551296234,0.004310000222176313,-0.003860000055283308,0.3454299867153168
6637.4025444392355,1319837.0,0.22982999682426453,0.003449999960139394,0.004769999999552965,0.33796998858451843
6637.40354421145,1319838.0,0.2386299967765808,0.005630000028759241,-0.004040000028908253,0.3423199951648712
6637.4045439836655,1319839.0,0.25407999753952026,0.0018599999602884054,-0.003860000055283308,0.34081000089645386
6637.405543755881,1319840.0,0.2747499942779541,0.0024500000290572643,0.002360000042244792,0.3367300033569336
6637.406543528096,1319841.0,0.29846999049186707,0.00031999999191612005,-0.0007300000288523734,0.33869999647140503
6637.407543300312,1319842.0,0.31679999828338623,0.003449999960139394,-0.003909999970346689,0.34400999546051025
6637.408543072526,1319843.0,0.31876999139785767,0.006039999891072512,0.0019099999917671084,0.33594998717308044
6637.409542844742,1319844.0,0.31400999426841736,0.004129999782890081,0.00018000000272877514,0.3375999927520752
6637.410542616957,1319845.0,0.3031400144100189,0.004129999782890081,-0.004000000189989805,0.3416300117969513
6637.411542389173,1319846.0,0.2875100076198578,0.002630000002682209,0.0010000000474974513,0.3356800079345703
6637.412542161388,1319847.0,0.2718699872493744,-0.002589999930933118,-0.0020000000949949026,0.33489999175071716
6637.4135419336035,1319848.0,0.2559700012207031,-0.005179999861866236,-0.005810000002384186,0.34200000762939453
6637.414541705818,1319849.0,0.24563999474048615,-0.00949000008404255,-0.0016799999866634607,0.3351300060749054
6637.415541478033,1319850.0,0.24473999440670013,-0.007540000136941671,-0.0014100000262260437,0.33939000964164734
6637.416541250249,1319851.0,0.2498600035905838,-0.004360000137239695,-0.00571999978274107,0.33476001024246216
6637.417541022464,1319852.0,0.26208001375198364,-0.004089999943971634,0.001230000052601099,0.33522000908851624
6637.41854079468,1319853.0,0.2727699875831604,-0.002630000002682209,0.00031999999191612005,0.336870014667511
6637.419540566894,1319854.0,0.27978000044822693,-0.00267999991774559,0.001769999973475933,0.3328399956226349
6637.42054033911,1319855.0,0.2864300012588501,-0.000590000010561198,0.001769999973475933,0.33562999963760376
6637.421540111325,1319856.0,0.2862499952316284,0.003220000071451068,0.00031999999191612005,0.33256998658180237
6637.422539883541,1319857.0,0.2734900116920471,0.0028200000524520874,-0.0002300000051036477,0.3353999853134155
6637.423539655756,1319858.0,0.25165998935699463,0.001230000052601099,-0.0012700000079348683,0.3315599858760834
6637.4245394279715,1319859.0,0.22892999649047852,0.005040000192821026,0.000859999970998615,0.3343000113964081
6637.425539200186,1319860.0,0.20732000470161438,0.0021299999207258224,-0.002589999930933118,0.3313800096511841
6637.426538972401,1319861.0,0.1882299929857254,0.0020000000949949026,0.004089999943971634,0.334989994764328
6637.427538744617,1319862.0,0.16859999299049377,0.003220000071451068,0.002859999891370535,0.32541999220848083
6637.428538516832,1319863.0,0.14284999668598175,0.008170000277459621,-0.0021800000686198473,0.3348099887371063
6637.429538289048,1319864.0,0.1132500022649765,0.006630000192672014,0.00014000000373926014,0.32363998889923096
6637.430538061262,1319865.0,0.08562000095844269,0.0076299998909235,0.0002699999895412475,0.3355399966239929
6637.431537833478,1319866.0,0.06069000065326691,0.003220000071451068,-0.0007300000288523734,0.31891998648643494
6637.432537605693,1319867.0,0.0368800014257431,0.0002300000051036477,-0.0036800000816583633,0.32912999391555786
6637.433537377909,1319868.0,0.017340000718832016,-0.005859999917447567,-0.0030400000978261232,0.33169999718666077
6637.434537150124,1319869.0,0.006560000125318766,-0.004040000028908253,-0.0014100000262260437,0.32697999477386475
6637.435536922339,1319870.0,0.005030000116676092,-0.008949999697506428,0.003949999809265137,0.3246900141239166
6637.436536694554,1319871.0,0.00925000011920929,-0.005489999894052744,0.003949999809265137,0.3315599858760834
6637.437536466769,1319872.0,0.017430000007152557,-0.005489999894052744,-0.0022700000554323196,0.32684001326560974
6637.438536238985,1319873.0,0.024080000817775726,-0.001230000052601099,0.00014000000373926014,0.3247799873352051
6637.4395360112,1319874.0,0.02443999983370304,0.0010900000343099236,-4.999999873689376e-05,0.3291800022125244
6637.440535783416,1319875.0,0.021740000694990158,0.0015399999683722854,0.0030400000978261232,0.31869998574256897
6637.44153555563,1319876.0,0.020169999450445175,-0.0018599999602884054,0.0009500000160187483,0.3299599885940552
6637.442535327846,1319877.0,0.019500000402331352,0.003220000071451068,-0.0002300000051036477,0.31380000710487366
6637.443535100061,1319878.0,0.017069999128580093,0.005400000140070915,0.00031999999191612005,0.32945001125335693
6637.444534872277,1319879.0,0.012260000221431255,0.003220000071451068,0.004809999838471413,0.31205999851226807
6637.445534644492,1319880.0,0.00872000027447939,-0.004410000052303076,-0.0006799999973736703,0.3278000056743622
6637.446534416707,1319881.0,0.009209999814629555,0.0016299999551847577,-0.0016799999866634607,0.32221999764442444
6637.447534188922,1319882.0,0.009879999794065952,0.00267999991774559,-0.0037700000684708357,0.32076001167297363
6637.448533961137,1319883.0,0.005030000116676092,0.0022299999836832285,0.005090000107884407,0.32455000281333923
6637.449533733353,1319884.0,-0.004490000195801258,0.006810000166296959,0.0011399999493733048,0.32034000754356384
6637.450533505568,1319885.0,-0.015990000218153,0.007040000054985285,-0.0021299999207258224,0.3239099979400635
6637.451533277784,1319886.0,-0.02717999927699566,0.002859999891370535,0.00031999999191612005,0.3184700012207031
6637.452533049998,1319887.0,-0.0350399985909462,0.0015399999683722854,-0.0027199999894946814,0.32203999161720276
6637.453532822214,1319888.0,-0.04016000032424927,-0.0030400000978261232,-0.0017300000181421638,0.3186500072479248
6637.454532594429,1319889.0,-0.04222999885678291,-0.006219999864697456,-0.0011399999493733048,0.32148998975753784
6637.455532366645,1319890.0,-0.0408799983561039,-0.005489999894052744,-0.0016299999551847577,0.31672999262809753
6637.45653213886,1319891.0,-0.03539999946951866,-0.0036800000816583633,0.002859999891370535,0.31929001212120056
6637.4575319110745,1319892.0,-0.02525000087916851,-0.004040000028908253,-0.002319999970495701,0.3184700012207031
6637.45853168329,1319893.0,-0.015860000625252724,-0.004089999943971634,-0.0030900000128895044,0.31782999634742737
6637.459531455505,1319894.0,-0.011049999855458736,4.999999873689376e-05,0.00686000008136034,0.3149000108242035
6637.460531227721,1319895.0,-0.007819999940693378,-0.0002699999895412475,0.0031300000846385956,0.3200699985027313
6637.461530999936,1319896.0,-0.004000000189989805,0.0024999999441206455,-0.0030400000978261232,0.30976998805999756
6637.462530772151,1319897.0,-0.0037299999967217445,0.004129999782890081,-0.003539999946951866,0.3200699985027313
6637.463530544366,1319898.0,-0.005210000090301037,0.00031999999191612005,0.006680000107735395,0.30500999093055725
6637.464530316582,1319899.0,-0.007639999967068434,0.0009500000160187483,0.003220000071451068,0.3173699975013733
6637.465530088797,1319900.0,-0.009569999761879444,0.00031999999191612005,-0.006130000110715628,0.31466999650001526
6637.4665298610125,1319901.0,-0.012260000221431255,-0.000910000002477318,0.0016799999866634607,0.3123300075531006
6637.467529633228,1319902.0,-0.016170000657439232,0.0021299999207258224,-4.999999873689376e-05,0.3162199854850769
6637.4685294054425,1319903.0,-0.02443999983370304,0.006130000110715628,-0.0021800000686198473,0.30382001399993896
6637.469529177658,1319904.0,-0.03477000072598457,0.007040000054985285,-0.0012700000079348683,0.31626999378204346
6637.470528949873,1319905.0,-0.04388999938964844,0.0037700000684708357,-0.0016299999551847577,0.3131999969482422
6637.471528722089,1319906.0,-0.04941999912261963,0.004220000002533197,0.00031999999191612005,0.31018000841140747
6637.472528494304,1319907.0,-0.05067000165581703,0.00031999999191612005,-0.001449999981559813,0.31452998518943787
6637.473528266519,1319908.0,-0.04986000061035156,-0.003000000026077032,-0.004269999917596579,0.30281001329421997
6637.474528038734,1319909.0,-0.04416000097990036,-0.0045900000259280205,0.0002300000051036477,0.3156299889087677
6637.47552781095,1319910.0,-0.03477000072598457,-0.003949999809265137,0.00203999993391335,0.3084399998188019
6637.476527583165,1319911.0,-0.02273000031709671,-0.0033599999733269215,0.004679999779909849,0.3086700141429901
6637.4775273553805,1319912.0,-0.007189999800175428,-0.007899999618530273,-0.000590000010561198,0.311599999666214
6637.478527127596,1319913.0,0.007230000104755163,-0.0015899999998509884,-0.0033199999015778303,0.30037999153137207
6637.4795268998105,1319914.0,0.014550000429153442,0.00031999999191612005,-0.001500000013038516,0.31279000639915466
6637.480526672026,1319915.0,0.015990000218153,-0.0002699999895412475,0.004809999838471413,0.3063400089740753
6637.481526444241,1319916.0,0.014469999819993973,-0.0010400000028312206,0.000910000002477318,0.30500999093055725
6637.482526216457,1319917.0,0.012849999591708183,0.0059899999760091305,-0.0019099999917671084,0.3082999885082245
6637.483525988672,1319918.0,0.0088900001719594,0.0034099998883903027,-0.005859999917447567,0.2991499900817871
6637.484525760887,1319919.0,0.0028800000436604023,-0.002589999930933118,-9.000000136438757e-05,0.3075299859046936
6637.485525533102,1319920.0,-0.00215999991632998,0.002360000042244792,0.001769999973475933,0.30469000339508057
6637.486525305318,1319921.0,-0.004939999897032976,0.0034099998883903027,-0.0017300000181421638,0.30285999178886414
6637.487525077533,1319922.0,-0.007139999885112047,0.0030400000978261232,0.00031999999191612005,0.3084000051021576
6637.4885248497485,1319923.0,-0.013389999978244305,0.002859999891370535,0.005770000163465738,0.29328998923301697
6637.489524621964,1319924.0,-0.023669999092817307,0.010490000247955322,0.0010000000474974513,0.3047800064086914
6637.4905243941785,1319925.0,-0.03629999980330467,0.00749000022187829,-0.0024999999441206455,0.3008899986743927
6637.491524166394,1319926.0,-0.04569000005722046,-0.001769999973475933,0.00031999999191612005,0.29910001158714294
6637.492523938609,1319927.0,-0.0514799989759922,0.00031999999191612005,-0.001500000013038516,0.30500999093055725
6637.493523710825,1319928.0,-0.04879000037908554,-0.0013599999947473407,-0.003000000026077032,0.2945300042629242
6637.49452348304,1319929.0,-0.037379998713731766,-0.0071299998089671135,-0.004269999917596579,0.30153000354766846
6637.495523255255,1319930.0,-0.022690000012516975,-0.004900000058114529,-0.0013599999947473407,0.2983199954032898
6637.49652302747,1319931.0,-0.012040000408887863,-0.00494999997317791,0.00031999999191612005,0.2975899875164032
6637.497522799686,1319932.0,-0.005030000116676092,-0.004089999943971634,-0.004040000028908253,0.3023500144481659
6637.498522571901,1319933.0,0.005030000116676092,-0.003860000055283308,0.0012700000079348683,0.2860099971294403
6637.4995223441165,1319934.0,0.01257999986410141,0.0014100000262260437,0.0024999999441206455,0.30083999037742615
6637.500522116332,1319935.0,0.014820000156760216,0.0022299999836832285,0.0021299999207258224,0.28957998752593994
6637.501521888546,1319936.0,0.015809999778866768,0.001180000021122396,-0.0009500000160187483,0.29585000872612
6637.502521660762,1319937.0,0.015769999474287033,0.0008200000156648457,-0.0013599999947473407,0.2966800034046173
6637.503521432977,1319938.0,0.013120000250637531,0.0037700000684708357,0.000859999970998615,0.2841799855232239
6637.504521205193,1319939.0,0.007819999940693378,0.0034099998883903027,0.0024999999441206455,0.2943899929523468
6637.505520977408,1319940.0,0.00279000005684793,0.0010000000474974513,0.0013200000394135714,0.29534998536109924
6637.506520749623,1319941.0,-0.0006300000241026282,0.00031999999191612005,-0.002589999930933118,0.2842699885368347
6637.507520521838,1319942.0,-0.00215999991632998,0.0002300000051036477,-0.0021800000686198473,0.2944299876689911
6637.508520294054,1319943.0,-0.008089999668300152,0.0052200001664459705,-0.0021800000686198473,0.29291999340057373
6637.509520066269,1319944.0,-0.019770000129938126,0.005770000163465738,0.00535999983549118,0.28317001461982727
6637.5105198384845,1319945.0,-0.03279000148177147,0.0019499999471008778,0.00031999999191612005,0.2945300042629242
6637.5115196107,1319946.0,-0.042810000479221344,-0.0006399999838322401,-0.000859999970998615,0.29072999954223633
6637.512519382914,1319947.0,-0.04806999862194061,0.00494999997317791,-0.003220000071451068,0.2856900095939636
6637.51351915513,1319948.0,-0.04958999902009964,-0.0011399999493733048,0.0016299999551847577,0.29328998923301697
6637.514518927345,1319949.0,-0.04388999938964844,-0.006949999835342169,-0.0007699999841861427,0.2773599922657013
6637.515518699561,1319950.0,-0.03158000111579895,-0.005090000107884407,-0.004220000002533197,0.289900004863739
6637.516518471776,1319951.0,-0.016349999234080315,-0.005900000222027302,0.001769999973475933,0.28885000944137573
6637.517518243991,1319952.0,-0.0007200000109151006,-0.008220000192523003,-0.002589999930933118,0.28047001361846924
6637.518518016206,1319953.0,0.013340000063180923,-0.006579999811947346,0.0021299999207258224,0.2888000011444092
6637.519517788422,1319954.0,0.025289999321103096,-0.0006399999838322401,-0.0028200000524520874,0.28431999683380127
6637.520517560637,1319955.0,0.03513000160455704,0.0021299999207258224,0.001230000052601099,0.2796500027179718
6637.521517332852,1319956.0,0.03584999963641167,0.0027199999894946814,0.002950000111013651,0.2867000102996826
6637.522517105067,1319957.0,0.0282600000500679,0.0019499999471008778,0.004310000222176313,0.28275999426841736
6637.523516877282,1319958.0,0.02012999914586544,0.00535999983549118,-0.0010000000474974513,0.2840900123119354
6637.524516649498,1319959.0,0.016349999234080315,0.00494999997317791,-0.000859999970998615,0.2796899974346161
6637.525516421713,1319960.0,0.012310000136494637,0.0010400000028312206,0.0031799999997019768,0.2835400104522705
6637.526516193929,1319961.0,0.006649999879300594,-0.0045900000259280205,0.0007300000288523734,0.2713199853897095
6637.527515966143,1319962.0,-0.0013899999903514981,0.004679999779909849,0.0036800000816583633,0.2842699885368347
6637.528515738359,1319963.0,-0.009970000013709068,0.009720000438392162,-0.002859999891370535,0.2694399952888489
6637.529515510574,1319964.0,-0.019680000841617584,0.0016299999551847577,-0.0034099998883903027,0.2828100025653839
6637.53051528279,1319965.0,-0.029650000855326653,0.005450000055134296,0.0010400000028312206,0.2691200077533722
6637.531515055005,1319966.0,-0.03458999842405319,0.007269999943673611,0.00418000016361475,0.2813900113105774
6637.53251482722,1319967.0,-0.03458999842405319,-0.001449999981559813,9.000000136438757e-05,0.2678399980068207
6637.533514599435,1319968.0,-0.03189999982714653,-0.0019099999917671084,-0.0005000000237487257,0.2795099914073944
6637.53451437165,1319969.0,-0.02776000089943409,-0.007180000189691782,-0.005489999894052744,0.2687999904155731
6637.535514143866,1319970.0,-0.020889999344944954,-0.005810000002384186,-0.0016799999866634607,0.27713000774383545
6637.536513916081,1319971.0,-0.012129999697208405,-0.00494999997317791,0.002859999891370535,0.2724199891090393
6637.537513688297,1319972.0,-0.0017099999822676182,-0.006949999835342169,-0.00203999993391335,0.2745699882507324
6637.538513460511,1319973.0,0.007590000052005053,-0.00494999997317791,-0.002589999930933118,0.2730099856853485
6637.539513232727,1319974.0,0.013659999705851078,-0.0005000000237487257,0.001500000013038516,0.27167999744415283
6637.540513004942,1319975.0,0.016349999234080315,0.0014100000262260437,0.0030400000978261232,0.273470014333725
6637.541512777158,1319976.0,0.017559999600052834,0.0016799999866634607,0.00031999999191612005,0.27149999141693115
6637.542512549373,1319977.0,0.018640000373125076,0.0012700000079348683,0.0010000000474974513,0.26747000217437744
6637.543512321588,1319978.0,0.019449999555945396,-0.001230000052601099,-0.000859999970998615,0.2744799852371216
6637.544512093803,1319979.0,0.02022000029683113,0.0014100000262260437,0.00494999997317791,0.2679300010204315
6637.545511866018,1319980.0,0.0200399998575449,0.0071299998089671135,-0.0027199999894946814,0.266510009765625
6637.546511638234,1319981.0,0.022099999710917473,0.001230000052601099,-0.0002699999895412475,0.2714099884033203
6637.547511410449,1319982.0,0.025110000744462013,0.00031999999191612005,-0.0019099999917671084,0.26467999815940857
6637.548511182665,1319983.0,0.021740000694990158,0.0024999999441206455,0.0027199999894946814,0.26802000403404236
6637.549510954879,1319984.0,0.011769999749958515,0.0031799999997019768,0.002319999970495701,0.2676500082015991
6637.550510727095,1319985.0,-0.0020699999295175076,0.003949999809265137,0.0021299999207258224,0.2658199965953827
6637.55151049931,1319986.0,-0.014019999653100967,0.004900000058114529,-0.002630000002682209,0.2689799964427948
6637.5525102715255,1319987.0,-0.022099999710917473,-0.0010000000474974513,-0.0010900000343099236,0.25519999861717224
6637.553510043741,1319988.0,-0.02703999914228916,0.001180000021122396,-0.003809999907389283,0.2683899998664856
6637.554509815956,1319989.0,-0.031220000237226486,-0.006719999946653843,-0.004040000028908253,0.258870005607605
6637.555509588171,1319990.0,-0.03305999934673309,-0.007540000136941671,4.999999873689376e-05,0.26499998569488525
6637.556509360386,1319991.0,-0.02947000041604042,-0.005489999894052744,0.0011399999493733048,0.26050999760627747
6637.557509132602,1319992.0,-0.02281999960541725,-0.0033599999733269215,0.0019499999471008778,0.26381000876426697
6637.558508904817,1319993.0,-0.01730000041425228,-0.0019099999917671084,0.001769999973475933,0.2623000144958496
6637.559508677033,1319994.0,-0.012670000083744526,-0.0007699999841861427,9.000000136438757e-05,0.25080999732017517
6637.560508449247,1319995.0,-0.011409999802708626,0.004679999779909849,0.0024999999441206455,0.26399001479148865
6637.561508221463,1319996.0,-0.012400000356137753,0.0022299999836832285,0.00031999999191612005,0.25808998942375183
6637.562507993678,1319997.0,-0.014109999872744083,0.00031999999191612005,-0.002859999891370535,0.2581300139427185
6637.5635077658935,1319998.0,-0.013120000250637531,0.005040000192821026,0.006039999891072512,0.2636300027370453
6637.564507538109,1319999.0,-0.009340000338852406,0.003949999809265137,0.001769999973475933,0.25589001178741455
6637.565507310324,1320000.0,-0.006060000043362379,-0.0018599999602884054,-0.002589999930933118,0.2591400146484375
6637.566507082539,1320001.0,-0.004129999782890081,0.003719999920576811,-0.0006799999973736703,0.2597399950027466
6637.567506854754,1320002.0,-0.008539999835193157,0.0024999999441206455,0.0010000000474974513,0.2493000030517578
6637.56850662697,1320003.0,-0.020980000495910645,9.000000136438757e-05,-0.002589999930933118,0.2591400146484375
6637.569506399185,1320004.0,-0.03279000148177147,0.007579999975860119,0.00031999999191612005,0.2581300139427185
6637.570506171401,1320005.0,-0.04303999990224838,0.004129999782890081,0.00031999999191612005,0.25080999732017517
6637.571505943615,1320006.0,-0.05260000005364418,0.001769999973475933,-0.00494999997317791,0.25731000304222107
6637.572505715831,1320007.0,-0.05866999924182892,0.0034099998883903027,0.004269999917596579,0.2594600021839142
6637.573505488046,1320008.0,-0.0603800006210804,-0.003719999920576811,-0.000539999979082495,0.25080999732017517
6637.5745052602615,1320009.0,-0.05570000037550926,-0.002950000111013651,-0.0031799999997019768,0.2566699981689453
6637.575505032477,1320010.0,-0.04473999887704849,-0.0007699999841861427,-0.0013599999947473407,0.25227001309394836
6637.576504804692,1320011.0,-0.03269999846816063,-0.004769999999552965,0.0028200000524520874,0.25519999861717224
6637.577504576907,1320012.0,-0.019859999418258667,-0.004310000222176313,-0.00267999991774559,0.25571000576019287
6637.578504349122,1320013.0,-0.009429999627172947,-0.004900000058114529,0.00031999999191612005,0.2542400062084198
6637.579504121338,1320014.0,-0.004220000002533197,-0.0006399999838322401,0.0014100000262260437,0.2487500011920929
6637.580503893553,1320015.0,-0.000539999979082495,-0.0009500000160187483,-0.0035000001080334187,0.2568100094795227
6637.581503665769,1320016.0,0.0,-0.0011399999493733048,0.004360000137239695,0.24605000019073486
6637.582503437983,1320017.0,-0.0012100000167265534,0.0013200000394135714,0.0028200000524520874,0.25519999861717224
6637.583503210199,1320018.0,-0.003949999809265137,0.0012700000079348683,0.00031999999191612005,0.24796999990940094
6637.584502982414,1320019.0,-0.004129999782890081,0.0064500002190470695,-0.000590000010561198,0.2524999976158142
6637.5855027546295,1320020.0,-0.0053900000639259815,0.00031999999191612005,-0.004679999779909849,0.24695999920368195
6637.586502526845,1320021.0,-0.009610000066459179,0.004089999943971634,0.0016299999551847577,0.2515000104904175
6637.587502299059,1320022.0,-0.017030000686645508,-9.000000136438757e-05,0.002859999891370535,0.24416999518871307
6637.588502071275,1320023.0,-0.027899999171495438,0.0027199999894946814,0.00031999999191612005,0.25301000475883484
6637.58950184349,1320024.0,-0.038270000368356705,0.0044999998062849045,-0.0002300000051036477,0.23917999863624573
6637.590501615706,1320025.0,-0.04861000180244446,0.006680000107735395,-0.0027199999894946814,0.25181999802589417
6637.591501387921,1320026.0,-0.05651000142097473,0.003220000071451068,-0.004449999891221523,0.244719997048378
6637.592501160136,1320027.0,-0.05951999872922897,-0.00044999999227002263,0.0059899999760091305,0.24764999747276306
6637.593500932351,1320028.0,-0.05623999983072281,0.0008200000156648457,-0.001230000052601099,0.24819999933242798
6637.594500704567,1320029.0,-0.047529999166727066,-0.007899999618530273,-0.005859999917447567,0.2358900010585785
6637.595500476782,1320030.0,-0.036660000681877136,-0.003909999970346689,-0.005090000107884407,0.24910999834537506
6637.5965002489975,1320031.0,-0.024890000000596046,-0.007400000002235174,0.0031799999997019768,0.23830999433994293
6637.597500021213,1320032.0,-0.01384000014513731,-0.0027699999045580626,0.00031999999191612005,0.24640999734401703
6637.598499793427,1320033.0,-0.0031399999279528856,-0.001449999981559813,-0.000859999970998615,0.24165000021457672
6637.599499565643,1320034.0,0.006380000151693821,-9.000000136438757e-05,0.00031999999191612005,0.24517999589443207
6637.600499337858,1320035.0,0.012079999782145023,-0.000910000002477318,0.00031999999191612005,0.23940999805927277
6637.601499110074,1320036.0,0.01508999988436699,0.0031300000846385956,0.004410000052303076,0.2423900067806244
6637.602498882289,1320037.0,0.014910000376403332,0.001769999973475933,-4.999999873689376e-05,0.243259996175766
6637.603498654504,1320038.0,0.010780000127851963,0.002859999891370535,-0.0024500000290572643,0.2405499964952469
6637.604498426719,1320039.0,0.005659999791532755,0.003539999946951866,-0.001500000013038516,0.24445000290870667
6637.605498198935,1320040.0,0.0037700000684708357,-0.0035000001080334187,0.003220000071451068,0.23075999319553375
6637.60649797115,1320041.0,0.0034600000362843275,0.0014100000262260437,-0.0007699999841861427,0.24347999691963196
6637.6074977433655,1320042.0,-0.0022499999031424522,0.0010400000028312206,0.00203999993391335,0.23322999477386475
6637.608497515581,1320043.0,-0.017880000174045563,0.0037700000684708357,-0.0015399999683722854,0.2405499964952469
6637.609497287795,1320044.0,-0.03513000160455704,0.00535999983549118,-0.0007300000288523734,0.23592999577522278
6637.610497060011,1320045.0,-0.04735000059008598,0.008990000002086163,0.001769999973475933,0.2386299967765808
6637.611496832226,1320046.0,-0.054760001599788666,0.001820000004954636,0.0015899999998509884,0.2386299967765808
6637.612496604442,1320047.0,-0.05894000083208084,0.0027699999045580626,-0.004040000028908253,0.227510005235672
6637.613496376657,1320048.0,-0.0603800006210804,0.002409999957308173,0.003220000071451068,0.23871999979019165
6637.614496148872,1320049.0,-0.055080000311136246,-0.002360000042244792,-0.0022299999836832285,0.23670999705791473
6637.615495921087,1320050.0,-0.04527999833226204,-0.007540000136941671,0.0017300000181421638,0.23044000566005707
6637.616495693303,1320051.0,-0.03423000127077103,-0.010219999589025974,-0.0019099999917671084,0.2367600053548813
6637.617495465518,1320052.0,-0.021379999816417694,-0.0035000001080334187,-0.006130000110715628,0.23451000452041626
6637.618495237733,1320053.0,-0.0069599999114871025,-0.001500000013038516,-0.000910000002477318,0.22481000423431396
6637.619495009949,1320054.0,0.00215999991632998,-0.004410000052303076,0.00031999999191612005,0.23657000064849854
6637.620494782163,1320055.0,0.005080000031739473,0.00031999999191612005,0.00031999999191612005,0.23029999434947968
6637.621494554379,1320056.0,0.005570000037550926,0.00203999993391335,0.003909999970346689,0.22366000711917877
6637.622494326594,1320057.0,0.005840000230818987,-9.000000136438757e-05,0.00031999999191612005,0.23569999635219574
6637.62349409881,1320058.0,0.005750000011175871,0.0010400000028312206,-0.0022299999836832285,0.22865000367164612
6637.624493871025,1320059.0,0.004360000137239695,0.0045900000259280205,0.003590000094845891,0.23061999678611755
6637.62549364324,1320060.0,0.003229999914765358,0.0011399999493733048,0.0025400000158697367,0.23409999907016754
6637.626493415455,1320061.0,0.003819999983534217,-0.00041000000783242285,-4.999999873689376e-05,0.22366000711917877
6637.627493187671,1320062.0,0.006649999879300594,0.006130000110715628,0.0002300000051036477,0.23409999907016754
6637.628492959886,1320063.0,0.00547999981790781,0.0021299999207258224,-0.001230000052601099,0.22842000424861908
6637.629492732101,1320064.0,0.0007200000109151006,0.006130000110715628,0.003000000026077032,0.23322999477386475
6637.630492504317,1320065.0,-0.007499999832361937,0.008310000412166119,0.0014100000262260437,0.22269999980926514
6637.631492276531,1320066.0,-0.017969999462366104,0.001769999973475933,-0.002589999930933118,0.23162999749183655
6637.632492048747,1320067.0,-0.024569999426603317,0.00203999993391335,-0.0036800000816583633,0.22540000081062317
6637.633491820962,1320068.0,-0.02622999995946884,-0.00267999991774559,-0.0002699999895412475,0.22883999347686768
6637.634491593178,1320069.0,-0.02232999913394451,-0.0034099998883903027,0.002950000111013651,0.2233400046825409
6637.635491365393,1320070.0,-0.015049999579787254,-0.004629999864846468,-4.999999873689376e-05,0.22833000123500824
6637.636491137608,1320071.0,-0.0047599999234080315,-0.005489999894052744,0.0010400000028312206,0.22224000096321106
6637.637490909823,1320072.0,0.0028800000436604023,-0.004900000058114529,0.0021299999207258224,0.22970999777317047
6637.6384906820385,1320073.0,0.00674000009894371,-0.002409999957308173,-0.0015399999683722854,0.2171200066804886
6637.639490454254,1320074.0,0.008449999615550041,-0.00203999993391335,-0.0027199999894946814,0.22774000465869904
6637.640490226469,1320075.0,0.009840000420808792,-0.002630000002682209,-0.0014100000262260437,0.21505999565124512
6637.641489998685,1320076.0,0.012400000356137753,0.003000000026077032,0.003909999970346689,0.22768999636173248
6637.642489770899,1320077.0,0.015180000104010105,0.0015399999683722854,0.004310000222176313,0.21651999652385712
6637.643489543115,1320078.0,0.015990000218153,0.005179999861866236,0.0014100000262260437,0.22759999334812164
6637.64448931533,1320079.0,0.015629999339580536,0.004449999891221523,0.0015399999683722854,0.21811999380588531
6637.645489087546,1320080.0,0.01348000019788742,0.0008200000156648457,-0.0018599999602884054,0.22429999709129333
6637.646488859761,1320081.0,0.011409999802708626,0.0034099998883903027,0.0010400000028312206,0.21886000037193298
6637.647488631976,1320082.0,0.011590000241994858,0.003220000071451068,0.0034099998883903027,0.212909996509552
6637.648488404191,1320083.0,0.006380000151693821,0.00686000008136034,0.0009500000160187483,0.2250799983739853
6637.6494881764065,1320084.0,-0.0034099998883903027,0.0037700000684708357,-0.0024500000290572643,0.2171200066804886
6637.650487948622,1320085.0,-0.016529999673366547,0.004860000219196081,-4.999999873689376e-05,0.21981999278068542
6637.651487720837,1320086.0,-0.026319999247789383,0.0052200001664459705,4.999999873689376e-05,0.22279000282287598
6637.652487493052,1320087.0,-0.032519999891519547,-0.000859999970998615,-0.0037700000684708357,0.2137800008058548
6637.653487265267,1320088.0,-0.03311000019311905,-0.002859999891370535,0.0035000001080334187,0.22059999406337738
6637.654487037483,1320089.0,-0.02776000089943409,-0.004900000058114529,-0.0002699999895412475,0.21950000524520874
6637.655486809698,1320090.0,-0.017880000174045563,-0.005489999894052744,-0.0022700000554323196,0.2102999985218048
6637.656486581914,1320091.0,-0.006690000183880329,-0.00953999999910593,-0.004410000052303076,0.22179000079631805
6637.657486354128,1320092.0,0.005619999952614307,-0.00839999970048666,0.00031999999191612005,0.21396000683307648
6637.658486126344,1320093.0,0.016039999201893806,-0.0019099999917671084,-0.0007699999841861427,0.21689000725746155
6637.659485898559,1320094.0,0.023900000378489494,0.00014000000373926014,-0.0022299999836832285,0.22045999765396118
6637.6604856707745,1320095.0,0.03037000074982643,-0.0021800000686198473,0.0018599999602884054,0.21309000253677368
6637.66148544299,1320096.0,0.02986999973654747,0.0013200000394135714,0.0030400000978261232,0.2171200066804886
6637.662485215205,1320097.0,0.02597000077366829,0.004629999864846468,0.0013200000394135714,0.21588000655174255
6637.66348498742,1320098.0,0.02263999916613102,-0.0007699999841861427,-0.0024500000290572643,0.20609000325202942
6637.664484759635,1320099.0,0.018780000507831573,-0.000859999970998615,0.007400000002235174,0.2171200066804886
6637.665484531851,1320100.0,0.0147299999371171,0.0037700000684708357,0.00031999999191612005,0.21244999766349792
6637.666484304066,1320101.0,0.012310000136494637,-0.0003600000054575503,0.0010400000028312206,0.212909996509552
6637.667484076282,1320102.0,0.007819999940693378,0.00031999999191612005,0.002319999970495701,0.21706999838352203
6637.668483848496,1320103.0,-0.0034099998883903027,0.005539999809116125,0.004540000110864639,0.2088800072669983
6637.669483620712,1320104.0,-0.015629999339580536,0.008449999615550041,-0.002409999957308173,0.21404999494552612
6637.670483392927,1320105.0,-0.02384999953210354,0.001500000013038516,0.00031999999191612005,0.21227000653743744
6637.6714831651425,1320106.0,-0.0301900003105402,0.002319999970495701,-0.0005000000237487257,0.20479999482631683
6637.672482937358,1320107.0,-0.032660000026226044,0.0010400000028312206,-0.0036800000816583633,0.2128099948167801
6637.673482709573,1320108.0,-0.03359999880194664,0.00031999999191612005,-0.001769999973475933,0.21025000512599945
6637.674482481788,1320109.0,-0.030820000916719437,-0.0045900000259280205,-0.0019099999917671084,0.20247000455856323
6637.675482254003,1320110.0,-0.02425999939441681,-0.008899999782443047,-0.004129999782890081,0.2128099948167801
6637.676482026219,1320111.0,-0.012310000136494637,-0.005489999894052744,-0.0005000000237487257,0.20645000040531158
6637.677481798434,1320112.0,-0.0026100000832229853,-0.003949999809265137,0.005040000192821026,0.2037000060081482
6637.67848157065,1320113.0,0.004670000169426203,-0.004269999917596579,-0.0018599999602884054,0.21272000670433044
6637.679481342864,1320114.0,0.005929999984800816,-0.0017300000181421638,-0.0019099999917671084,0.2054000049829483
6637.68048111508,1320115.0,0.005210000090301037,0.0027699999045580626,0.0019499999471008778,0.20850999653339386
6637.681480887295,1320116.0,0.0035500000230968,0.00031999999191612005,0.001769999973475933,0.20915000140666962
6637.6824806595105,1320117.0,0.0016199999954551458,0.00267999991774559,-0.0010400000028312206,0.20003999769687653
6637.683480431726,1320118.0,-0.00107999995816499,0.006630000192672014,0.0033199999015778303,0.2081499993801117
6637.684480203941,1320119.0,-0.0027000000700354576,-0.0006799999973736703,0.0012700000079348683,0.20232999324798584
6637.685479976156,1320120.0,-0.003280000062659383,-0.0014100000262260437,-0.000590000010561198,0.20443999767303467
6637.686479748371,1320121.0,-0.0037700000684708357,0.002409999957308173,-0.00267999991774559,0.2041199952363968
6637.687479520587,1320122.0,-0.0053900000639259815,0.00031999999191612005,0.00203999993391335,0.20603999495506287
6637.688479292802,1320123.0,-0.012129999697208405,0.0021299999207258224,-0.0002699999895412475,0.19954000413417816
6637.689479065018,1320124.0,-0.02133999951183796,0.0024999999441206455,-0.0010000000474974513,0.20759999752044678
6637.690478837232,1320125.0,-0.030729999765753746,0.005400000140070915,0.0014100000262260437,0.19454999268054962
6637.691478609448,1320126.0,-0.04205000028014183,-0.0002699999895412475,-0.0002300000051036477,0.2054000049829483
6637.692478381663,1320127.0,-0.052650000900030136,0.00031999999191612005,-0.004900000058114529,0.1963299959897995
6637.6934781538785,1320128.0,-0.05852999910712242,-0.004900000058114529,-0.0030400000978261232,0.20448000729084015
6637.694477926094,1320129.0,-0.05660000070929527,-0.005489999894052744,0.0014100000262260437,0.19742999970912933
6637.695477698309,1320130.0,-0.050450000911951065,-0.005630000028759241,-0.000539999979082495,0.20247000455856323
6637.696477470524,1320131.0,-0.04075000062584877,-0.00686000008136034,-0.002589999930933118,0.1977500021457672
6637.697477242739,1320132.0,-0.030640000477433205,-0.006219999864697456,-0.0017300000181421638,0.1980700045824051
6637.698477014955,1320133.0,-0.021560000255703926,-0.000910000002477318,0.0030400000978261232,0.20232999324798584
6637.69947678717,1320134.0,-0.01607999950647354,-0.0013200000394135714,0.0019499999471008778,0.192440003156662
6637.700476559386,1320135.0,-0.014510000124573708,-0.0006399999838322401,-0.0028200000524520874,0.2007800042629242
6637.7014763316,1320136.0,-0.013659999705851078,0.0024500000290572643,0.005400000140070915,0.19368000328540802
6637.702476103816,1320137.0,-0.012760000303387642,0.005590000189840794,0.001230000052601099,0.1980299949645996
6637.703475876031,1320138.0,-0.01221999991685152,0.003220000071451068,-0.003220000071451068,0.2006399929523468
6637.704475648246,1320139.0,-0.010689999908208847,0.001769999973475933,0.0016799999866634607,0.19202999770641327
6637.705475420462,1320140.0,-0.01092000026255846,0.0011399999493733048,-0.0031799999997019768,0.18782000243663788
6637.706475192677,1320141.0,-0.013790000230073929,0.0014100000262260437,0.0027699999045580626,0.19710999727249146
6637.707474964892,1320142.0,-0.017880000174045563,0.0021299999207258224,0.0014100000262260437,0.19208000600337982
6637.708474737107,1320143.0,-0.02565000019967556,0.0028200000524520874,-0.0027699999045580626,0.18782000243663788
6637.709474509323,1320144.0,-0.03863000124692917,0.003590000094845891,0.006630000192672014,0.19463999569416046
6637.710474281538,1320145.0,-0.05220000073313713,0.0059899999760091305,-0.002950000111013651,0.19437000155448914
6637.711474053754,1320146.0,-0.06522999703884125,0.003539999946951866,-0.0033599999733269215,0.18690000474452972
6637.712473825968,1320147.0,-0.07412000000476837,-0.0018599999602884054,0.0014100000262260437,0.19322000443935394
6637.713473598184,1320148.0,-0.07609999924898148,-0.00267999991774559,-0.0021800000686198473,0.19336000084877014
6637.714473370399,1320149.0,-0.07062000036239624,-0.004040000028908253,0.0010900000343099236,0.18599000573158264
6637.715473142614,1320150.0,-0.05993000045418739,-0.00803999975323677,-0.0034099998883903027,0.19101999700069427
6637.71647291483,1320151.0,-0.05012999847531319,-0.00494999997317791,-0.0021800000686198473,0.18694999814033508
6637.717472687044,1320152.0,-0.038989998400211334,0.0015899999998509884,-0.0009500000160187483,0.19098000228405
6637.71847245926,1320153.0,-0.025609999895095825,-0.004040000028908253,0.003000000026077032,0.18268999457359314
6637.719472231475,1320154.0,-0.016259999945759773,-0.000539999979082495,-4.999999873689376e-05,0.1850699931383133
6637.720472003691,1320155.0,-0.01095999963581562,-0.00041000000783242285,-0.0033599999733269215,0.19221000373363495
6637.721471775906,1320156.0,-0.004310000222176313,0.005090000107884407,0.0021299999207258224,0.1802700012922287
6637.722471548122,1320157.0,0.002739999908953905,0.00494999997317791,-0.00014000000373926014,0.18776999413967133
6637.723471320336,1320158.0,0.007369999773800373,-0.0012700000079348683,0.00031999999191612005,0.18727000057697296
6637.7244710925515,1320159.0,0.005619999952614307,0.0027699999045580626,0.006130000110715628,0.1815900057554245
6637.725470864767,1320160.0,0.00215999991632998,0.002360000042244792,-4.999999873689376e-05,0.18782000243663788
6637.726470636982,1320161.0,0.0007200000109151006,-0.0010000000474974513,-0.004000000189989805,0.18004000186920166
6637.727470409198,1320162.0,-0.0022499999031424522,0.002950000111013651,0.00018000000272877514,0.18782000243663788
6637.728470181412,1320163.0,-0.009340000338852406,0.007400000002235174,0.002589999930933118,0.1844799965620041
6637.729469953628,1320164.0,-0.01931999996304512,0.003000000026077032,0.0014100000262260437,0.17916999757289886
6637.730469725843,1320165.0,-0.030549999326467514,0.007579999975860119,-0.0021800000686198473,0.18694999814033508
6637.731469498059,1320166.0,-0.04177999868988991,0.003719999920576811,-0.002589999930933118,0.17499999701976776
6637.732469270274,1320167.0,-0.048250000923871994,-0.0022700000554323196,-4.999999873689376e-05,0.18228000402450562
6637.733469042489,1320168.0,-0.050850000232458115,-0.0022299999836832285,0.0027199999894946814,0.18452000617980957
6637.734468814704,1320169.0,-0.0471699982881546,-0.009669999592006207,0.0012700000079348683,0.18177999556064606
6637.7354685869195,1320170.0,-0.039799999445676804,-0.004679999779909849,-0.0015899999998509884,0.17660999298095703
6637.736468359135,1320171.0,-0.03117999993264675,-0.009259999729692936,-0.002090000081807375,0.17812000215053558
6637.73746813135,1320172.0,-0.021649999544024467,-0.005040000192821026,-0.0030400000978261232,0.18398000299930573
6637.738467903566,1320173.0,-0.010870000347495079,-0.00203999993391335,-0.002589999930933118,0.18039999902248383
6637.73946767578,1320174.0,-0.00215999991632998,0.0030900000128895044,0.004449999891221523,0.17281000316143036
6637.740467447996,1320175.0,0.0008099999977275729,-0.002090000081807375,0.005309999920427799,0.1761000007390976
6637.741467220211,1320176.0,0.0023399998899549246,0.005179999861866236,0.00031999999191612005,0.18045000731945038
6637.742466992427,1320177.0,0.0035500000230968,0.004040000028908253,-0.002950000111013651,0.17372000217437744
6637.743466764642,1320178.0,0.004310000222176313,0.00031999999191612005,0.0015899999998509884,0.1809999942779541
6637.744466536857,1320179.0,0.005119999870657921,0.00267999991774559,0.0013599999947473407,0.17083999514579773
6637.745466309072,1320180.0,0.006560000125318766,0.0034099998883903027,-0.002090000081807375,0.1776999980211258
6637.7464660812875,1320181.0,0.008630000054836273,0.00031999999191612005,-0.001230000052601099,0.1766500025987625
6637.747465853503,1320182.0,0.008179999887943268,0.001769999973475933,0.006130000110715628,0.1704699993133545
6637.748465625718,1320183.0,0.0020699999295175076,0.005539999809116125,-4.999999873689376e-05,0.17720000445842743
6637.749465397934,1320184.0,-0.008089999668300152,0.0016299999551847577,-0.002589999930933118,0.16881999373435974
6637.750465170148,1320185.0,-0.021609999239444733,0.0034099998883903027,0.0015399999683722854,0.17531999945640564
6637.751464942364,1320186.0,-0.03172000125050545,0.006630000192672014,0.00031999999191612005,0.17499999701976776
6637.752464714579,1320187.0,-0.035760000348091125,0.001230000052601099,0.00031999999191612005,0.16896000504493713
6637.753464486795,1320188.0,-0.036070000380277634,-0.004040000028908253,-0.003719999920576811,0.1765100061893463
6637.75446425901,1320189.0,-0.03117999993264675,-0.006490000057965517,0.002090000081807375,0.16689999401569366
6637.755464031225,1320190.0,-0.021379999816417694,-0.003539999946951866,0.00031999999191612005,0.1687300056219101
6637.75646380344,1320191.0,-0.009879999794065952,-0.006089999806135893,-0.004040000028908253,0.17271000146865845
6637.7574635756555,1320192.0,0.004310000222176313,-0.00571999978274107,-0.003539999946951866,0.16672000288963318
6637.758463347871,1320193.0,0.017069999128580093,-0.004449999891221523,0.0013200000394135714,0.17353999614715576
6637.759463120086,1320194.0,0.023719999939203262,-0.0016799999866634607,0.0016799999866634607,0.16350999474525452
6637.760462892302,1320195.0,0.024979999288916588,-0.001230000052601099,-0.003590000094845891,0.17075000703334808
6637.761462664516,1320196.0,0.026280000805854797,0.0045900000259280205,0.0013599999947473407,0.16933000087738037
6637.762462436732,1320197.0,0.0276699997484684,0.005900000222027302,0.0030900000128895044,0.16342000663280487
6637.763462208947,1320198.0,0.026149999350309372,0.0021299999207258224,0.003000000026077032,0.1698800027370453
6637.764461981163,1320199.0,0.023900000378489494,0.0016799999866634607,-0.0033599999733269215,0.16109000146389008
6637.765461753378,1320200.0,0.020479999482631683,0.0009500000160187483,-0.0013599999947473407,0.17001000046730042
6637.766461525593,1320201.0,0.01720999926328659,-0.00267999991774559,0.0010000000474974513,0.160630002617836
6637.767461297808,1320202.0,0.013120000250637531,0.001769999973475933,-0.001230000052601099,0.1653899997472763
6637.7684610700235,1320203.0,0.007280000019818544,0.005400000140070915,-0.0036299999337643385,0.16548000276088715
6637.769460842239,1320204.0,-0.0013500000350177288,0.004900000058114529,0.006130000110715628,0.16099999845027924
6637.770460614454,1320205.0,-0.009970000013709068,0.007770000025629997,-0.0037700000684708357,0.16635000705718994
6637.77146038667,1320206.0,-0.016759999096393585,0.00031999999191612005,-0.0030400000978261232,0.1594800055027008
6637.772460158884,1320207.0,-0.02102000080049038,-0.0005000000237487257,0.003719999920576811,0.16708000004291534
6637.7734599311,1320208.0,-0.02314000017940998,0.0034099998883903027,-0.0007699999841861427,0.16287000477313995
6637.774459703315,1320209.0,-0.020390000194311142,-0.0024500000290572643,-0.0033599999733269215,0.15894000232219696
6637.775459475531,1320210.0,-0.011769999749958515,-0.010080000385642052,0.0010900000343099236,0.1643799990415573
6637.776459247746,1320211.0,0.0014799999771639705,-0.004860000219196081,0.00014000000373926014,0.1564200073480606
6637.777459019961,1320212.0,0.0147299999371171,-0.006219999864697456,-0.0022700000554323196,0.1643799990415573
6637.778458792176,1320213.0,0.024299999698996544,-0.00494999997317791,0.00031999999191612005,0.16086000204086304
6637.7794585643915,1320214.0,0.02637000009417534,0.0019099999917671084,0.0015899999998509884,0.15971000492572784
6637.780458336607,1320215.0,0.023310000076889992,0.0027199999894946814,0.00031999999191612005,0.16167999804019928
6637.781458108822,1320216.0,0.019500000402331352,-0.0007699999841861427,0.002319999970495701,0.15509000420570374
6637.782457881037,1320217.0,0.01769999973475933,0.0033599999733269215,0.0012700000079348683,0.16264000535011292
6637.783457653252,1320218.0,0.015809999778866768,0.002319999970495701,-0.0037700000684708357,0.15230000019073486
6637.784457425468,1320219.0,0.014379999600350857,-0.001180000021122396,-0.00031999999191612005,0.16144999861717224
6637.785457197683,1320220.0,0.012849999591708183,-0.0013200000394135714,0.0015899999998509884,0.15421999990940094
6637.786456969899,1320221.0,0.011769999749958515,0.001500000013038516,-0.0021800000686198473,0.1590300053358078
6637.787456742114,1320222.0,0.01131999958306551,0.005270000081509352,-0.0033199999015778303,0.1565999984741211
6637.788456514329,1320223.0,0.008940000087022781,0.0022299999836832285,0.0034099998883903027,0.15178999304771423
6637.789456286544,1320224.0,0.0023399998899549246,0.004629999864846468,0.00014000000373926014,0.16040000319480896
6637.790456058759,1320225.0,-0.00872000027447939,0.006399999838322401,-0.0022299999836832285,0.15047000348567963
6637.791455830975,1320226.0,-0.018459999933838844,0.0019499999471008778,0.00031999999191612005,0.15884000062942505
6637.79245560319,1320227.0,-0.02425999939441681,-0.0010400000028312206,-0.002409999957308173,0.15202000737190247
6637.793455375405,1320228.0,-0.02597000077366829,0.0019099999917671084,0.00031999999191612005,0.159620001912117
6637.79445514762,1320229.0,-0.024800000712275505,-0.0037700000684708357,-0.002319999970495701,0.15115000307559967
6637.795454919836,1320230.0,-0.020309999585151672,-0.004220000002533197,-0.0037700000684708357,0.1578799933195114
6637.796454692051,1320231.0,-0.012760000303387642,-0.007309999782592058,0.0018599999602884054,0.14969000220298767
6637.797454464267,1320232.0,-0.005210000090301037,-0.0051299999468028545,0.003220000071451068,0.14963999390602112
6637.798454236481,1320233.0,0.0003100000030826777,-0.006630000192672014,0.006579999811947346,0.14972999691963196
6637.799454008697,1320234.0,0.0028800000436604023,-0.0015899999998509884,0.0027699999045580626,0.15366999804973602
6637.800453780912,1320235.0,0.0048500001430511475,-0.00031999999191612005,0.001449999981559813,0.1572899967432022
6637.801453553127,1320236.0,0.006060000043362379,-4.999999873689376e-05,-0.0007699999841861427,0.15523000061511993
6637.802453325343,1320237.0,0.007910000160336494,-0.000590000010561198,-0.0009500000160187483,0.1467999964952469
6637.803453097558,1320238.0,0.007369999773800373,0.0037700000684708357,-0.0022299999836832285,0.15087999403476715
6637.804452869773,1320239.0,0.006560000125318766,0.002589999930933118,-0.0022700000554323196,0.15618999302387238
6637.805452641988,1320240.0,0.007459999993443489,0.003220000071451068,0.003000000026077032,0.15294000506401062
6637.806452414204,1320241.0,0.004939999897032976,0.00014000000373926014,0.0014100000262260437,0.1477700024843216
6637.807452186419,1320242.0,-0.001120000029914081,0.005590000189840794,-0.0006399999838322401,0.15549999475479126
6637.808451958635,1320243.0,-0.008270000107586384,0.008080000057816505,0.0,0.15193000435829163
6637.809451730849,1320244.0,-0.015769999474287033,0.008489999920129776,0.002319999970495701,0.14771999418735504
6637.8104515030645,1320245.0,-0.02622999995946884,0.0022299999836832285,-0.0030900000128895044,0.1532599925994873
6637.81145127528,1320246.0,-0.035760000348091125,0.006039999891072512,-4.999999873689376e-05,0.14524999260902405
6637.812451047495,1320247.0,-0.04052000120282173,0.001230000052601099,0.0010000000474974513,0.14854000508785248
6637.813450819711,1320248.0,-0.041600000113248825,-0.000590000010561198,9.000000136438757e-05,0.15285000205039978
6637.814450591926,1320249.0,-0.03853999823331833,-0.007720000110566616,-0.005859999917447567,0.1431400030851364
6637.815450364141,1320250.0,-0.03037000074982643,-0.004449999891221523,-0.0019499999471008778,0.14803999662399292
6637.816450136356,1320251.0,-0.0200399998575449,-0.003590000094845891,0.0010400000028312206,0.15073999762535095
6637.817449908572,1320252.0,-0.00803999975323677,-0.005630000028759241,0.00203999993391335,0.14377999305725098
6637.818449680787,1320253.0,0.003229999914765358,-0.004089999943971634,-0.0006799999973736703,0.15207000076770782
6637.819449453003,1320254.0,0.010739999823272228,-0.001820000004954636,-0.002589999930933118,0.14767000079154968
6637.820449225217,1320255.0,0.01348000019788742,0.004310000222176313,0.006310000084340572,0.1432799994945526
6637.8214489974325,1320256.0,0.015629999339580536,-0.0002699999895412475,-0.001180000021122396,0.15060000121593475
6637.822448769648,1320257.0,0.016620000824332237,0.00031999999191612005,-0.00018000000272877514,0.14061999320983887
6637.823448541863,1320258.0,0.01769999973475933,-0.00044999999227002263,0.0013200000394135714,0.14291000366210938
6637.824448314079,1320259.0,0.016440000385046005,-0.0016299999551847577,0.0002699999895412475,0.14809000492095947
6637.825448086294,1320260.0,0.012439999729394913,0.00267999991774559,-0.002090000081807375,0.14168000221252441
6637.826447858509,1320261.0,0.006649999879300594,-4.999999873689376e-05,-0.0010000000474974513,0.14826999604701996
6637.827447630724,1320262.0,0.002520000096410513,0.0013200000394135714,-0.0013599999947473407,0.14620999991893768
6637.82844740294,1320263.0,-0.0037700000684708357,0.003220000071451068,-0.0030400000978261232,0.14057999849319458
6637.829447175155,1320264.0,-0.01271000038832426,0.009669999592006207,0.006539999973028898,0.14790000021457672
6637.830446947371,1320265.0,-0.021970000118017197,0.0037700000684708357,0.0018599999602884054,0.14424000680446625
6637.831446719585,1320266.0,-0.028209999203681946,0.002630000002682209,-0.001769999973475933,0.13966000080108643
6637.8324464918005,1320267.0,-0.03413999825716019,0.0002699999895412475,-0.005900000222027302,0.1467999964952469
6637.833446264016,1320268.0,-0.03790999948978424,-0.0019099999917671084,0.001230000052601099,0.14332999289035797
6637.834446036231,1320269.0,-0.03517000004649162,-0.0013200000394135714,0.001230000052601099,0.1402599960565567
6637.835445808447,1320270.0,-0.02694999985396862,-0.009399999864399433,-0.0019099999917671084,0.14424000680446625
6637.836445580662,1320271.0,-0.015949999913573265,-0.00798999983817339,-0.004040000028908253,0.13617999851703644
6637.837445352877,1320272.0,-0.003590000094845891,-0.005489999894052744,-0.0031300000846385956,0.14094999432563782
6637.838445125092,1320273.0,0.005750000011175871,-0.0016799999866634607,-0.001820000004954636,0.14323000609874725
6637.839444897308,1320274.0,0.012040000408887863,0.0012700000079348683,0.001769999973475933,0.13663999736309052
6637.840444669523,1320275.0,0.014639999717473984,-0.0028200000524520874,-0.000859999970998615,0.14406000077724457
6637.8414444417385,1320276.0,0.015449999831616879,-0.00041000000783242285,0.0002699999895412475,0.1401199996471405
6637.842444213953,1320277.0,0.016440000385046005,0.005270000081509352,-0.001449999981559813,0.13718999922275543
6637.8434439861685,1320278.0,0.017430000007152557,0.004679999779909849,0.0024500000290572643,0.14002999663352966
6637.844443758384,1320279.0,0.017559999600052834,0.0036299999337643385,0.0027199999894946814,0.1393900066614151
6637.845443530599,1320280.0,0.017969999462366104,0.0002300000051036477,0.0015899999998509884,0.1336199939250946
6637.846443302815,1320281.0,0.01590000092983246,0.004720000084489584,-9.000000136438757e-05,0.14203999936580658
6637.847443075029,1320282.0,0.009789999574422836,0.00018000000272877514,0.00031999999191612005,0.1336199939250946
6637.848442847245,1320283.0,0.0007200000109151006,0.0015899999998509884,0.0071299998089671135,0.14090000092983246
6637.84944261946,1320284.0,-0.009879999794065952,0.006130000110715628,0.00018000000272877514,0.13407999277114868
6637.850442391676,1320285.0,-0.024620000272989273,0.006899999920278788,-0.0007699999841861427,0.13901999592781067
6637.851442163891,1320286.0,-0.037379998713731766,0.003220000071451068,-0.0028200000524520874,0.13595999777317047
6637.8524419361065,1320287.0,-0.044110000133514404,-0.0009500000160187483,0.0013599999947473407,0.1313299983739853
6637.853441708321,1320288.0,-0.04447000101208687,-0.0014100000262260437,0.0014100000262260437,0.13646000623703003
6637.8544414805365,1320289.0,-0.03790999948978424,-0.001769999973475933,-0.0002300000051036477,0.13705000281333923
6637.855441252752,1320290.0,-0.026319999247789383,-0.0035000001080334187,-0.0013599999947473407,0.1367799937725067
6637.856441024967,1320291.0,-0.014150000177323818,-0.004679999779909849,-0.002589999930933118,0.12991000711917877
6637.857440797183,1320292.0,-0.003229999914765358,-0.006630000192672014,-0.000539999979082495,0.1383800059556961
6637.858440569397,1320293.0,0.00965999998152256,4.999999873689376e-05,0.005400000140070915,0.13051000237464905
6637.859440341613,1320294.0,0.01761000044643879,-0.0036800000816583633,0.002090000081807375,0.13545000553131104
6637.860440113828,1320295.0,0.017069999128580093,-0.000910000002477318,-0.0020000000949949026,0.13508999347686768
6637.861439886044,1320296.0,0.013389999978244305,0.0011399999493733048,-0.00041000000783242285,0.12876999378204346
6637.862439658259,1320297.0,0.01095999963581562,-4.999999873689376e-05,0.003590000094845891,0.13106000423431396
6637.863439430474,1320298.0,0.012489999644458294,0.00031999999191612005,0.0015399999683722854,0.1359100043773651
6637.864439202689,1320299.0,0.015720000490546227,0.0017300000181421638,-0.0027699999045580626,0.12793999910354614
6637.8654389749045,1320300.0,0.018869999796152115,0.004089999943971634,-0.0012700000079348683,0.1336199939250946
6637.86643874712,1320301.0,0.022099999710917473,0.0015899999998509884,0.0021299999207258224,0.13344000279903412
6637.867438519335,1320302.0,0.025919999927282333,0.003909999970346689,-0.0003600000054575503,0.1321599930524826
6637.868438291551,1320303.0,0.024620000272989273,0.0064500002190470695,-0.002360000042244792,0.133760005235672
6637.869438063765,1320304.0,0.019500000402331352,0.005770000163465738,0.00014000000373926014,0.1281300038099289
6637.870437835981,1320305.0,0.011900000274181366,0.002859999891370535,0.003590000094845891,0.13508999347686768
6637.871437608196,1320306.0,0.0017999999690800905,-0.00041000000783242285,0.0018599999602884054,0.1320199966430664
6637.872437380412,1320307.0,-0.005439999978989363,0.0016799999866634607,-0.001500000013038516,0.12680000066757202
6637.873437152627,1320308.0,-0.008940000087022781,0.0010400000028312206,-0.0062699997797608376,0.1307400017976761
6637.874436924842,1320309.0,-0.006560000125318766,-0.0031799999997019768,-0.0059899999760091305,0.13412000238895416
6637.875436697057,1320310.0,-0.0002699999895412475,-0.005950000137090683,-0.003269999986514449,0.1318800002336502
6637.876436469272,1320311.0,0.007550000213086605,-0.00875999964773655,-0.0009500000160187483,0.12511000037193298
6637.877436241488,1320312.0,0.016440000385046005,-0.00839999970048666,-0.0007699999841861427,0.12601999938488007
6637.878436013703,1320313.0,0.023809999227523804,-0.005859999917447567,0.003220000071451068,0.12891000509262085
6637.879435785919,1320314.0,0.029689999297261238,-0.003860000055283308,0.005040000192821026,0.13233999907970428
6637.880435558133,1320315.0,0.0350399985909462,-0.0006399999838322401,0.001500000013038516,0.12963999807834625
