LSL_Time,PLUX_P1_nSeq,PLUX_P1_ECG0,PLUX_P1_EMG1,PLUX_P1_EMG2,PLUX_P1_RESPIRATION3
6906.098325698229,1588594.0,-0.030549999326467514,-0.010080000385642052,-0.0018599999602884054,-0.38576000928878784
6906.0993254704445,1588595.0,-0.04428999871015549,-0.005859999917447567,-0.0044999998062849045,-0.3842499852180481
6906.10032524266,1588596.0,-0.05372999981045723,-0.004220000002533197,-4.999999873689376e-05,-0.38405999541282654
6906.101325014874,1588597.0,-0.05812999978661537,-0.0010000000474974513,0.003860000055283308,-0.3836100101470947
6906.10232478709,1588598.0,-0.05894000083208084,0.00018000000272877514,0.0024500000290572643,-0.38433998823165894
6906.103324559305,1588599.0,-0.05552000179886818,0.0033599999733269215,0.001820000004954636,-0.38297000527381897
6906.104324331521,1588600.0,-0.05012999847531319,-0.00044999999227002263,-0.004410000052303076,-0.38264000415802
6906.105324103736,1588601.0,-0.04600000008940697,0.0031799999997019768,-0.0015399999683722854,-0.38245999813079834
6906.106323875951,1588602.0,-0.0436599999666214,0.0010400000028312206,-0.0011399999493733048,-0.38245999813079834
6906.107323648166,1588603.0,-0.041510000824928284,-0.000539999979082495,0.002630000002682209,-0.38475000858306885
6906.108323420382,1588604.0,-0.041099999099969864,0.003909999970346689,-0.001230000052601099,-0.38475000858306885
6906.109323192597,1588605.0,-0.04033999890089035,0.0012700000079348683,0.0014100000262260437,-0.38346999883651733
6906.110322964812,1588606.0,-0.034860000014305115,0.0018599999602884054,0.00031999999191612005,-0.38058000802993774
6906.111322737028,1588607.0,-0.023719999939203262,0.002859999891370535,0.0031300000846385956,-0.3842499852180481
6906.112322509242,1588608.0,-0.01095999963581562,0.005400000140070915,0.0044999998062849045,-0.3817700147628784
6906.113322281458,1588609.0,-0.0018899999558925629,0.007579999975860119,0.000859999970998615,-0.3823699951171875
6906.114322053673,1588610.0,-0.00022000000171829015,0.002319999970495701,0.001769999973475933,-0.38172999024391174
6906.115321825889,1588611.0,-0.004269999917596579,0.0016799999866634607,0.000859999970998615,-0.37898001074790955
6906.116321598103,1588612.0,-0.01384000014513731,-0.006399999838322401,0.00031999999191612005,-0.38214001059532166
6906.117321370319,1588613.0,-0.027939999476075172,-0.006810000166296959,-0.002589999930933118,-0.3811799883842468
6906.118321142534,1588614.0,-0.04222999885678291,-0.006399999838322401,0.00018000000272877514,-0.37856999039649963
6906.11932091475,1588615.0,-0.05445000156760216,-0.005950000137090683,-0.0030900000128895044,-0.38058000802993774
6906.120320686965,1588616.0,-0.06522999703884125,-0.005489999894052744,-0.0011399999493733048,-0.37911999225616455
6906.12132045918,1588617.0,-0.07259999960660934,-0.005859999917447567,-0.002360000042244792,-0.37797999382019043
6906.122320231395,1588618.0,-0.07402999699115753,0.00031999999191612005,-0.0036800000816583633,-0.3783000111579895
6906.12332000361,1588619.0,-0.0733100026845932,0.0021299999207258224,-0.0016299999551847577,-0.3760499954223633
6906.124319775826,1588620.0,-0.07394000142812729,0.0017300000181421638,-0.0019499999471008778,-0.3788500130176544
6906.125319548041,1588621.0,-0.0720599964261055,0.007579999975860119,-0.000590000010561198,-0.37766000628471375
6906.126319320257,1588622.0,-0.06738000363111496,0.0072200000286102295,0.00031999999191612005,-0.3746800124645233
6906.127319092471,1588623.0,-0.06235000118613243,0.003949999809265137,-0.0011399999493733048,-0.3756900131702423
6906.128318864687,1588624.0,-0.057500001043081284,0.004220000002533197,-0.0002300000051036477,-0.3770599961280823
6906.129318636902,1588625.0,-0.05480999872088432,0.003220000071451068,-0.00494999997317791,-0.37509000301361084
6906.1303184091175,1588626.0,-0.047210000455379486,0.004310000222176313,-0.0017300000181421638,-0.37490999698638916
6906.131318181333,1588627.0,-0.03342000022530556,0.004220000002533197,-0.0008200000156648457,-0.3728500008583069
6906.132317953548,1588628.0,-0.019500000402331352,0.0072200000286102295,0.004089999943971634,-0.3722499907016754
6906.133317725763,1588629.0,-0.008449999615550041,0.003220000071451068,0.00031999999191612005,-0.3738600015640259
6906.134317497978,1588630.0,-0.005929999984800816,0.004860000219196081,-0.0044999998062849045,-0.37174999713897705
6906.135317270194,1588631.0,-0.007550000213086605,0.003449999960139394,-0.005630000028759241,-0.3734399974346161
6906.136317042409,1588632.0,-0.016489999368786812,-0.004809999838471413,-0.005270000081509352,-0.37220999598503113
6906.137316814625,1588633.0,-0.030910000205039978,-0.005489999894052744,-0.004679999779909849,-0.3702400028705597
6906.138316586839,1588634.0,-0.04374999925494194,-0.009630000218749046,-0.005489999894052744,-0.3713800013065338
6906.139316359055,1588635.0,-0.05463000014424324,-0.0072200000286102295,-0.0027699999045580626,-0.36858999729156494
6906.14031613127,1588636.0,-0.0628499984741211,-0.007079999893903732,-0.0002300000051036477,-0.3711099922657013
6906.1413159034855,1588637.0,-0.06446000188589096,-0.007720000110566616,0.00018000000272877514,-0.36928001046180725
6906.142315675701,1588638.0,-0.06019999831914902,-0.0003600000054575503,0.00031999999191612005,-0.3680900037288666
6906.143315447916,1588639.0,-0.05552000179886818,0.004679999779909849,0.003220000071451068,-0.36800000071525574
6906.144315220131,1588640.0,-0.05067000165581703,0.0072200000286102295,0.0018599999602884054,-0.36552000045776367
6906.145314992346,1588641.0,-0.04627000167965889,0.008310000412166119,0.003719999920576811,-0.3688200116157532
6906.146314764562,1588642.0,-0.041999999433755875,0.005900000222027302,0.001769999973475933,-0.36680999398231506
6906.147314536777,1588643.0,-0.03925999999046326,0.0016799999866634607,0.0012700000079348683,-0.3651599884033203
6906.148314308993,1588644.0,-0.0370200015604496,0.00031999999191612005,-0.0022299999836832285,-0.3658899962902069
6906.149314081207,1588645.0,-0.033240001648664474,-0.0013200000394135714,0.0022700000554323196,-0.3635599911212921
6906.150313853423,1588646.0,-0.0243500005453825,0.0027699999045580626,0.0020000000949949026,-0.3658899962902069
6906.151313625638,1588647.0,-0.011500000022351742,0.006130000110715628,-4.999999873689376e-05,-0.364329993724823
6906.1523133978535,1588648.0,-0.0009899999713525176,0.0044999998062849045,0.003590000094845891,-0.3613100051879883
6906.153313170069,1588649.0,0.0053900000639259815,0.003220000071451068,-0.0029100000392645597,-0.3630099892616272
6906.154312942284,1588650.0,0.0037700000684708357,0.00031999999191612005,-0.0033199999015778303,-0.36122000217437744
6906.155312714499,1588651.0,-0.0013899999903514981,-0.004900000058114529,-0.0022299999836832285,-0.3626900017261505
6906.156312486714,1588652.0,-0.01271000038832426,-0.006579999811947346,-0.0015399999683722854,-0.3611299991607666
6906.15731225893,1588653.0,-0.028529999777674675,-0.00494999997317791,-0.001449999981559813,-0.35857000946998596
6906.158312031145,1588654.0,-0.044199999421834946,-0.005489999894052744,-0.004360000137239695,-0.36002999544143677
6906.159311803361,1588655.0,-0.056779999285936356,-0.004410000052303076,0.0010400000028312206,-0.360260009765625
6906.160311575575,1588656.0,-0.06567999720573425,-0.0062699997797608376,-0.001230000052601099,-0.35861000418663025
6906.161311347791,1588657.0,-0.06782999634742737,-0.0033199999015778303,0.00031999999191612005,-0.357699990272522
6906.162311120006,1588658.0,-0.06306999921798706,9.000000136438757e-05,0.0027699999045580626,-0.3567799925804138
6906.1633108922215,1588659.0,-0.05372999981045723,-0.0006399999838322401,0.0016299999551847577,-0.35526999831199646
6906.164310664437,1588660.0,-0.040699999779462814,0.0045900000259280205,0.00031999999191612005,-0.35468000173568726
6906.165310436652,1588661.0,-0.027310000732541084,0.003590000094845891,-0.0037700000684708357,-0.3557699918746948
6906.166310208867,1588662.0,-0.016759999096393585,0.005400000140070915,-0.007040000054985285,-0.35457998514175415
6906.167309981082,1588663.0,-0.010780000127851963,0.00031999999191612005,-0.00267999991774559,-0.35179001092910767
6906.168309753298,1588664.0,-0.007590000052005053,0.002319999970495701,0.007720000110566616,-0.3540799915790558
6906.169309525513,1588665.0,-0.005030000116676092,0.0033599999733269215,0.0,-0.3523400127887726
6906.170309297729,1588666.0,-0.0023399998899549246,0.003220000071451068,0.00267999991774559,-0.34946000576019287
6906.171309069943,1588667.0,9.000000136438757e-05,0.006990000139921904,0.0021299999207258224,-0.3505600094795227
6906.172308842159,1588668.0,0.0016199999954551458,0.0072200000286102295,-0.0016799999866634607,-0.3498699963092804
6906.173308614374,1588669.0,0.0016199999954551458,0.006130000110715628,-0.004629999864846468,-0.34891000390052795
6906.1743083865895,1588670.0,-0.0008999999845400453,0.0021299999207258224,-0.0007699999841861427,-0.3462100028991699
6906.175308158805,1588671.0,-0.005439999978989363,-0.0006399999838322401,-0.004540000110864639,-0.3468500077724457
6906.17630793102,1588672.0,-0.015990000218153,-0.004220000002533197,-0.005900000222027302,-0.3472599983215332
6906.177307703235,1588673.0,-0.029600000008940697,-0.005859999917447567,0.00031999999191612005,-0.34556999802589417
6906.17830747545,1588674.0,-0.04024999961256981,-0.010900000110268593,-0.003860000055283308,-0.3430899977684021
6906.179307247666,1588675.0,-0.04986000061035156,-0.005539999809116125,0.0027699999045580626,-0.34209001064300537
6906.180307019881,1588676.0,-0.060019999742507935,-0.00418000016361475,9.000000136438757e-05,-0.3435499966144562
6906.181306792096,1588677.0,-0.06414999812841415,0.00031999999191612005,0.0033599999733269215,-0.3428199887275696
6906.182306564311,1588678.0,-0.06109999865293503,0.00031999999191612005,0.00014000000373926014,-0.3414900004863739
6906.183306336527,1588679.0,-0.054090000689029694,0.005040000192821026,0.0002300000051036477,-0.33869999647140503
6906.184306108742,1588680.0,-0.043129999190568924,0.007309999782592058,-0.0034099998883903027,-0.3404799997806549
6906.1853058809575,1588681.0,-0.03468000143766403,0.004310000222176313,0.00031999999191612005,-0.33842000365257263
6906.186305653173,1588682.0,-0.027580000460147858,0.004310000222176313,0.005489999894052744,-0.33632001280784607
6906.187305425387,1588683.0,-0.02273000031709671,0.00031999999191612005,0.0022700000554323196,-0.3355900049209595
6906.188305197603,1588684.0,-0.019680000841617584,0.001769999973475933,-9.000000136438757e-05,-0.3364599943161011
6906.189304969818,1588685.0,-0.017430000007152557,0.0017300000181421638,0.002409999957308173,-0.3346700072288513
6906.190304742034,1588686.0,-0.009750000201165676,0.006130000110715628,-0.0016299999551847577,-0.3329299986362457
6906.191304514249,1588687.0,0.0008500000112690032,0.0052200001664459705,-0.002589999930933118,-0.3345299959182739
6906.192304286464,1588688.0,0.0088900001719594,0.004860000219196081,-0.003949999809265137,-0.3323400020599365
6906.193304058679,1588689.0,0.013749999925494194,0.001180000021122396,-0.00018000000272877514,-0.33017998933792114
6906.194303830895,1588690.0,0.01257999986410141,-0.000539999979082495,0.00031999999191612005,-0.3312399983406067
6906.19530360311,1588691.0,0.007189999800175428,-0.001230000052601099,-0.001230000052601099,-0.33000001311302185
6906.196303375325,1588692.0,-0.00547999981790781,-0.004769999999552965,-0.00267999991774559,-0.3292199969291687
6906.197303147541,1588693.0,-0.021560000255703926,-0.006719999946653843,-0.004129999782890081,-0.3278000056743622
6906.198302919755,1588694.0,-0.036070000380277634,-0.003449999960139394,-0.001500000013038516,-0.32839998602867126
6906.199302691971,1588695.0,-0.047029998153448105,-0.006130000110715628,0.005539999809116125,-0.3278000056743622
6906.200302464186,1588696.0,-0.054990001022815704,-0.003539999946951866,-0.001230000052601099,-0.3248699903488159
6906.201302236402,1588697.0,-0.058490000665187836,4.999999873689376e-05,0.0008200000156648457,-0.32642999291419983
6906.202302008617,1588698.0,-0.05390999838709831,0.001820000004954636,0.00203999993391335,-0.3246900141239166
6906.203301780832,1588699.0,-0.04636000096797943,0.0021299999207258224,-0.0033599999733269215,-0.32280999422073364
6906.204301553047,1588700.0,-0.03922000154852867,0.003220000071451068,-0.002589999930933118,-0.3234100043773651
6906.205301325263,1588701.0,-0.032249998301267624,0.002859999891370535,-0.0030900000128895044,-0.3234100043773651
6906.206301097478,1588702.0,-0.026590000838041306,0.0021299999207258224,-0.0002300000051036477,-0.3219900131225586
6906.207300869693,1588703.0,-0.022690000012516975,0.0022299999836832285,0.002859999891370535,-0.3197000026702881
6906.208300641909,1588704.0,-0.019899999722838402,0.0014100000262260437,0.0014100000262260437,-0.32047998905181885
6906.209300414123,1588705.0,-0.0185100007802248,-0.000590000010561198,0.0027199999894946814,-0.3205699920654297
6906.210300186339,1588706.0,-0.011859999969601631,0.007809999864548445,0.001769999973475933,-0.31960999965667725
6906.211299958554,1588707.0,-0.000539999979082495,0.004679999779909849,0.00203999993391335,-0.3168199956417084
6906.21229973077,1588708.0,0.010060000233352184,0.00031999999191612005,-0.001500000013038516,-0.3184700012207031
6906.213299502985,1588709.0,0.01711999997496605,0.004269999917596579,-0.0021299999207258224,-0.31727999448776245
6906.2142992752,1588710.0,0.017969999462366104,0.0021299999207258224,-0.0015399999683722854,-0.31499001383781433
6906.215299047415,1588711.0,0.012400000356137753,-0.0011399999493733048,0.00031999999191612005,-0.3162199854850769
6906.2162988196305,1588712.0,0.0013000000035390258,-0.004410000052303076,0.00203999993391335,-0.3153499960899353
6906.217298591846,1588713.0,-0.013570000417530537,-0.005090000107884407,0.004040000028908253,-0.31424999237060547
6906.218298364061,1588714.0,-0.028300000354647636,-0.009039999917149544,-0.00031999999191612005,-0.312610000371933
6906.219298136277,1588715.0,-0.0413299985229969,-0.00953999999910593,0.00031999999191612005,-0.31398001313209534
6906.220297908491,1588716.0,-0.04977000132203102,-0.005859999917447567,-0.005179999861866236,-0.3123300075531006
6906.221297680707,1588717.0,-0.05130000039935112,0.00031999999191612005,-0.001500000013038516,-0.3102700114250183
6906.222297452922,1588718.0,-0.043800000101327896,-0.0013599999947473407,-0.0006799999973736703,-0.3112800121307373
6906.223297225138,1588719.0,-0.037060000002384186,0.0013200000394135714,-0.0015899999998509884,-0.3104099929332733
6906.224296997353,1588720.0,-0.03158000111579895,0.0024999999441206455,-0.0005000000237487257,-0.30948999524116516
6906.225296769568,1588721.0,-0.028389999642968178,0.0016799999866634607,-0.004220000002533197,-0.30849000811576843
6906.226296541783,1588722.0,-0.02474999986588955,-0.0002699999895412475,-0.002090000081807375,-0.30733999609947205
6906.2272963139985,1588723.0,-0.02092999964952469,0.00031999999191612005,4.999999873689376e-05,-0.3061099946498871
6906.228296086214,1588724.0,-0.019050000235438347,-0.0019099999917671084,-0.003719999920576811,-0.305649995803833
6906.229295858429,1588725.0,-0.022190000861883163,0.0010000000474974513,0.001230000052601099,-0.30559998750686646
6906.230295630645,1588726.0,-0.0200399998575449,0.006680000107735395,0.0037700000684708357,-0.30643001198768616
6906.231295402859,1588727.0,-0.007009999826550484,0.008630000054836273,0.000859999970998615,-0.3046000003814697
6906.232295175075,1588728.0,0.0069599999114871025,0.009759999811649323,-0.002950000111013651,-0.30327001214027405
6906.23329494729,1588729.0,0.016130000352859497,0.004999999888241291,-0.003590000094845891,-0.3028999865055084
6906.234294719506,1588730.0,0.017249999567866325,0.0033599999733269215,-0.004999999888241291,-0.3032200038433075
6906.235294491721,1588731.0,0.0147299999371171,0.00031999999191612005,-0.0005000000237487257,-0.3018999993801117
6906.236294263936,1588732.0,0.00646999990567565,-0.00494999997317791,-0.0003600000054575503,-0.2998799979686737
6906.237294036151,1588733.0,-0.006649999879300594,-0.006219999864697456,0.002409999957308173,-0.3008899986743927
6906.2382938083665,1588734.0,-0.0185100007802248,-0.011760000139474869,-0.004040000028908253,-0.29965001344680786
6906.239293580582,1588735.0,-0.0276699997484684,-0.004040000028908253,-0.00044999999227002263,-0.2987399995326996
6906.240293352797,1588736.0,-0.03359999880194664,-0.0033199999015778303,-4.999999873689376e-05,-0.29732000827789307
6906.241293125013,1588737.0,-0.037689998745918274,-0.0013200000394135714,0.0027699999045580626,-0.2988699972629547
6906.242292897227,1588738.0,-0.03612000122666359,0.00031999999191612005,0.003539999946951866,-0.29681000113487244
6906.243292669443,1588739.0,-0.03181000053882599,-0.0002300000051036477,-0.0002699999895412475,-0.29594001173973083
6906.244292441658,1588740.0,-0.024529999122023582,0.00031999999191612005,-0.0028200000524520874,-0.29622000455856323
6906.245292213874,1588741.0,-0.016130000352859497,0.0031300000846385956,-0.002409999957308173,-0.29521000385284424
6906.246291986088,1588742.0,-0.007189999800175428,0.00031999999191612005,-0.0025400000158697367,-0.2946600019931793
6906.247291758304,1588743.0,-0.0023399998899549246,-0.00041000000783242285,-0.0013599999947473407,-0.2935599982738495
6906.248291530519,1588744.0,-0.00215999991632998,0.004220000002533197,-0.00031999999191612005,-0.2923699915409088
6906.2492913027345,1588745.0,-0.002520000096410513,-0.00203999993391335,-0.0008200000156648457,-0.29159998893737793
6906.25029107495,1588746.0,0.0027000000700354576,0.003909999970346689,-0.0008200000156648457,-0.2910900115966797
6906.251290847165,1588747.0,0.013570000417530537,0.006310000084340572,-0.00041000000783242285,-0.2907699942588806
6906.25229061938,1588748.0,0.021379999816417694,0.00872000027447939,-0.0017300000181421638,-0.29172998666763306
6906.253290391595,1588749.0,0.0301900003105402,0.005400000140070915,-0.002950000111013651,-0.290039986371994
6906.254290163811,1588750.0,0.03539999946951866,0.0013599999947473407,-0.005489999894052744,-0.28870999813079834
6906.255289936026,1588751.0,0.0354899987578392,0.001769999973475933,-0.003809999907389283,-0.28889000415802
6906.256289708242,1588752.0,0.02745000086724758,-0.004410000052303076,-0.0009500000160187483,-0.2883000075817108
6906.257289480456,1588753.0,0.012489999644458294,-0.007540000136941671,0.0,-0.28751999139785767
6906.258289252672,1588754.0,-0.0035000001080334187,-0.0036800000816583633,9.000000136438757e-05,-0.287339985370636
6906.259289024887,1588755.0,-0.02022000029683113,-0.007040000054985285,-0.001500000013038516,-0.28683000802993774
6906.2602887971025,1588756.0,-0.03633999824523926,-0.004040000028908253,-0.005090000107884407,-0.28610000014305115
6906.261288569318,1588757.0,-0.04464999958872795,-0.003000000026077032,0.001769999973475933,-0.2851400077342987
6906.262288341533,1588758.0,-0.045820001512765884,-0.0008200000156648457,0.0009500000160187483,-0.284960001707077
6906.263288113748,1588759.0,-0.04154999926686287,0.00031999999191612005,0.0027699999045580626,-0.2838599979877472
6906.264287885963,1588760.0,-0.03401000052690506,0.0036800000816583633,0.0016299999551847577,-0.2824400067329407
6906.265287658179,1588761.0,-0.0258799996227026,0.0015899999998509884,0.00031999999191612005,-0.28207001090049744
6906.266287430394,1588762.0,-0.019500000402331352,0.006680000107735395,0.0014100000262260437,-0.2822999954223633
6906.26728720261,1588763.0,-0.013749999925494194,0.006130000110715628,0.000859999970998615,-0.28202998638153076
6906.268286974824,1588764.0,-0.008980000391602516,-0.000590000010561198,-0.001769999973475933,-0.2824400067329407
6906.26928674704,1588765.0,-0.005570000037550926,0.001769999973475933,-0.0002699999895412475,-0.28148001432418823
6906.270286519255,1588766.0,0.0020699999295175076,0.004629999864846468,0.00018000000272877514,-0.27955999970436096
6906.2712862914705,1588767.0,0.014379999600350857,0.008310000412166119,-0.0022700000554323196,-0.28042998909950256
6906.272286063686,1588768.0,0.024620000272989273,0.009759999811649323,0.0010000000474974513,-0.2798300087451935
6906.273285835901,1588769.0,0.03181000053882599,0.00494999997317791,0.0010400000028312206,-0.2771799862384796
6906.274285608116,1588770.0,0.032430000603199005,0.0027699999045580626,-9.000000136438757e-05,-0.27854999899864197
6906.275285380331,1588771.0,0.03037000074982643,-0.00044999999227002263,0.003539999946951866,-0.27726998925209045
6906.276285152547,1588772.0,0.024800000712275505,-0.0002300000051036477,-0.0036800000816583633,-0.2761699855327606
6906.277284924762,1588773.0,0.015809999778866768,-0.00839999970048666,-0.0022299999836832285,-0.2768099904060364
6906.278284696978,1588774.0,0.004900000058114529,-0.011309999972581863,-0.001500000013038516,-0.2754400074481964
6906.279284469192,1588775.0,-0.005030000116676092,-0.008170000277459621,0.005400000140070915,-0.2740199863910675
6906.280284241408,1588776.0,-0.013299999758601189,-0.006039999891072512,0.001449999981559813,-0.2750700116157532
6906.281284013623,1588777.0,-0.017069999128580093,-0.004679999779909849,0.002859999891370535,-0.27379000186920166
6906.282283785838,1588778.0,-0.013659999705851078,-0.004040000028908253,0.002859999891370535,-0.27219000458717346
6906.283283558054,1588779.0,-0.010239999741315842,0.0010400000028312206,0.0010400000028312206,-0.27250999212265015
6906.284283330269,1588780.0,-0.006149999797344208,0.0008200000156648457,0.00018000000272877514,-0.27237001061439514
6906.285283102484,1588781.0,-0.0002699999895412475,0.000910000002477318,0.0009500000160187483,-0.270579993724823
6906.286282874699,1588782.0,0.005710000172257423,0.003539999946951866,0.0022299999836832285,-0.2706800103187561
6906.287282646915,1588783.0,0.008980000391602516,0.0014100000262260437,0.00031999999191612005,-0.27077001333236694
6906.28828241913,1588784.0,0.009159999899566174,0.000859999970998615,-0.0013599999947473407,-0.2696700096130371
6906.289282191346,1588785.0,0.008449999615550041,-0.0018599999602884054,-0.0022299999836832285,-0.26848000288009644
6906.29028196356,1588786.0,0.014059999957680702,0.0027699999045580626,-0.005630000028759241,-0.26848000288009644
6906.291281735776,1588787.0,0.023809999227523804,0.005179999861866236,-0.0035000001080334187,-0.26774999499320984
6906.292281507991,1588788.0,0.030009999871253967,0.007360000163316727,0.0015399999683722854,-0.26614001393318176
6906.293281280206,1588789.0,0.028750000521540642,0.0024999999441206455,0.0024999999441206455,-0.2669700086116791
6906.294281052422,1588790.0,0.02201000042259693,0.004679999779909849,0.0009500000160187483,-0.26559001207351685
6906.295280824637,1588791.0,0.013340000063180923,0.0034099998883903027,-0.00041000000783242285,-0.26486000418663025
6906.296280596852,1588792.0,0.0034099998883903027,-0.0064500002190470695,-0.0007699999841861427,-0.2645399868488312
6906.297280369067,1588793.0,-0.009700000286102295,-0.004999999888241291,0.00203999993391335,-0.2644500136375427
6906.298280141283,1588794.0,-0.022690000012516975,-0.007860000245273113,-0.004000000189989805,-0.2634899914264679
6906.299279913498,1588795.0,-0.031939998269081116,-0.0059899999760091305,-0.004410000052303076,-0.2626200020313263
6906.300279685714,1588796.0,-0.03593999892473221,-0.002589999930933118,-0.0015899999998509884,-0.26271000504493713
6906.301279457928,1588797.0,-0.033240001648664474,0.002589999930933118,-0.002319999970495701,-0.2620700001716614
6906.3022792301435,1588798.0,-0.027489999309182167,-0.0009500000160187483,0.0,-0.26151999831199646
6906.303279002359,1588799.0,-0.021740000694990158,0.0027699999045580626,-0.00203999993391335,-0.2607400119304657
6906.304278774574,1588800.0,-0.017030000686645508,-4.999999873689376e-05,-0.0030900000128895044,-0.25977998971939087
6906.30527854679,1588801.0,-0.0101500004529953,0.004679999779909849,-0.0005000000237487257,-0.25936999917030334
6906.306278319005,1588802.0,-0.004310000222176313,0.0016799999866634607,-0.003590000094845891,-0.25922998785972595
6906.30727809122,1588803.0,-0.00018000000272877514,0.006130000110715628,-0.0009500000160187483,-0.25968998670578003
6906.308277863435,1588804.0,0.0028800000436604023,-0.00018000000272877514,-0.00014000000373926014,-0.25832000374794006
6906.309277635651,1588805.0,0.005750000011175871,-0.0028200000524520874,0.002319999970495701,-0.25762999057769775
6906.310277407866,1588806.0,0.014240000396966934,0.003719999920576811,0.004410000052303076,-0.25602999329566956
6906.311277180081,1588807.0,0.028119999915361404,0.007400000002235174,0.0010400000028312206,-0.25620999932289124
6906.312276952296,1588808.0,0.04106000065803528,0.004540000110864639,0.0,-0.25606998801231384
6906.3132767245115,1588809.0,0.0510299988090992,0.005040000192821026,-0.004040000028908253,-0.2556599974632263
6906.314276496727,1588810.0,0.053369998931884766,0.002090000081807375,-0.00418000016361475,-0.25461000204086304
6906.315276268942,1588811.0,0.049949999898672104,0.0002300000051036477,-0.005859999917447567,-0.25442999601364136
6906.316276041158,1588812.0,0.03953000158071518,-0.0006799999973736703,-0.00044999999227002263,-0.2540600001811981
6906.317275813372,1588813.0,0.024080000817775726,-0.002950000111013651,-0.0007300000288523734,-0.2527799904346466
6906.318275585588,1588814.0,0.010599999688565731,-0.00875999964773655,-0.0002300000051036477,-0.2535099983215332
6906.319275357803,1588815.0,-0.0003600000054575503,-0.004410000052303076,0.0016299999551847577,-0.25200000405311584
6906.320275130019,1588816.0,-0.007819999940693378,-0.004269999917596579,0.00267999991774559,-0.25181999802589417
6906.321274902234,1588817.0,-0.011500000022351742,-0.0017300000181421638,0.001820000004954636,-0.2503499984741211
6906.322274674449,1588818.0,-0.009789999574422836,-0.000539999979082495,-0.003539999946951866,-0.25117000937461853
6906.323274446664,1588819.0,-0.007319999858736992,0.00031999999191612005,-0.0021299999207258224,-0.2503100037574768
6906.3242742188795,1588820.0,-0.005210000090301037,0.003590000094845891,-0.0011399999493733048,-0.2493399977684021
6906.325273991095,1588821.0,-0.0026100000832229853,0.003220000071451068,-0.0027699999045580626,-0.24924999475479126
6906.32627376331,1588822.0,3.9999998989515007e-05,0.00686000008136034,-0.0030400000978261232,-0.2487500011920929
6906.327273535526,1588823.0,0.0021100000012665987,0.0025400000158697367,-0.0028200000524520874,-0.24842999875545502
6906.32827330774,1588824.0,0.0031399999279528856,0.00031999999191612005,0.006490000057965517,-0.2476000040769577
6906.329273079956,1588825.0,0.006060000043362379,-0.0006399999838322401,0.0014100000262260437,-0.24728000164031982
6906.330272852171,1588826.0,0.0147299999371171,0.00267999991774559,-0.0002300000051036477,-0.24654999375343323
6906.331272624387,1588827.0,0.029740000143647194,0.005770000163465738,4.999999873689376e-05,-0.24577000737190247
6906.332272396602,1588828.0,0.04222999885678291,0.003539999946951866,0.0019499999471008778,-0.2461400032043457
6906.333272168817,1588829.0,0.04986000061035156,0.0009500000160187483,-0.000590000010561198,-0.24503999948501587
6906.334271941032,1588830.0,0.048739999532699585,0.00031999999191612005,-4.999999873689376e-05,-0.2445400059223175
6906.3352717132475,1588831.0,0.042500000447034836,0.00031999999191612005,-0.001500000013038516,-0.24376000463962555
6906.336271485463,1588832.0,0.03288000077009201,-0.004679999779909849,-0.004449999891221523,-0.24435000121593475
6906.337271257678,1588833.0,0.019050000235438347,-0.009259999729692936,-0.005859999917447567,-0.24344000220298767
6906.338271029894,1588834.0,0.00646999990567565,-0.008129999972879887,-0.001180000021122396,-0.24270999431610107
6906.339270802108,1588835.0,-0.004579999949783087,-0.006949999835342169,0.001500000013038516,-0.24174000322818756
6906.340270574324,1588836.0,-0.015180000104010105,-0.007180000189691782,0.004269999917596579,-0.24178999662399292
6906.341270346539,1588837.0,-0.020390000194311142,-0.003269999986514449,0.002090000081807375,-0.24100999534130096
6906.342270118755,1588838.0,-0.02295999974012375,-0.002589999930933118,0.000910000002477318,-0.23991000652313232
6906.34326989097,1588839.0,-0.02443999983370304,-0.001230000052601099,0.0015399999683722854,-0.2406499981880188
6906.344269663185,1588840.0,-0.022280000150203705,-0.004900000058114529,-0.0007699999841861427,-0.23973000049591064
6906.3452694354,1588841.0,-0.019950000569224358,0.001769999973475933,0.002409999957308173,-0.23882000148296356
6906.3462692076155,1588842.0,-0.01860000006854534,0.001500000013038516,-0.0027699999045580626,-0.23836000263690948
6906.347268979831,1588843.0,-0.01962999999523163,0.0021800000686198473,-0.000859999970998615,-0.23845000565052032
6906.348268752046,1588844.0,-0.017880000174045563,0.005539999809116125,-0.0024500000290572643,-0.23794999718666077
6906.349268524262,1588845.0,-0.015410000458359718,0.002409999957308173,-0.0036800000816583633,-0.23698000609874725
6906.350268296476,1588846.0,-0.008799999952316284,0.006680000107735395,0.00031999999191612005,-0.23698000609874725
6906.351268068692,1588847.0,0.0027000000700354576,0.01071999967098236,0.003590000094845891,-0.2358900010585785
6906.352267840907,1588848.0,0.0147299999371171,0.005900000222027302,0.0025400000158697367,-0.23478999733924866
6906.353267613123,1588849.0,0.027130000293254852,0.0030400000978261232,0.0024500000290572643,-0.23520000278949738
6906.354267385338,1588850.0,0.032030001282691956,0.00031999999191612005,-0.00203999993391335,-0.23523999750614166
6906.355267157553,1588851.0,0.029020000249147415,-0.0015899999998509884,-0.0062699997797608376,-0.23409999907016754
6906.356266929768,1588852.0,0.018549999222159386,-0.0015899999998509884,-0.0015899999998509884,-0.23405000567436218
6906.3572667019835,1588853.0,0.0014400000218302011,-0.00494999997317791,0.00031999999191612005,-0.23405000567436218
6906.358266474199,1588854.0,-0.01343000028282404,-0.00839999970048666,0.0010400000028312206,-0.23217999935150146
6906.359266246414,1588855.0,-0.021740000694990158,-0.007040000054985285,0.002859999891370535,-0.23263999819755554
6906.36026601863,1588856.0,-0.02515999972820282,-0.004410000052303076,-0.0030400000978261232,-0.23208999633789062
6906.361265790844,1588857.0,-0.023669999092817307,-0.005489999894052744,-0.0031300000846385956,-0.2315399944782257
6906.36226556306,1588858.0,-0.018959999084472656,-4.999999873689376e-05,-0.0015899999998509884,-0.23103000223636627
6906.363265335275,1588859.0,-0.010870000347495079,0.0015399999683722854,0.003220000071451068,-0.23029999434947968
6906.364265107491,1588860.0,-0.0008500000112690032,-9.000000136438757e-05,0.00267999991774559,-0.23015999794006348
6906.365264879706,1588861.0,0.009569999761879444,0.00031999999191612005,0.001769999973475933,-0.22928999364376068
6906.366264651921,1588862.0,0.01769999973475933,0.001230000052601099,-0.001449999981559813,-0.22874000668525696
6906.367264424136,1588863.0,0.02191999927163124,-0.0011399999493733048,0.0024500000290572643,-0.22806000709533691
6906.368264196351,1588864.0,0.02305000089108944,-0.00014000000373926014,-0.0020000000949949026,-0.22797000408172607
6906.369263968567,1588865.0,0.02295999974012375,-0.0003600000054575503,-0.0014100000262260437,-0.22782999277114868
6906.370263740782,1588866.0,0.028030000627040863,0.0024500000290572643,0.00031999999191612005,-0.22759999334812164
6906.371263512998,1588867.0,0.03711000084877014,0.009039999917149544,0.0020000000949949026,-0.22673000395298004
6906.372263285212,1588868.0,0.04473999887704849,0.004410000052303076,0.0010000000474974513,-0.22645999491214752
6906.373263057428,1588869.0,0.0510299988090992,0.00418000016361475,0.0012700000079348683,-0.22595000267028809
6906.374262829643,1588870.0,0.052069999277591705,-0.000859999970998615,-0.006949999835342169,-0.22544999420642853
6906.375262601859,1588871.0,0.0500900000333786,-0.004769999999552965,0.001449999981559813,-0.22472000122070312
6906.376262374073,1588872.0,0.04295000061392784,-0.0036800000816583633,-0.005810000002384186,-0.22466999292373657
6906.377262146289,1588873.0,0.032930001616477966,-0.004900000058114529,-0.0005000000237487257,-0.2249000072479248
6906.378261918504,1588874.0,0.022460000589489937,-0.003949999809265137,-0.0013200000394135714,-0.22380000352859497
6906.379261690719,1588875.0,0.011049999855458736,-0.006949999835342169,-0.001500000013038516,-0.22338999807834625
6906.380261462935,1588876.0,-0.0003600000054575503,-0.0062699997797608376,0.0014100000262260437,-0.22266000509262085
6906.38126123515,1588877.0,-0.006829999852925539,-0.0029100000392645597,-0.0036800000816583633,-0.22234000265598297
6906.382261007365,1588878.0,-0.009069999679923058,0.003000000026077032,9.000000136438757e-05,-0.22165000438690186
6906.38326077958,1588879.0,-0.007009999826550484,0.003220000071451068,0.004769999999552965,-0.22133000195026398
6906.384260551796,1588880.0,0.0003100000030826777,0.00203999993391335,-0.0024500000290572643,-0.2208700031042099
6906.385260324011,1588881.0,0.0101500004529953,0.0012700000079348683,0.001769999973475933,-0.22018000483512878
6906.386260096227,1588882.0,0.019589999690651894,0.005810000002384186,-0.00041000000783242285,-0.2202800065279007
6906.387259868441,1588883.0,0.026319999247789383,0.0030400000978261232,-9.000000136438757e-05,-0.21967999637126923
6906.3882596406565,1588884.0,0.02937999926507473,0.0013200000394135714,-4.999999873689376e-05,-0.21904000639915466
6906.389259412872,1588885.0,0.029920000582933426,0.0024999999441206455,-4.999999873689376e-05,-0.21886000037193298
6906.390259185087,1588886.0,0.0354899987578392,0.006130000110715628,-0.000590000010561198,-0.21807999908924103
6906.391258957303,1588887.0,0.04631999880075455,0.006130000110715628,-0.002090000081807375,-0.21748000383377075
6906.392258729518,1588888.0,0.058309998363256454,0.004999999888241291,0.0019499999471008778,-0.2168000042438507
6906.393258501733,1588889.0,0.0662200003862381,0.004410000052303076,-0.001820000004954636,-0.21693000197410583
6906.394258273948,1588890.0,0.06836999952793121,0.0022299999836832285,-0.003860000055283308,-0.21648000180721283
6906.395258046164,1588891.0,0.06577000021934509,-0.00041000000783242285,0.0010900000343099236,-0.21560999751091003
6906.396257818379,1588892.0,0.05861999839544296,-0.004860000219196081,-0.00044999999227002263,-0.2152400016784668
6906.397257590595,1588893.0,0.04569000005722046,-0.0071299998089671135,-0.0027199999894946814,-0.21473999321460724
6906.398257362809,1588894.0,0.03413999825716019,-0.007309999782592058,0.004360000137239695,-0.21410000324249268
6906.3992571350245,1588895.0,0.023089999333024025,-0.0071299998089671135,-0.0019099999917671084,-0.21358999609947205
6906.40025690724,1588896.0,0.014510000124573708,-0.007770000025629997,0.00267999991774559,-0.21312999725341797
6906.401256679455,1588897.0,0.011590000241994858,-0.006949999835342169,-0.0015399999683722854,-0.213359996676445
6906.402256451671,1588898.0,0.016440000385046005,-0.00267999991774559,0.0008200000156648457,-0.2120800018310547
6906.403256223886,1588899.0,0.023719999939203262,0.0012700000079348683,0.0010000000474974513,-0.21235999464988708
6906.404255996101,1588900.0,0.030460000038146973,0.0010000000474974513,-0.0013599999947473407,-0.21198999881744385
6906.405255768316,1588901.0,0.03562000021338463,0.0030400000978261232,0.002859999891370535,-0.2112099975347519
6906.406255540532,1588902.0,0.03863000124692917,0.0017300000181421638,-0.0006399999838322401,-0.21074999868869781
6906.407255312747,1588903.0,0.04033999890089035,0.0021299999207258224,-0.0014100000262260437,-0.2106200009584427
6906.408255084963,1588904.0,0.04213999956846237,0.0020000000949949026,0.001500000013038516,-0.2097499966621399
6906.409254857177,1588905.0,0.041689999401569366,-4.999999873689376e-05,-0.00014000000373926014,-0.2096100002527237
6906.4102546293925,1588906.0,0.04684999957680702,0.002859999891370535,-0.0012700000079348683,-0.20924000442028046
6906.411254401608,1588907.0,0.057009998708963394,0.0037700000684708357,0.003539999946951866,-0.20847000181674957
6906.412254173823,1588908.0,0.06756000220775604,0.0045900000259280205,0.00018000000272877514,-0.2077299952507019
6906.413253946039,1588909.0,0.07321999967098236,0.004769999999552965,-0.0035000001080334187,-0.20755000412464142
6906.414253718254,1588910.0,0.07246000319719315,0.0012700000079348683,9.000000136438757e-05,-0.20746000111103058
6906.415253490469,1588911.0,0.06684999912977219,-0.0002300000051036477,0.002859999891370535,-0.2061299979686737
6906.416253262684,1588912.0,0.055879998952150345,-0.005489999894052744,-0.004809999838471413,-0.20622000098228455
6906.4172530349,1588913.0,0.0399399995803833,-0.009399999864399433,-0.002319999970495701,-0.20548999309539795
6906.418252807115,1588914.0,0.0257399994879961,-0.00686000008136034,0.0011399999493733048,-0.20420999825000763
6906.4192525793305,1588915.0,0.01508999988436699,-0.007400000002235174,-0.005489999894052744,-0.2048500031232834
6906.420252351545,1588916.0,0.005119999870657921,-0.005810000002384186,-0.0027199999894946814,-0.20403000712394714
6906.4212521237605,1588917.0,-0.00044999999227002263,0.0011399999493733048,0.0045900000259280205,-0.20302000641822815
6906.422251895976,1588918.0,-0.0015300000086426735,0.0016299999551847577,-0.0064500002190470695,-0.2023800015449524
6906.423251668191,1588919.0,0.0016199999954551458,0.006130000110715628,0.0008200000156648457,-0.20182999968528748
6906.424251440407,1588920.0,0.007009999826550484,0.004220000002533197,0.0045900000259280205,-0.20182999968528748
6906.425251212622,1588921.0,0.01221999991685152,0.0031799999997019768,0.0009500000160187483,-0.2007800042629242
6906.426250984837,1588922.0,0.01607999950647354,0.0011399999493733048,0.00418000016361475,-0.1997700035572052
6906.427250757052,1588923.0,0.018689999356865883,0.0037700000684708357,-0.0002300000051036477,-0.2003600001335144
6906.428250529268,1588924.0,0.019050000235438347,0.0018599999602884054,-0.003000000026077032,-0.19912999868392944
6906.429250301483,1588925.0,0.018689999356865883,-0.002589999930933118,0.000910000002477318,-0.1982100009918213
6906.4302500736985,1588926.0,0.026149999350309372,0.004679999779909849,0.0024999999441206455,-0.19742999970912933
6906.431249845913,1588927.0,0.03863000124692917,0.002319999970495701,-0.001180000021122396,-0.19765999913215637
6906.4322496181285,1588928.0,0.04967999830842018,0.00494999997317791,-0.0012700000079348683,-0.1974799931049347
6906.433249390344,1588929.0,0.056689999997615814,0.002630000002682209,0.00018000000272877514,-0.1963299959897995
6906.434249162559,1588930.0,0.056689999997615814,-0.003220000071451068,-0.005539999809116125,-0.19550999999046326
6906.435248934775,1588931.0,0.05412999913096428,-0.0051299999468028545,0.0002699999895412475,-0.19528000056743622
6906.43624870699,1588932.0,0.0481100007891655,-0.0063599999994039536,-0.0018599999602884054,-0.19505000114440918
6906.437248479205,1588933.0,0.036479998379945755,-0.005489999894052744,-0.004449999891221523,-0.1938599944114685
6906.43824825142,1588934.0,0.02676999941468239,-0.002090000081807375,0.0010400000028312206,-0.19280999898910522
6906.439248023636,1588935.0,0.020659999921917915,-0.0037700000684708357,-0.00267999991774559,-0.19262999296188354
6906.440247795851,1588936.0,0.016170000657439232,-0.005770000163465738,-0.003000000026077032,-0.19262999296188354
6906.441247568066,1588937.0,0.0147299999371171,-0.0011399999493733048,0.002859999891370535,-0.19144000113010406
6906.442247340281,1588938.0,0.017740000039339066,0.0015399999683722854,0.0016299999551847577,-0.1905200034379959
6906.4432471124965,1588939.0,0.02092999964952469,0.0013200000394135714,-0.003949999809265137,-0.1901099979877472
6906.444246884712,1588940.0,0.02151999995112419,0.0010400000028312206,-0.0010400000028312206,-0.1890999972820282
6906.445246656927,1588941.0,0.018869999796152115,-0.0007699999841861427,-0.0015399999683722854,-0.1890999972820282
6906.446246429143,1588942.0,0.017969999462366104,0.003220000071451068,-0.002589999930933118,-0.188510000705719
6906.447246201358,1588943.0,0.018149999901652336,0.006130000110715628,0.003220000071451068,-0.18731999397277832
6906.448245973573,1588944.0,0.018060000613331795,0.002630000002682209,-0.0007699999841861427,-0.18717999756336212
6906.449245745788,1588945.0,0.021290000528097153,0.0017300000181421638,0.006130000110715628,-0.18653999269008636
6906.450245518004,1588946.0,0.029650000855326653,0.006130000110715628,-0.0031300000846385956,-0.18544000387191772
6906.451245290219,1588947.0,0.03799999877810478,0.003000000026077032,-0.0030400000978261232,-0.1844799965620041
6906.452245062434,1588948.0,0.044199999421834946,0.005900000222027302,0.0011399999493733048,-0.18443000316619873
6906.453244834649,1588949.0,0.049150001257658005,0.003949999809265137,-0.002409999957308173,-0.18424999713897705
6906.454244606864,1588950.0,0.05201999843120575,-0.00044999999227002263,0.00031999999191612005,-0.18320000171661377
6906.45524437908,1588951.0,0.048340000212192535,-0.004040000028908253,-0.002589999930933118,-0.1816900074481964
6906.456244151295,1588952.0,0.03962000086903572,-0.0028200000524520874,-0.002319999970495701,-0.18251000344753265
6906.457243923511,1588953.0,0.027130000293254852,-0.006539999973028898,-0.0016299999551847577,-0.18131999671459198
6906.458243695725,1588954.0,0.014379999600350857,-0.003220000071451068,-0.0011399999493733048,-0.1799899935722351
6906.459243467941,1588955.0,0.004310000222176313,-0.0036800000816583633,0.003860000055283308,-0.17952999472618103
6906.460243240156,1588956.0,-0.0037700000684708357,-0.008170000277459621,-0.003269999986514449,-0.17962999641895294
6906.461243012372,1588957.0,-0.0048500001430511475,-0.006949999835342169,0.001769999973475933,-0.1783899962902069
6906.462242784587,1588958.0,-0.002520000096410513,-0.0008200000156648457,-0.004129999782890081,-0.17802000045776367
6906.463242556802,1588959.0,0.0009899999713525176,0.002589999930933118,0.003220000071451068,-0.1762399971485138
6906.464242329017,1588960.0,0.007280000019818544,0.004679999779909849,-0.0024500000290572643,-0.17564000189304352
6906.465242101232,1588961.0,0.01384000014513731,0.004000000189989805,0.004129999782890081,-0.17490999400615692
6906.466241873448,1588962.0,0.018060000613331795,0.0008200000156648457,0.0009500000160187483,-0.1746399998664856
6906.467241645663,1588963.0,0.02092999964952469,-0.0009500000160187483,-0.0036800000816583633,-0.1743600070476532
6906.468241417879,1588964.0,0.023310000076889992,-0.0002300000051036477,0.0034099998883903027,-0.17372000217437744
6906.469241190093,1588965.0,0.02425999939441681,0.0028200000524520874,-0.0016799999866634607,-0.17339999973773956
6906.470240962309,1588966.0,0.03077000007033348,0.006130000110715628,-0.0016799999866634607,-0.17161999642848969
6906.471240734524,1588967.0,0.04083000123500824,0.004310000222176313,-0.0013200000394135714,-0.17051999270915985
6906.47224050674,1588968.0,0.04816000163555145,0.008080000057816505,0.00031999999191612005,-0.17106999456882477
6906.473240278955,1588969.0,0.05090000107884407,0.004809999838471413,0.00031999999191612005,-0.17096999287605286
6906.4742400511695,1588970.0,0.04851999878883362,0.0036800000816583633,-0.0011399999493733048,-0.1701499968767166
6906.475239823385,1588971.0,0.04187000170350075,0.0021299999207258224,-0.0027199999894946814,-0.16910000145435333
6906.4762395956,1588972.0,0.03269999846816063,-0.006949999835342169,-0.0015899999998509884,-0.1678600013256073
6906.477239367816,1588973.0,0.020309999585151672,-0.006039999891072512,-0.0045900000259280205,-0.1672700047492981
6906.478239140031,1588974.0,0.009840000420808792,-0.004269999917596579,0.0029100000392645597,-0.16580000519752502
6906.479238912247,1588975.0,0.0026100000832229853,-0.006579999811947346,-0.0016799999866634607,-0.16512000560760498
6906.480238684461,1588976.0,-0.0028800000436604023,-0.0072200000286102295,0.0024999999441206455,-0.16425000131130219
6906.481238456677,1588977.0,-0.003229999914765358,-0.0018599999602884054,-0.0011399999493733048,-0.164110004901886
6906.482238228892,1588978.0,-0.000539999979082495,0.002630000002682209,0.0027699999045580626,-0.1625099927186966
6906.483238001108,1588979.0,0.0008999999845400453,0.0014100000262260437,-0.00018000000272877514,-0.16373999416828156
6906.484237773323,1588980.0,0.0014400000218302011,0.003220000071451068,-0.0005000000237487257,-0.16272999346256256
6906.4852375455375,1588981.0,0.003949999809265137,0.0014100000262260437,-0.002630000002682209,-0.16132000088691711
6906.486237317753,1588982.0,0.009209999814629555,0.0010400000028312206,0.0036299999337643385,-0.15985000133514404
6906.487237089968,1588983.0,0.012350000441074371,0.0044999998062849045,0.0010400000028312206,-0.15897999703884125
6906.488236862184,1588984.0,0.0147299999371171,0.0016799999866634607,0.0009500000160187483,-0.15825000405311584
6906.489236634399,1588985.0,0.015589999966323376,0.002589999930933118,0.0014100000262260437,-0.15796999633312225
6906.490236406615,1588986.0,0.02102000080049038,0.005590000189840794,0.0013599999947473407,-0.15810999274253845
6906.491236178829,1588987.0,0.027489999309182167,0.008310000412166119,-0.0002699999895412475,-0.15806999802589417
6906.492235951045,1588988.0,0.03382999822497368,0.003590000094845891,-0.002630000002682209,-0.15737999975681305
6906.49323572326,1588989.0,0.03962000086903572,0.005309999920427799,0.000910000002477318,-0.15665000677108765
6906.494235495476,1588990.0,0.041510000824928284,-0.000539999979082495,-0.002630000002682209,-0.15613999962806702
6906.495235267691,1588991.0,0.038989998400211334,0.0009500000160187483,-0.0014100000262260437,-0.15503999590873718
6906.4962350399055,1588992.0,0.03162999823689461,-0.001820000004954636,0.00031999999191612005,-0.1538500040769577
6906.497234812121,1588993.0,0.021740000694990158,-0.004410000052303076,-0.0024500000290572643,-0.1518400013446808
6906.498234584336,1588994.0,0.011859999969601631,-0.0062699997797608376,0.00031999999191612005,-0.15357999503612518
6906.499234356552,1588995.0,0.0026499999221414328,-0.007400000002235174,-0.000910000002477318,-0.1525299996137619
6906.500234128767,1588996.0,-0.003949999809265137,-0.00803999975323677,-0.0030400000978261232,-0.15106000006198883
6906.501233900983,1588997.0,-0.0064199999906122684,0.0030900000128895044,0.001769999973475933,-0.15047000348567963
6906.502233673197,1588998.0,-0.004399999976158142,-0.001500000013038516,0.001230000052601099,-0.14885999262332916
6906.503233445413,1588999.0,0.0024300001095980406,0.00267999991774559,-0.0016299999551847577,-0.14799000322818756
6906.504233217628,1589000.0,0.009700000286102295,0.00014000000373926014,-0.0012700000079348683,-0.1490900069475174
6906.5052329898435,1589001.0,0.016529999673366547,0.008630000054836273,0.00031999999191612005,-0.14877000451087952
6906.506232762058,1589002.0,0.02102000080049038,0.003220000071451068,0.0030900000128895044,-0.14702999591827393
6906.5072325342735,1589003.0,0.02201000042259693,0.002859999891370535,0.0015899999998509884,-0.1453399956226349
6906.508232306489,1589004.0,0.019589999690651894,0.0008200000156648457,-0.004679999779909849,-0.14470000565052032
6906.509232078704,1589005.0,0.019859999418258667,0.0009500000160187483,0.00031999999191612005,-0.14630000293254852
6906.51023185092,1589006.0,0.025429999455809593,0.005040000192821026,0.0030900000128895044,-0.145019993185997
6906.511231623135,1589007.0,0.032340001314878464,0.005400000140070915,-0.0002699999895412475,-0.14305000007152557
6906.512231395351,1589008.0,0.0370200015604496,0.003719999920576811,0.0019099999917671084,-0.14177000522613525
6906.513231167565,1589009.0,0.03832000121474266,0.004220000002533197,-0.0027699999045580626,-0.14323000609874725
6906.514230939781,1589010.0,0.03472999855875969,0.00031999999191612005,0.002589999930933118,-0.1421400010585785
6906.515230711996,1589011.0,0.02515999972820282,0.00031999999191612005,-0.004129999782890081,-0.14177000522613525
6906.5162304842115,1589012.0,0.013299999758601189,-0.005489999894052744,-0.004999999888241291,-0.14145000278949738
6906.517230256426,1589013.0,0.003949999809265137,-0.002950000111013651,0.00031999999191612005,-0.14061999320983887
6906.5182300286415,1589014.0,-0.0025599999353289604,-0.006399999838322401,-0.002589999930933118,-0.13956999778747559
6906.519229800857,1589015.0,-0.00839999970048666,-0.005179999861866236,0.0012700000079348683,-0.1382399946451187
6906.520229573072,1589016.0,-0.011859999969601631,-0.00803999975323677,-9.000000136438757e-05,-0.1379700005054474
6906.521229345288,1589017.0,-0.012129999697208405,-0.0037700000684708357,-0.002950000111013651,-0.13660000264644623
6906.522229117503,1589018.0,-0.008980000391602516,-0.004040000028908253,0.0019099999917671084,-0.1354999989271164
6906.523228889718,1589019.0,-0.005169999785721302,0.0031799999997019768,-0.003909999970346689,-0.13467000424861908
6906.524228661933,1589020.0,-0.004579999949783087,9.000000136438757e-05,0.00031999999191612005,-0.13325999677181244
6906.525228434149,1589021.0,-0.006560000125318766,0.0037700000684708357,-0.0024500000290572643,-0.13229000568389893
6906.526228206364,1589022.0,-0.005750000011175871,0.00203999993391335,-0.002319999970495701,-0.1311500072479248
6906.5272279785795,1589023.0,-0.0009399999980814755,0.0037700000684708357,0.0019499999471008778,-0.1320600062608719
6906.528227750794,1589024.0,0.0016199999954551458,0.0002300000051036477,-0.0014100000262260437,-0.13321000337600708
6906.5292275230095,1589025.0,0.006060000043362379,0.00031999999191612005,-0.0002300000051036477,-0.1304599940776825
6906.530227295225,1589026.0,0.014469999819993973,0.005770000163465738,0.0027699999045580626,-0.12836000323295593
6906.53122706744,1589027.0,0.023809999227523804,0.007180000189691782,-0.0015899999998509884,-0.1298699975013733
6906.532226839656,1589028.0,0.03077000007033348,0.0076299998909235,0.0031799999997019768,-0.12876999378204346
6906.533226611871,1589029.0,0.03077000007033348,0.0028200000524520874,-0.0002300000051036477,-0.1272599995136261
6906.534226384086,1589030.0,0.026499999687075615,0.0019499999471008778,-0.0002699999895412475,-0.12520000338554382
6906.535226156301,1589031.0,0.021789999678730965,-0.004040000028908253,-0.005539999809116125,-0.12748999893665314
6906.536225928517,1589032.0,0.01351999957114458,-0.006089999806135893,-0.0016799999866634607,-0.12601999938488007
6906.537225700732,1589033.0,0.005619999952614307,-0.005489999894052744,-0.0044999998062849045,-0.1258399933576584
6906.5382254729475,1589034.0,-0.0012600000482052565,-0.004629999864846468,-0.0019099999917671084,-0.12217999994754791
6906.539225245162,1589035.0,-0.005750000011175871,-0.00839999970048666,-0.00267999991774559,-0.12273000180721283
6906.540225017377,1589036.0,-0.008630000054836273,-0.004769999999552965,0.0017300000181421638,-0.12336999922990799
6906.541224789593,1589037.0,-0.008980000391602516,-0.002319999970495701,0.005270000081509352,-0.12020999938249588
6906.542224561808,1589038.0,-0.007369999773800373,0.0030400000978261232,-0.0011399999493733048,-0.12007000297307968
6906.543224334024,1589039.0,-0.005750000011175871,0.0002699999895412475,0.0008200000156648457,-0.12099000066518784
6906.544224106239,1589040.0,-0.0025599999353289604,0.003220000071451068,-0.00044999999227002263,-0.11997999995946884
6906.545223878454,1589041.0,0.0017999999690800905,0.0027699999045580626,-0.0030400000978261232,-0.11714000254869461
6906.546223650669,1589042.0,0.005929999984800816,0.0014100000262260437,-0.004040000028908253,-0.11841999739408493
6906.547223422885,1589043.0,0.007819999940693378,0.002409999957308173,-0.0009500000160187483,-0.11818999797105789
6906.5482231951,1589044.0,0.0070500001311302185,0.000910000002477318,-0.001449999981559813,-0.1143999993801117
6906.5492229673155,1589045.0,0.006060000043362379,-0.0010000000474974513,-0.0029100000392645597,-0.11462000012397766
6906.55022273953,1589046.0,0.010649999603629112,0.005590000189840794,0.00203999993391335,-0.11467000097036362
6906.551222511745,1589047.0,0.017559999600052834,0.004540000110864639,0.00031999999191612005,-0.11545000225305557
6906.552222283961,1589048.0,0.021789999678730965,0.00949000008404255,0.001769999973475933,-0.11101000010967255
6906.553222056176,1589049.0,0.021560000255703926,0.004629999864846468,0.0014100000262260437,-0.11141999810934067
6906.554221828392,1589050.0,0.01607999950647354,0.0015399999683722854,0.0011399999493733048,-0.1117900013923645
6906.555221600607,1589051.0,0.011049999855458736,-0.000859999970998615,-0.006039999891072512,-0.11229000240564346
6906.556221372822,1589052.0,0.0048500001430511475,-0.004999999888241291,-0.004629999864846468,-0.10807999968528748
6906.557221145037,1589053.0,-0.0028800000436604023,-0.006949999835342169,-0.000859999970998615,-0.10858000069856644
6906.558220917253,1589054.0,-0.013120000250637531,-0.0035000001080334187,-0.002409999957308173,-0.10982000082731247
6906.559220689468,1589055.0,-0.022099999710917473,-0.0028200000524520874,-0.00203999993391335,-0.10789000242948532
6906.5602204616835,1589056.0,-0.02727000042796135,-0.005950000137090683,0.005040000192821026,-0.1051499992609024
6906.561220233898,1589057.0,-0.028209999203681946,-0.0027699999045580626,-0.0009500000160187483,-0.10698000341653824
6906.562220006113,1589058.0,-0.02776000089943409,0.000910000002477318,0.00031999999191612005,-0.1070299968123436
6906.563219778329,1589059.0,-0.026189999654889107,0.003220000071451068,-0.002589999930933118,-0.10312999784946442
6906.564219550544,1589060.0,-0.02092999964952469,0.0014100000262260437,-0.003269999986514449,-0.10294999927282333
6906.56521932276,1589061.0,-0.014639999717473984,0.002589999930933118,0.0002300000051036477,-0.10454999655485153
6906.566219094975,1589062.0,-0.008980000391602516,0.003220000071451068,0.0030400000978261232,-0.10166999697685242
6906.56721886719,1589063.0,-0.004129999782890081,-4.999999873689376e-05,0.0010000000474974513,-0.09974999725818634
6906.568218639405,1589064.0,-0.0012600000482052565,0.0014100000262260437,-0.0006399999838322401,-0.10130000114440918
6906.569218411621,1589065.0,0.0007200000109151006,0.001769999973475933,0.003590000094845891,-0.10166999697685242
6906.570218183836,1589066.0,0.006020000204443932,0.0027199999894946814,-0.0011399999493733048,-0.09754999727010727
6906.5712179560505,1589067.0,0.014019999653100967,0.005630000028759241,0.00031999999191612005,-0.09781999886035919
6906.572217728266,1589068.0,0.021609999239444733,0.004679999779909849,-0.001500000013038516,-0.0993800014257431
6906.573217500481,1589069.0,0.026729999110102654,0.0010400000028312206,0.0016799999866634607,-0.09635999798774719
6906.574217272697,1589070.0,0.026410000398755074,0.0013200000394135714,0.0031300000846385956,-0.09480000287294388
6906.575217044912,1589071.0,0.021199999377131462,-0.00014000000373926014,0.002360000042244792,-0.09599000215530396
6906.576216817128,1589072.0,0.008270000107586384,-0.007809999864548445,-0.003000000026077032,-0.09539999812841415
6906.577216589343,1589073.0,-0.0053900000639259815,-0.006490000057965517,-0.00418000016361475,-0.09241999685764313
6906.578216361558,1589074.0,-0.014999999664723873,-0.010040000081062317,-0.002950000111013651,-0.09488999843597412
6906.579216133773,1589075.0,-0.022099999710917473,-0.00839999970048666,0.0037700000684708357,-0.09104999899864197
6906.580215905989,1589076.0,-0.02597000077366829,-0.005489999894052744,0.0002699999895412475,-0.09000000357627869
6906.581215678204,1589077.0,-0.025429999455809593,-0.00044999999227002263,-0.000910000002477318,-0.092009998857975
6906.5822154504185,1589078.0,-0.022099999710917473,0.003719999920576811,0.00031999999191612005,-0.09187000244855881
6906.583215222634,1589079.0,-0.017880000174045563,0.004089999943971634,-0.000859999970998615,-0.08756999671459198
6906.584214994849,1589080.0,-0.01307000033557415,0.002950000111013651,0.00031999999191612005,-0.09087000042200089
6906.585214767065,1589081.0,-0.009340000338852406,0.003949999809265137,-0.0017300000181421638,-0.08904000371694565
6906.58621453928,1589082.0,-0.005570000037550926,0.004310000222176313,0.0015399999683722854,-0.08528000116348267
6906.587214311496,1589083.0,-0.0015699999639764428,0.0030400000978261232,-0.0036299999337643385,-0.08574000000953674
6906.58821408371,1589084.0,0.0003100000030826777,0.002409999957308173,0.000910000002477318,-0.0881199985742569
6906.589213855926,1589085.0,0.0018899999558925629,-0.0015399999683722854,0.002090000081807375,-0.08578000217676163
6906.590213628141,1589086.0,0.007550000213086605,0.004449999891221523,-0.002090000081807375,-0.0824899971485138
6906.5912134003565,1589087.0,0.015860000625252724,0.004679999779909849,0.0014100000262260437,-0.08184999972581863
6906.592213172572,1589088.0,0.024390000849962234,0.007540000136941671,-0.003220000071451068,-0.08500999957323074
6906.5932129447865,1589089.0,0.029559999704360962,0.0010400000028312206,0.00031999999191612005,-0.08101999759674072
6906.594212717002,1589090.0,0.02735999971628189,0.0014100000262260437,-0.0011399999493733048,-0.07823000103235245
6906.595212489217,1589091.0,0.019990000873804092,-0.00267999991774559,-0.001820000004954636,-0.08189000189304352
6906.596212261433,1589092.0,0.011049999855458736,-0.0033599999733269215,0.003949999809265137,-0.07970000058412552
6906.597212033648,1589093.0,0.0016199999954551458,-0.005859999917447567,-0.0051299999468028545,-0.07613000273704529
6906.598211805864,1589094.0,-0.005030000116676092,-0.008630000054836273,-4.999999873689376e-05,-0.07919000089168549
6906.599211578078,1589095.0,-0.009479999542236328,-0.00803999975323677,0.002859999891370535,-0.0765800029039383
6906.600211350294,1589096.0,-0.010780000127851963,-0.0018599999602884054,0.0017300000181421638,-0.07388000190258026
6906.601211122509,1589097.0,-0.008270000107586384,-0.003539999946951866,0.0037700000684708357,-0.07419999688863754
6906.6022108947245,1589098.0,-0.0034099998883903027,-0.0010400000028312206,0.004410000052303076,-0.0758500024676323
6906.60321066694,1589099.0,-0.0013500000350177288,0.001230000052601099,0.0009500000160187483,-0.07466000318527222
6906.6042104391545,1589100.0,0.0003100000030826777,0.005679999943822622,0.003000000026077032,-0.06999000161886215
6906.60521021137,1589101.0,0.00107999995816499,0.003909999970346689,0.00031999999191612005,-0.07035999745130539
6906.606209983585,1589102.0,0.0016199999954551458,0.00031999999191612005,0.00031999999191612005,-0.0723700001835823
6906.607209755801,1589103.0,0.0016199999954551458,0.002950000111013651,0.00031999999191612005,-0.06706000119447708
6906.608209528016,1589104.0,0.0,0.00031999999191612005,-0.003719999920576811,-0.06784000247716904
6906.609209300232,1589105.0,0.0011699999449774623,-0.000539999979082495,-0.002090000081807375,-0.07027000188827515
6906.610209072446,1589106.0,0.005799999926239252,0.002589999930933118,0.004860000219196081,-0.06377000361680984
6906.611208844662,1589107.0,0.013389999978244305,0.002589999930933118,0.001769999973475933,-0.06499999761581421
6906.612208616877,1589108.0,0.02281999960541725,0.004129999782890081,0.0022299999836832285,-0.06646999716758728
6906.6132083890925,1589109.0,0.029109999537467957,0.0030400000978261232,-0.0011399999493733048,-0.06615000218153
6906.614208161308,1589110.0,0.028750000521540642,-0.00018000000272877514,-0.001449999981559813,-0.0611100010573864
6906.6152079335225,1589111.0,0.02606000006198883,0.00031999999191612005,0.001180000021122396,-0.0595100000500679
6906.616207705738,1589112.0,0.019050000235438347,-0.005679999943822622,-0.0017300000181421638,-0.06046999990940094
6906.617207477953,1589113.0,0.008539999835193157,-0.007860000245273113,0.00031999999191612005,-0.06294000148773193
6906.618207250169,1589114.0,-0.0017099999822676182,-0.005770000163465738,-0.001500000013038516,-0.06225999817252159
6906.619207022384,1589115.0,-0.010689999908208847,-0.0034099998883903027,0.0010400000028312206,-0.059369999915361404
6906.6202067946,1589116.0,-0.019950000569224358,-0.006579999811947346,0.0021299999207258224,-0.057819999754428864
6906.621206566814,1589117.0,-0.02425999939441681,-0.002950000111013651,-0.000859999970998615,-0.05530000105500221
6906.62220633903,1589118.0,-0.023360000923275948,0.00031999999191612005,-0.0022299999836832285,-0.05282999947667122
6906.623206111245,1589119.0,-0.018640000373125076,0.005270000081509352,-0.004040000028908253,-0.05240999907255173
6906.6242058834605,1589120.0,-0.013340000063180923,0.004040000028908253,0.000910000002477318,-0.0531499981880188
6906.625205655676,1589121.0,-0.007550000213086605,0.006130000110715628,-0.002360000042244792,-0.0546099990606308
6906.62620542789,1589122.0,-0.003010000102221966,0.006130000110715628,-0.005489999894052744,-0.05268999934196472
6906.627205200106,1589123.0,-0.00107999995816499,0.003449999960139394,0.0014100000262260437,-0.048020001500844955
6906.628204972321,1589124.0,0.0002699999895412475,0.004410000052303076,-0.002589999930933118,-0.04874999821186066
6906.629204744537,1589125.0,0.003010000102221966,0.00031999999191612005,0.0,-0.05071999877691269
6906.630204516752,1589126.0,0.005659999791532755,0.0021299999207258224,0.0011399999493733048,-0.049300000071525574
6906.631204288968,1589127.0,0.00800000037997961,0.006039999891072512,9.000000136438757e-05,-0.04390000179409981
6906.632204061182,1589128.0,0.01095999963581562,0.010490000247955322,0.00031999999191612005,-0.04526999965310097
6906.633203833398,1589129.0,0.013340000063180923,0.007579999975860119,0.00031999999191612005,-0.04778999835252762
6906.634203605613,1589130.0,0.011859999969601631,0.003860000055283308,0.0013599999947473407,-0.04253000020980835
6906.6352033778285,1589131.0,0.007410000078380108,-0.0009500000160187483,-0.002319999970495701,-0.04019000008702278
6906.636203150043,1589132.0,-0.0006300000241026282,-0.0044999998062849045,-0.0027699999045580626,-0.041200000792741776
6906.637202922258,1589133.0,-0.00800000037997961,-0.0063599999994039536,-0.004410000052303076,-0.04362000152468681
6906.638202694474,1589134.0,-0.0147299999371171,-0.006579999811947346,0.00031999999191612005,-0.042160000652074814
6906.639202466689,1589135.0,-0.01931999996304512,-0.0062699997797608376,-0.0015399999683722854,-0.03739999979734421
6906.640202238905,1589136.0,-0.02281999960541725,-0.0034099998883903027,-0.0024500000290572643,-0.03505999967455864
6906.64120201112,1589137.0,-0.022059999406337738,0.00031999999191612005,-0.0014100000262260437,-0.035750001668930054
6906.642201783336,1589138.0,-0.018330000340938568,0.001180000021122396,-0.0013200000394135714,-0.03570999950170517
6906.64320155555,1589139.0,-0.01508999988436699,0.00031999999191612005,0.001180000021122396,-0.03717000037431717
6906.644201327766,1589140.0,-0.011950000189244747,0.004129999782890081,-0.002409999957308173,-0.03748999908566475
6906.645201099981,1589141.0,-0.009569999761879444,0.004900000058114529,-0.0027699999045580626,-0.03296000137925148
6906.6462008721965,1589142.0,-0.008270000107586384,0.003949999809265137,-0.00044999999227002263,-0.03139999881386757
6906.647200644411,1589143.0,-0.008220000192523003,-0.0011399999493733048,0.0024999999441206455,-0.02961999922990799
6906.648200416626,1589144.0,-0.007770000025629997,0.0024999999441206455,0.0016799999866634607,-0.02751000039279461
6906.649200188842,1589145.0,-0.00610999995842576,-0.0021800000686198473,0.004679999779909849,-0.02897999994456768
6906.650199961057,1589146.0,-0.0007200000109151006,0.0037700000684708357,0.004310000222176313,-0.030079999938607216
6906.651199733273,1589147.0,0.006200000178068876,0.003539999946951866,0.00031999999191612005,-0.031039999797940254
6906.652199505488,1589148.0,0.011049999855458736,0.004860000219196081,0.0018599999602884054,-0.029570000246167183
6906.653199277703,1589149.0,0.012760000303387642,0.005630000028759241,0.004040000028908253,-0.02792000025510788
6906.654199049918,1589150.0,0.01095999963581562,0.003909999970346689,0.00031999999191612005,-0.021290000528097153
6906.655198822134,1589151.0,0.009209999814629555,-0.00041000000783242285,0.00031999999191612005,-0.021290000528097153
6906.656198594349,1589152.0,0.0018400000408291817,-0.0051299999468028545,0.0008200000156648457,-0.022019999101758003
6906.657198366564,1589153.0,-0.011590000241994858,-0.004040000028908253,0.003909999970346689,-0.024080000817775726
6906.658198138779,1589154.0,-0.025520000606775284,-0.007449999917298555,9.000000136438757e-05,-0.02370999939739704
6906.659197910994,1589155.0,-0.036479998379945755,-0.003539999946951866,-0.0030400000978261232,-0.023159999400377274
6906.66019768321,1589156.0,-0.04097000136971474,-0.007079999893903732,-0.004809999838471413,-0.021560000255703926
6906.661197455425,1589157.0,-0.03782999888062477,-0.004410000052303076,-0.003539999946951866,-0.015289999544620514
6906.662197227641,1589158.0,-0.034460000693798065,4.999999873689376e-05,-0.0022299999836832285,-0.014189999550580978
6906.663196999856,1589159.0,-0.03162999823689461,0.0024999999441206455,-0.002360000042244792,-0.013410000130534172
6906.664196772071,1589160.0,-0.028710000216960907,0.00031999999191612005,-0.0033599999733269215,-0.014189999550580978
6906.665196544286,1589161.0,-0.024170000106096268,0.004769999999552965,-0.002319999970495701,-0.01616000011563301
6906.666196316502,1589162.0,-0.020659999921917915,0.0019099999917671084,-0.001230000052601099,-0.016300000250339508
6906.667196088717,1589163.0,-0.017969999462366104,0.0030900000128895044,0.00018000000272877514,-0.015060000121593475
6906.668195860932,1589164.0,-0.015449999831616879,0.0031300000846385956,0.00031999999191612005,-0.008329999633133411
6906.669195633147,1589165.0,-0.01221999991685152,0.0020000000949949026,0.002319999970495701,-0.008150000125169754
6906.670195405362,1589166.0,-0.007189999800175428,0.005770000163465738,0.005270000081509352,-0.00892999954521656
6906.671195177578,1589167.0,-0.0016199999954551458,0.005400000140070915,0.003220000071451068,-0.011719999834895134
6906.672194949793,1589168.0,0.003229999914765358,0.006490000057965517,0.004040000028908253,-0.008559999987483025
6906.673194722009,1589169.0,0.005929999984800816,0.006490000057965517,-0.0008200000156648457,-0.003980000037699938
6906.674194494224,1589170.0,0.005210000090301037,-0.0012700000079348683,0.0002699999895412475,-0.003019999945536256
6906.675194266439,1589171.0,0.00215999991632998,-0.004129999782890081,0.00031999999191612005,-0.0026100000832229853
6906.676194038654,1589172.0,-0.0052999998442828655,-0.001180000021122396,-0.0015399999683722854,-0.006320000160485506
6906.6771938108695,1589173.0,-0.016529999673366547,-0.009309999644756317,-0.0013599999947473407,-0.006639999803155661
6906.678193583085,1589174.0,-0.026100000366568565,-0.0045900000259280205,-0.0013200000394135714,-0.0016899999463930726
6906.6791933553,1589175.0,-0.03238999843597412,-0.007309999782592058,-0.004769999999552965,0.0019199999514967203
6906.680193127515,1589176.0,-0.038270000368356705,-0.006219999864697456,-0.004129999782890081,0.0023799999617040157
6906.68119289973,1589177.0,-0.04097000136971474,-0.002950000111013651,-0.004860000219196081,0.0030700000934302807
6906.682192671946,1589178.0,-0.04142000153660774,0.002360000042244792,0.001769999973475933,0.0035200000274926424
6906.683192444161,1589179.0,-0.038989998400211334,0.0027699999045580626,0.0030400000978261232,0.0032500000670552254
6906.684192216377,1589180.0,-0.031449999660253525,0.0030400000978261232,0.00031999999191612005,0.00031999999191612005
6906.685191988592,1589181.0,-0.024620000272989273,0.00031999999191612005,0.0009500000160187483,0.0070500001311302185
6906.686191760807,1589182.0,-0.020080000162124634,0.00031999999191612005,0.002409999957308173,0.006680000107735395
6906.687191533022,1589183.0,-0.01779000088572502,0.005539999809116125,-0.002589999930933118,0.003659999929368496
6906.6881913052375,1589184.0,-0.016130000352859497,0.001500000013038516,-0.0031300000846385956,0.009840000420808792
6906.689191077453,1589185.0,-0.014019999653100967,-0.0017300000181421638,-0.0006399999838322401,0.005450000055134296
6906.690190849668,1589186.0,-0.010379999876022339,0.004129999782890081,-0.002409999957308173,0.012679999694228172
6906.691190621883,1589187.0,-0.005210000090301037,0.006769999861717224,-0.002319999970495701,0.007639999967068434
6906.692190394098,1589188.0,-0.0009899999713525176,0.006130000110715628,0.00014000000373926014,0.013690000399947166
6906.693190166314,1589189.0,0.00018000000272877514,0.008539999835193157,9.000000136438757e-05,0.00965999998152256
6906.694189938529,1589190.0,-0.0018400000408291817,0.00031999999191612005,0.003590000094845891,0.011859999969601631
6906.695189710745,1589191.0,-0.00547999981790781,-0.0016299999551847577,-0.002090000081807375,0.015519999898970127
6906.69618948296,1589192.0,-0.011409999802708626,-0.00803999975323677,0.000859999970998615,0.011540000326931477
6906.697189255175,1589193.0,-0.01761000044643879,-0.004410000052303076,-0.0017300000181421638,0.018540000542998314
6906.69818902739,1589194.0,-0.023809999227523804,-0.008990000002086163,0.00031999999191612005,0.013500000350177288
6906.6991887996055,1589195.0,-0.02676999941468239,-0.0034099998883903027,0.0010400000028312206,0.02119000069797039
6906.700188571821,1589196.0,-0.0257399994879961,-0.004769999999552965,0.0009500000160187483,0.015790000557899475
6906.7011883440355,1589197.0,-0.022099999710917473,-0.004900000058114529,0.004679999779909849,0.02266000024974346
6906.702188116251,1589198.0,-0.0175199992954731,-0.00014000000373926014,0.004269999917596579,0.018449999392032623
6906.703187888466,1589199.0,-0.018060000613331795,-0.0011399999493733048,0.0015899999998509884,0.019269999116659164
6906.704187660682,1589200.0,-0.02151999995112419,0.004540000110864639,0.0015899999998509884,0.02466999925673008
6906.705187432897,1589201.0,-0.025520000606775284,0.005539999809116125,0.0013200000394135714,0.0203699991106987
6906.706187205113,1589202.0,-0.02515999972820282,0.001230000052601099,0.0010400000028312206,0.02769000083208084
6906.707186977328,1589203.0,-0.023809999227523804,0.004310000222176313,0.003590000094845891,0.026319999247789383
6906.708186749543,1589204.0,-0.02111000008881092,0.0024999999441206455,0.003220000071451068,0.02339000068604946
6906.709186521758,1589205.0,-0.01882000081241131,-0.0011399999493733048,0.0031300000846385956,0.03012000024318695
6906.7101862939735,1589206.0,-0.015720000490546227,0.005630000028759241,0.0002300000051036477,0.02443999983370304
6906.711186066189,1589207.0,-0.011409999802708626,0.006039999891072512,0.0015899999998509884,0.031950000673532486
6906.7121858384035,1589208.0,-0.008089999668300152,0.004310000222176313,-0.0034099998883903027,0.027049999684095383
6906.713185610619,1589209.0,-0.0052999998442828655,0.003719999920576811,-0.001769999973475933,0.03446999937295914
6906.714185382834,1589210.0,-0.005570000037550926,0.0027699999045580626,-0.004629999864846468,0.028750000521540642
6906.71518515505,1589211.0,-0.01051000040024519,-0.0033599999733269215,-0.0010000000474974513,0.03209000080823898
6906.716184927265,1589212.0,-0.022280000150203705,-0.0036800000816583633,-0.0022700000554323196,0.03483999893069267
6906.717184699481,1589213.0,-0.03482000157237053,-0.004089999943971634,-0.0016799999866634607,0.031220000237226486
6906.718184471695,1589214.0,-0.042319998145103455,-0.011309999972581863,-0.002630000002682209,0.037310000509023666
6906.719184243911,1589215.0,-0.04631999880075455,-0.005539999809116125,-0.005489999894052744,0.039639998227357864
6906.720184016126,1589216.0,-0.04977000132203102,-0.0007699999841861427,-0.0010000000474974513,0.03474000096321106
6906.7211837883415,1589217.0,-0.054269999265670776,-0.004679999779909849,-0.0016799999866634607,0.03455999866127968
6906.722183560557,1589218.0,-0.05655999854207039,-4.999999873689376e-05,-0.0002300000051036477,0.043529998511075974
6906.723183332771,1589219.0,-0.0545400008559227,0.003220000071451068,0.0014100000262260437,0.038359999656677246
6906.724183104987,1589220.0,-0.0514799989759922,-0.0007699999841861427,-0.002090000081807375,0.03996000066399574
6906.725182877202,1589221.0,-0.04887999966740608,0.00535999983549118,0.0008200000156648457,0.04343999922275543
6906.726182649418,1589222.0,-0.044520001858472824,-0.0009500000160187483,-0.0051299999468028545,0.04134000092744827
6906.727182421633,1589223.0,-0.039799999445676804,0.00535999983549118,-0.0015399999683722854,0.04610000178217888
6906.728182193849,1589224.0,-0.037060000002384186,0.0021299999207258224,-0.0012700000079348683,0.04134000092744827
6906.729181966063,1589225.0,-0.03342000022530556,-0.0013200000394135714,0.00031999999191612005,0.048659998923540115
6906.730181738279,1589226.0,-0.027130000293254852,0.005770000163465738,-0.00044999999227002263,0.04349000006914139
6906.731181510494,1589227.0,-0.020980000495910645,0.006130000110715628,-0.0045900000259280205,0.047200001776218414
6906.7321812827095,1589228.0,-0.016620000824332237,0.007579999975860119,-0.0016799999866634607,0.05177000164985657
6906.733181054925,1589229.0,-0.015990000218153,0.00494999997317791,-0.004040000028908253,0.046140000224113464
6906.734180827139,1589230.0,-0.019500000402331352,0.0027699999045580626,-0.002950000111013651,0.047200001776218414
6906.735180599355,1589231.0,-0.02363000065088272,4.999999873689376e-05,-0.00494999997317791,0.049710001796483994
6906.73618037157,1589232.0,-0.029559999704360962,-0.002589999930933118,-0.0007699999841861427,0.05378999933600426
6906.737180143786,1589233.0,-0.03602999821305275,-0.007720000110566616,-0.0019099999917671084,0.05671999976038933
6906.738179916001,1589234.0,-0.0399399995803833,-0.010080000385642052,0.0016299999551847577,0.057679999619722366
6906.739179688217,1589235.0,-0.04213999956846237,-0.002589999930933118,-0.004040000028908253,0.05626000091433525
6906.740179460431,1589236.0,-0.04267999902367592,-0.004129999782890081,-0.0037700000684708357,0.05167999863624573
6906.741179232647,1589237.0,-0.03943999856710434,-0.0013200000394135714,0.00031999999191612005,0.06064999848604202
6906.742179004862,1589238.0,-0.03612000122666359,-0.0007300000288523734,0.003220000071451068,0.058729998767375946
6906.743178777077,1589239.0,-0.03799999877810478,0.0028200000524520874,0.0018599999602884054,0.055479999631643295
6906.744178549293,1589240.0,-0.03863000124692917,0.0002300000051036477,0.00031999999191612005,0.06092999875545502
6906.745178321507,1589241.0,-0.03809000179171562,0.004449999891221523,-0.002090000081807375,0.06330999732017517
6906.746178093723,1589242.0,-0.03953000158071518,0.0011399999493733048,0.00031999999191612005,0.057679999619722366
6906.747177865938,1589243.0,-0.04145999997854233,0.002090000081807375,-0.0022700000554323196,0.05776999890804291
6906.748177638154,1589244.0,-0.043129999190568924,0.000859999970998615,0.0007300000288523734,0.06618999689817429
6906.749177410369,1589245.0,-0.043219998478889465,0.002319999970495701,-0.0006399999838322401,0.06633000075817108
6906.750177182585,1589246.0,-0.04042999818921089,0.007540000136941671,0.002589999930933118,0.06139000132679939
6906.751176954799,1589247.0,-0.03809000179171562,0.0025400000158697367,0.0016799999866634607,0.06225999817252159
6906.752176727015,1589248.0,-0.03660999983549118,0.007809999864548445,-0.001230000052601099,0.06765999644994736
6906.75317649923,1589249.0,-0.03482000157237053,0.0033199999015778303,-0.0007699999841861427,0.06989999860525131
6906.754176271445,1589250.0,-0.032340001314878464,0.00267999991774559,-0.0036299999337643385,0.06943999975919724
6906.755176043661,1589251.0,-0.03162999823689461,-0.001500000013038516,-0.003220000071451068,0.06532000005245209
6906.756175815875,1589252.0,-0.033959999680519104,-0.0051299999468028545,-0.0051299999468028545,0.07429999858140945
6906.757175588091,1589253.0,-0.03799999877810478,-0.005679999943822622,-0.004769999999552965,0.06719999760389328
6906.758175360306,1589254.0,-0.040070001035928726,-0.008129999972879887,-0.0008200000156648457,0.07502999901771545
6906.759175132522,1589255.0,-0.03953000158071518,-0.005950000137090683,0.00031999999191612005,0.06870999932289124
6906.760174904737,1589256.0,-0.03782999888062477,-0.007579999975860119,0.0024999999441206455,0.07735999673604965
6906.761174676953,1589257.0,-0.034860000014305115,-0.0036800000816583633,0.0010400000028312206,0.07062999904155731
6906.762174449167,1589258.0,-0.03162999823689461,0.0015899999998509884,0.00031999999191612005,0.07919000089168549
6906.7631742213825,1589259.0,-0.028750000521540642,0.0031799999997019768,0.0016799999866634607,0.07282999902963638
6906.764173993598,1589260.0,-0.029020000249147415,-0.00041000000783242285,-0.005489999894052744,0.07759000360965729
6906.765173765813,1589261.0,-0.030549999326467514,0.0027699999045580626,-0.0031300000846385956,0.07874000072479248
6906.766173538028,1589262.0,-0.03117999993264675,0.0018599999602884054,0.004220000002533197,0.07717999815940857
6906.767173310243,1589263.0,-0.032519999891519547,0.004449999891221523,0.00031999999191612005,0.08056999742984772
6906.768173082459,1589264.0,-0.033959999680519104,0.006490000057965517,-0.0013200000394135714,0.08382000029087067
6906.769172854674,1589265.0,-0.034860000014305115,-0.0002699999895412475,-0.004410000052303076,0.07777000218629837
6906.77017262689,1589266.0,-0.03347000107169151,0.0052200001664459705,0.00031999999191612005,0.08629000186920166
6906.771172399105,1589267.0,-0.03181000053882599,0.0031300000846385956,0.003220000071451068,0.07942000031471252
6906.772172171321,1589268.0,-0.03311000019311905,0.0052200001664459705,0.0019099999917671084,0.08692999929189682
6906.773171943535,1589269.0,-0.03782999888062477,0.0010400000028312206,-0.002360000042244792,0.08179999887943268
6906.7741717157505,1589270.0,-0.04253999888896942,0.003949999809265137,-4.999999873689376e-05,0.08857999742031097
6906.775171487966,1589271.0,-0.0451899990439415,-0.001230000052601099,-0.0031799999997019768,0.08252999931573868
6906.776171260181,1589272.0,-0.049059998244047165,-0.0037700000684708357,-0.004040000028908253,0.09150999784469604
6906.777171032396,1589273.0,-0.0530100017786026,-0.005489999894052744,-0.001500000013038516,0.08449999988079071
6906.778170804611,1589274.0,-0.05355000123381615,-0.0035000001080334187,0.004809999838471413,0.09250999987125397
6906.779170576827,1589275.0,-0.050220001488924026,-0.006630000192672014,0.0011399999493733048,0.08591999858617783
6906.780170349042,1589276.0,-0.04789000004529953,-0.004900000058114529,-9.000000136438757e-05,0.09407000243663788
6906.781170121258,1589277.0,-0.04438000172376633,-0.0059899999760091305,-0.002409999957308173,0.08821000158786774
6906.782169893473,1589278.0,-0.040070001035928726,0.002409999957308173,-0.0022299999836832285,0.0953499972820282
6906.783169665688,1589279.0,-0.033959999680519104,0.0018599999602884054,-0.0024500000290572643,0.08876000344753265
6906.784169437903,1589280.0,-0.028030000627040863,0.0024999999441206455,-0.001180000021122396,0.096220001578331
6906.7851692101185,1589281.0,-0.023579999804496765,-0.0002300000051036477,0.003220000071451068,0.09104999899864197
6906.786168982334,1589282.0,-0.01940999925136566,0.0045900000259280205,0.002859999891370535,0.09837000072002411
6906.787168754549,1589283.0,-0.017160000279545784,0.0013200000394135714,0.0015899999998509884,0.09261000156402588
6906.788168526764,1589284.0,-0.014870000071823597,0.003590000094845891,0.003449999960139394,0.10120999813079834
6906.789168298979,1589285.0,-0.013659999705851078,0.0002699999895412475,0.0016299999551847577,0.0938899964094162
6906.790168071195,1589286.0,-0.010420000180602074,0.005630000028759241,-0.00041000000783242285,0.10189999639987946
6906.79116784341,1589287.0,-0.005799999926239252,0.004900000058114529,-0.0037700000684708357,0.09562999755144119
6906.792167615626,1589288.0,-0.0007200000109151006,0.007770000025629997,-0.004310000222176313,0.10189999639987946
6906.793167387841,1589289.0,0.00215999991632998,0.00203999993391335,-0.004410000052303076,0.09685999900102615
6906.794167160056,1589290.0,-0.0023399998899549246,0.0010400000028312206,0.001180000021122396,0.10309000313282013
6906.795166932271,1589291.0,-0.011140000075101852,0.003909999970346689,9.000000136438757e-05,0.09845999628305435
6906.7961667044865,1589292.0,-0.021199999377131462,-0.0007699999841861427,0.00031999999191612005,0.10423000156879425
6906.797166476702,1589293.0,-0.02947000041604042,-0.006630000192672014,0.0014100000262260437,0.10524000227451324
6906.798166248917,1589294.0,-0.037379998713731766,-0.006680000107735395,-0.0031799999997019768,0.10625000298023224
6906.799166021132,1589295.0,-0.04042999818921089,-0.005950000137090683,-0.005270000081509352,0.10213000327348709
6906.800165793347,1589296.0,-0.039799999445676804,-0.005900000222027302,-0.0022299999836832285,0.10340999811887741
6906.801165565563,1589297.0,-0.03584999963641167,-0.0022700000554323196,0.00031999999191612005,0.10999999940395355
6906.802165337778,1589298.0,-0.030729999765753746,-0.0016799999866634607,-0.002630000002682209,0.1035500019788742
6906.803165109994,1589299.0,-0.025699999183416367,0.00031999999191612005,-0.004769999999552965,0.1092199981212616
6906.804164882209,1589300.0,-0.020390000194311142,0.004220000002533197,-0.003539999946951866,0.11040999740362167
6906.805164654424,1589301.0,-0.01607999950647354,0.0016799999866634607,-0.000859999970998615,0.10972999781370163
6906.806164426639,1589302.0,-0.011859999969601631,0.00031999999191612005,0.000859999970998615,0.1067499965429306
6906.8071641988545,1589303.0,-0.010870000347495079,0.0014100000262260437,0.003220000071451068,0.11490000039339066
6906.80816397107,1589304.0,-0.009429999627172947,0.003000000026077032,-0.003449999960139394,0.10779999941587448
6906.809163743285,1589305.0,-0.009970000013709068,0.005950000137090683,-0.0009500000160187483,0.11682000011205673
6906.8101635155,1589306.0,-0.008980000391602516,0.002589999930933118,0.003220000071451068,0.11068999767303467
6906.811163287715,1589307.0,-0.005929999984800816,0.00494999997317791,0.00031999999191612005,0.11695999652147293
6906.812163059931,1589308.0,-0.0023799999617040157,0.002589999930933118,-0.0014100000262260437,0.1116499975323677
6906.813162832146,1589309.0,0.0007200000109151006,0.006769999861717224,-0.0036800000816583633,0.11530999839305878
6906.814162604362,1589310.0,0.0013899999903514981,0.00031999999191612005,-0.0022700000554323196,0.12015999853610992
6906.815162376577,1589311.0,-0.000539999979082495,0.00031999999191612005,-0.0002300000051036477,0.11806000024080276
6906.816162148792,1589312.0,-0.005840000230818987,-0.00839999970048666,0.004679999779909849,0.11525999754667282
6906.817161921007,1589313.0,-0.011950000189244747,-0.00839999970048666,-0.001769999973475933,0.12177000194787979
6906.8181616932225,1589314.0,-0.015629999339580536,-0.00839999970048666,-0.0006399999838322401,0.12099000066518784
6906.819161465438,1589315.0,-0.016130000352859497,-0.00267999991774559,-0.001500000013038516,0.11654999852180481
6906.820161237653,1589316.0,-0.017069999128580093,-0.007720000110566616,-0.004040000028908253,0.12506000697612762
6906.821161009868,1589317.0,-0.018149999901652336,-0.00031999999191612005,-0.0029100000392645597,0.12372999638319016
6906.822160782083,1589318.0,-0.018689999356865883,-0.002589999930933118,-0.0027699999045580626,0.11750999838113785
6906.823160554299,1589319.0,-0.017340000718832016,0.004269999917596579,0.0007300000288523734,0.12043999880552292
6906.824160326514,1589320.0,-0.013299999758601189,0.0031799999997019768,0.0024999999441206455,0.12752999365329742
6906.82516009873,1589321.0,-0.006560000125318766,0.005539999809116125,0.0013599999947473407,0.1253799945116043
6906.826159870945,1589322.0,-0.0016199999954551458,0.0025400000158697367,0.001180000021122396,0.12154000252485275
6906.82715964316,1589323.0,0.0012600000482052565,0.001769999973475933,-0.0031300000846385956,0.12991000711917877
6906.828159415375,1589324.0,0.003280000062659383,-0.003539999946951866,-0.0007699999841861427,0.12693999707698822
6906.82915918759,1589325.0,0.004040000028908253,0.0015899999998509884,0.0022299999836832285,0.12400999665260315
6906.830158959806,1589326.0,0.004269999917596579,0.0022299999836832285,0.002859999891370535,0.13142000138759613
6906.83115873202,1589327.0,0.002959999954327941,0.00686000008136034,-0.0011399999493733048,0.1301400065422058
6906.832158504236,1589328.0,-0.0009899999713525176,0.006130000110715628,-0.0017300000181421638,0.12483000010251999
6906.833158276451,1589329.0,-0.005840000230818987,0.001449999981559813,-0.0006399999838322401,0.12560999393463135
6906.834158048667,1589330.0,-0.008449999615550041,0.00267999991774559,-0.003269999986514449,0.13032999634742737
6906.835157820882,1589331.0,-0.01092000026255846,-0.00041000000783242285,0.0009500000160187483,0.13508999347686768
6906.836157593098,1589332.0,-0.014999999664723873,-0.00749000022187829,-0.002090000081807375,0.13399000465869904
6906.837157365313,1589333.0,-0.019680000841617584,-0.004000000189989805,0.0015899999998509884,0.1271200031042099
6906.838157137528,1589334.0,-0.021700000390410423,-0.00913000013679266,-0.002589999930933118,0.1321599930524826
6906.839156909743,1589335.0,-0.02133999951183796,-0.007309999782592058,0.00031999999191612005,0.13654999434947968
6906.840156681958,1589336.0,-0.021560000255703926,-0.007040000054985285,-0.0027699999045580626,0.1356399953365326
6906.841156454174,1589337.0,-0.019050000235438347,-0.000539999979082495,-0.002319999970495701,0.1306000053882599
6906.842156226388,1589338.0,-0.014379999600350857,0.0022299999836832285,-0.0010000000474974513,0.1343500018119812
6906.843155998604,1589339.0,-0.009340000338852406,0.005679999943822622,0.0010400000028312206,0.1381099969148636
6906.844155770819,1589340.0,-0.003860000055283308,0.000859999970998615,0.0024999999441206455,0.13152000308036804
6906.845155543035,1589341.0,0.0,0.006719999946653843,0.002090000081807375,0.133760005235672
6906.84615531525,1589342.0,0.001979999942705035,0.004679999779909849,0.0015399999683722854,0.14090000092983246
6906.847155087466,1589343.0,0.0012600000482052565,0.004220000002533197,-0.004129999782890081,0.13379999995231628
6906.84815485968,1589344.0,-0.0014400000218302011,-0.0016799999866634607,-0.0010000000474974513,0.14094999432563782
6906.8491546318955,1589345.0,-0.0026100000832229853,0.003220000071451068,0.002360000042244792,0.14194999635219574
6906.850154404111,1589346.0,-0.0012100000167265534,0.003220000071451068,0.003220000071451068,0.13576999306678772
6906.851154176326,1589347.0,-0.0003600000054575503,0.00494999997317791,0.001769999973475933,0.14094999432563782
6906.852153948542,1589348.0,-0.003100000089034438,0.006039999891072512,0.0016799999866634607,0.14438000321388245
6906.853153720756,1589349.0,-0.009119999594986439,0.0009500000160187483,-0.003590000094845891,0.13819999992847443
6906.854153492972,1589350.0,-0.015270000323653221,0.003949999809265137,-0.004089999943971634,0.1438799947500229
6906.855153265187,1589351.0,-0.01860000006854534,4.999999873689376e-05,-0.003539999946951866,0.14542999863624573
6906.856153037403,1589352.0,-0.020840000361204147,-0.005489999894052744,-0.000910000002477318,0.13976000249385834
6906.857152809618,1589353.0,-0.024170000106096268,-0.0062699997797608376,0.00031999999191612005,0.14094999432563782
6906.858152581834,1589354.0,-0.027939999476075172,-0.00839999970048666,0.000910000002477318,0.1490900069475174
6906.859152354048,1589355.0,-0.029829999431967735,-0.002950000111013651,0.001769999973475933,0.1467999964952469
6906.8601521262635,1589356.0,-0.03167000040411949,-0.00267999991774559,0.0021299999207258224,0.1417199969291687
6906.861151898479,1589357.0,-0.031039999797940254,-0.002950000111013651,-0.0020000000949949026,0.1467999964952469
6906.862151670694,1589358.0,-0.027580000460147858,-0.0014100000262260437,-0.003449999960139394,0.14972999691963196
6906.86315144291,1589359.0,-0.024210000410676003,0.00031999999191612005,0.00031999999191612005,0.14337000250816345
6906.864151215124,1589360.0,-0.023719999939203262,0.0035000001080334187,0.0030400000978261232,0.15157000720500946
6906.86515098734,1589361.0,-0.02305000089108944,0.005770000163465738,-0.0020000000949949026,0.14639000594615936
6906.866150759555,1589362.0,-0.02191999927163124,0.0014100000262260437,-0.0010000000474974513,0.1438799947500229
6906.867150531771,1589363.0,-0.019360000267624855,0.00031999999191612005,0.00031999999191612005,0.1525299996137619
6906.868150303986,1589364.0,-0.017249999567866325,-0.0015399999683722854,-0.004900000058114529,0.15523000061511993
6906.869150076202,1589365.0,-0.014820000156760216,-0.0034099998883903027,-0.0016799999866634607,0.14740000665187836
6906.870149848416,1589366.0,-0.008630000054836273,0.0045900000259280205,-0.002090000081807375,0.14754000306129456
6906.8711496206315,1589367.0,-0.0023399998899549246,0.006680000107735395,0.00031999999191612005,0.15613999962806702
6906.872149392847,1589368.0,0.0023799999617040157,0.00913000013679266,0.000910000002477318,0.14963999390602112
6906.873149165062,1589369.0,0.004360000137239695,0.003590000094845891,0.0031799999997019768,0.14854000508785248
6906.874148937278,1589370.0,0.0017099999822676182,0.0037700000684708357,-0.004769999999552965,0.15851999819278717
6906.875148709492,1589371.0,-0.002199999988079071,-0.0008200000156648457,-0.004040000028908253,0.15128999948501587
6906.876148481708,1589372.0,-0.006829999852925539,-0.00686000008136034,-0.0033199999015778303,0.15633000433444977
6906.877148253923,1589373.0,-0.011409999802708626,-0.007540000136941671,-0.0010900000343099236,0.1587499976158142
6906.878148026139,1589374.0,-0.01689000055193901,-0.004809999838471413,-0.0033199999015778303,0.15070000290870667
6906.879147798354,1589375.0,-0.020260000601410866,-0.001180000021122396,0.00535999983549118,0.16089999675750732
6906.8801475705695,1589376.0,-0.018640000373125076,-0.00494999997317791,-0.00494999997317791,0.15408000349998474
6906.881147342784,1589377.0,-0.017389999702572823,-0.0016799999866634607,-0.0022299999836832285,0.15851999819278717
6906.8821471149995,1589378.0,-0.016939999535679817,0.00031999999191612005,-0.000539999979082495,0.16144999861717224
6906.883146887215,1589379.0,-0.015540000051259995,0.0024500000290572643,0.0013599999947473407,0.15331000089645386
6906.88414665943,1589380.0,-0.017069999128580093,-9.000000136438757e-05,0.001230000052601099,0.1567399948835373
6906.885146431646,1589381.0,-0.023360000923275948,0.003860000055283308,0.0002699999895412475,0.1636500060558319
6906.88614620386,1589382.0,-0.030820000916719437,-0.0016299999551847577,-0.002090000081807375,0.1555899977684021
6906.887145976076,1589383.0,-0.03440999984741211,0.0022700000554323196,-0.003539999946951866,0.15926000475883484
6906.888145748291,1589384.0,-0.034460000693798065,-0.0022299999836832285,0.0010400000028312206,0.16594000160694122
6906.889145520507,1589385.0,-0.035760000348091125,0.002319999970495701,0.003220000071451068,0.1639299988746643
6906.890145292722,1589386.0,-0.034279998391866684,0.0031300000846385956,0.002630000002682209,0.15806999802589417
6906.8911450649375,1589387.0,-0.032930001616477966,0.008449999615550041,-0.00014000000373926014,0.16126999258995056
6906.892144837152,1589388.0,-0.03342000022530556,0.006949999835342169,0.0002300000051036477,0.1679999977350235
6906.8931446093675,1589389.0,-0.0350399985909462,0.005400000140070915,-0.0007300000288523734,0.16620999574661255
6906.894144381583,1589390.0,-0.037689998745918274,0.0015399999683722854,-0.0021299999207258224,0.16158999502658844
6906.895144153798,1589391.0,-0.040070001035928726,-0.0018599999602884054,-0.001500000013038516,0.16818000376224518
6906.896143926013,1589392.0,-0.04402000084519386,-0.0034099998883903027,0.002360000042244792,0.16910000145435333
6906.897143698228,1589393.0,-0.04617999866604805,-0.00880999956279993,-0.0007699999841861427,0.16057999432086945
6906.898143470444,1589394.0,-0.04600000008940697,-0.005489999894052744,0.00031999999191612005,0.16512000560760498
6906.899143242659,1589395.0,-0.04340000078082085,-0.00875999964773655,-0.0033599999733269215,0.1720699965953827
6906.900143014875,1589396.0,-0.04106000065803528,-0.0051299999468028545,-0.002630000002682209,0.16359999775886536
6906.90114278709,1589397.0,-0.036570001393556595,-0.002859999891370535,0.003949999809265137,0.17023999989032745
6906.9021425593055,1589398.0,-0.031939998269081116,0.00031999999191612005,0.0030900000128895044,0.17143000662326813
6906.90314233152,1589399.0,-0.025520000606775284,0.003909999970346689,0.0007699999841861427,0.16730999946594238
6906.9041421037355,1589400.0,-0.018729999661445618,0.003220000071451068,-0.00418000016361475,0.17505000531673431
6906.905141875951,1589401.0,-0.013700000010430813,0.003909999970346689,-0.0019099999917671084,0.1720699965953827
6906.906141648166,1589402.0,-0.009879999794065952,0.0024999999441206455,0.0030900000128895044,0.16841000318527222
6906.907141420381,1589403.0,-0.008089999668300152,0.0029100000392645597,0.00031999999191612005,0.1775200068950653
6906.908141192596,1589404.0,-0.006779999937862158,0.003449999960139394,-0.001500000013038516,0.17252999544143677
6906.909140964812,1589405.0,-0.005210000090301037,0.0030400000978261232,-0.005179999861866236,0.1711599975824356
6906.910140737027,1589406.0,-0.0027000000700354576,0.006810000166296959,-0.0017300000181421638,0.17317000031471252
6906.911140509243,1589407.0,-0.0010300000431016088,0.006089999806135893,-0.0028200000524520874,0.1793999969959259
6906.912140281458,1589408.0,-0.0004900000058114529,0.004679999779909849,0.00031999999191612005,0.176829993724823
6906.913140053673,1589409.0,-0.002520000096410513,0.00014000000373926014,0.00018000000272877514,0.17023999989032745
6906.914139825888,1589410.0,-0.007819999940693378,0.004629999864846468,0.0027699999045580626,0.17418000102043152
6906.915139598103,1589411.0,-0.014109999872744083,-0.0009500000160187483,0.00031999999191612005,0.18050000071525574
6906.916139370319,1589412.0,-0.021560000255703926,-0.0011399999493733048,9.000000136438757e-05,0.17688000202178955
6906.917139142534,1589413.0,-0.02857000008225441,-0.0062699997797608376,-0.0014100000262260437,0.17467999458312988
6906.918138914749,1589414.0,-0.033959999680519104,-0.010219999589025974,-0.0022299999836832285,0.1783899962902069
6906.919138686964,1589415.0,-0.034860000014305115,-0.003809999907389283,-0.001769999973475933,0.1808599978685379
6906.92013845918,1589416.0,-0.034049998968839645,-0.00044999999227002263,-0.002950000111013651,0.1826000064611435
6906.921138231395,1589417.0,-0.03238999843597412,-0.0003600000054575503,-4.999999873689376e-05,0.18108999729156494
6906.922138003611,1589418.0,-0.02928999997675419,0.00031999999191612005,-0.001500000013038516,0.1808599978685379
6906.923137775826,1589419.0,-0.02507000043988228,0.0012700000079348683,0.004310000222176313,0.17412999272346497
6906.924137548041,1589420.0,-0.022280000150203705,0.003220000071451068,0.0002300000051036477,0.17642000317573547
6906.925137320256,1589421.0,-0.021700000390410423,0.001769999973475933,-0.00031999999191612005,0.178849995136261
6906.926137092471,1589422.0,-0.020479999482631683,0.00031999999191612005,-0.002090000081807375,0.18599000573158264
6906.927136864687,1589423.0,-0.020080000162124634,0.002859999891370535,-0.005489999894052744,0.18355999886989594
6906.928136636902,1589424.0,-0.01841999962925911,0.0019499999471008778,-0.004040000028908253,0.17560000717639923
6906.929136409117,1589425.0,-0.018239999189972878,0.001769999973475933,-0.0031300000846385956,0.17958000302314758
6906.930136181332,1589426.0,-0.021560000255703926,0.005630000028759241,-0.0037700000684708357,0.1832900047302246
6906.931135953548,1589427.0,-0.02474999986588955,0.007449999917298555,-0.0013599999947473407,0.18782000243663788
6906.932135725763,1589428.0,-0.026499999687075615,0.008129999972879887,-0.0024999999441206455,0.18616999685764313
6906.933135497979,1589429.0,-0.02785000018775463,0.006039999891072512,-0.004999999888241291,0.1848900020122528
6906.934135270194,1589430.0,-0.028750000521540642,-0.0015899999998509884,-0.004769999999552965,0.18538999557495117
6906.935135042409,1589431.0,-0.0301900003105402,-0.0013599999947473407,-0.003909999970346689,0.1785700023174286
6906.936134814624,1589432.0,-0.03037000074982643,-0.004769999999552965,-0.003269999986514449,0.18122999370098114
6906.937134586839,1589433.0,-0.030640000477433205,-0.01030999980866909,-0.005630000028759241,0.18264999985694885
6906.938134359055,1589434.0,-0.029559999704360962,-0.008270000107586384,-0.004410000052303076,0.18782000243663788
6906.93913413127,1589435.0,-0.030460000038146973,-0.005489999894052744,-4.999999873689376e-05,0.18987999856472015
6906.940133903485,1589436.0,-0.030640000477433205,-0.0030400000978261232,-0.0021299999207258224,0.18877999484539032
6906.9411336757,1589437.0,-0.029650000855326653,-9.000000136438757e-05,0.0007300000288523734,0.18700000643730164
6906.942133447916,1589438.0,-0.03117999993264675,0.001769999973475933,0.000910000002477318,0.18105000257492065
6906.943133220131,1589439.0,-0.035670001059770584,0.0044999998062849045,-0.0036800000816583633,0.18392999470233917
6906.944132992347,1589440.0,-0.04470000043511391,0.003590000094845891,-0.002589999930933118,0.18525999784469604
6906.945132764562,1589441.0,-0.05502999946475029,0.00031999999191612005,-0.00571999978274107,0.18622000515460968
6906.9461325367765,1589442.0,-0.06577000021934509,0.00031999999191612005,-0.004269999917596579,0.1890999972820282
6906.947132308992,1589443.0,-0.0759200006723404,0.00031999999191612005,-0.002319999970495701,0.19001999497413635
6906.948132081207,1589444.0,-0.08679000288248062,0.0014100000262260437,-0.0005000000237487257,0.1925400048494339
6906.949131853423,1589445.0,-0.09739000350236893,0.0014100000262260437,-0.002630000002682209,0.19075000286102295
6906.950131625638,1589446.0,-0.10798999667167664,0.0018599999602884054,-0.002409999957308173,0.1832900047302246
6906.951131397853,1589447.0,-0.12250000238418579,0.004040000028908253,-0.002950000111013651,0.18690000474452972
6906.952131170068,1589448.0,-0.1401599943637848,0.0071299998089671135,-0.003719999920576811,0.188510000705719
6906.953130942284,1589449.0,-0.1570499986410141,0.004629999864846468,-0.0036800000816583633,0.19541999697685242
6906.954130714499,1589450.0,-0.1705700010061264,0.003220000071451068,-0.004860000219196081,0.1923999935388565
6906.955130486715,1589451.0,-0.1793300062417984,0.00031999999191612005,-0.0015399999683722854,0.18424999713897705
6906.95613025893,1589452.0,-0.1856199949979782,-0.002859999891370535,0.00418000016361475,0.18929000198841095
6906.9571300311445,1589453.0,-0.19151000678539276,-0.004129999782890081,0.001769999973475933,0.19276000559329987
6906.95812980336,1589454.0,-0.19505000114440918,-0.006399999838322401,0.000910000002477318,0.196150004863739
6906.959129575575,1589455.0,-0.19338999688625336,-0.003909999970346689,0.0020000000949949026,0.19349999725818634
6906.960129347791,1589456.0,-0.18814000487327576,-0.0031300000846385956,0.0027699999045580626,0.18740999698638916
6906.961129120005,1589457.0,-0.1777999997138977,0.002950000111013651,0.00203999993391335,0.18946999311447144
6906.962128892221,1589458.0,-0.16514000296592712,-0.0010000000474974513,0.0,0.19006000459194183
6906.963128664436,1589459.0,-0.1492300033569336,-0.002589999930933118,-0.00203999993391335,0.19047999382019043
6906.964128436652,1589460.0,-0.13207000494003296,0.003949999809265137,-0.0002699999895412475,0.19092999398708344
6906.965128208867,1589461.0,-0.11468999832868576,0.008860000409185886,0.0033599999733269215,0.19075000286102295
6906.9661279810825,1589462.0,-0.09752999991178513,0.005950000137090683,0.0034099998883903027,0.1906999945640564
6906.967127753298,1589463.0,-0.07977999746799469,0.00267999991774559,-4.999999873689376e-05,0.19596999883651733
6906.9681275255125,1589464.0,-0.06481999903917313,-0.0031300000846385956,0.0021299999207258224,0.19954000413417816
6906.969127297728,1589465.0,-0.04806999862194061,0.001769999973475933,0.0018599999602884054,0.19857999682426453
6906.970127069943,1589466.0,-0.02694999985396862,0.005040000192821026,0.0017300000181421638,0.19555999338626862
6906.971126842159,1589467.0,-0.00279000005684793,0.002950000111013651,0.0036299999337643385,0.19235000014305115
6906.972126614373,1589468.0,0.025609999895095825,0.007809999864548445,0.0016299999551847577,0.19623999297618866
6906.973126386589,1589469.0,0.053279999643564224,0.004269999917596579,-0.002090000081807375,0.19945000112056732
6906.974126158804,1589470.0,0.0792900025844574,-0.0008200000156648457,0.000590000010561198,0.19753000140190125
6906.97512593102,1589471.0,0.10273999720811844,-0.000590000010561198,0.001180000021122396,0.192440003156662
6906.976125703235,1589472.0,0.11855000257492065,-0.006680000107735395,-0.0031300000846385956,0.19518999755382538
6906.9771254754505,1589473.0,0.1283400058746338,-0.006219999864697456,-0.002950000111013651,0.20146000385284424
6906.978125247665,1589474.0,0.13513000309467316,-0.005590000189840794,0.0015899999998509884,0.198170006275177
6906.9791250198805,1589475.0,0.1459999978542328,-0.005859999917447567,0.0025400000158697367,0.19368000328540802
6906.980124792096,1589476.0,0.16433000564575195,-0.005539999809116125,-0.00018000000272877514,0.1980700045824051
6906.981124564311,1589477.0,0.19235999882221222,0.00031999999191612005,0.0013200000394135714,0.20218999683856964
6906.982124336527,1589478.0,0.22731000185012817,0.0030400000978261232,-0.003539999946951866,0.20026999711990356
6906.983124108741,1589479.0,0.2626200020313263,0.000910000002477318,-0.00031999999191612005,0.19189000129699707
6906.984123880957,1589480.0,0.28637999296188354,0.001230000052601099,-4.999999873689376e-05,0.196150004863739
6906.985123653172,1589481.0,0.2987399995326996,-0.0002699999895412475,-0.0033199999015778303,0.19880999624729156
6906.986123425388,1589482.0,0.3022400140762329,0.002319999970495701,-0.004679999779909849,0.20430000126361847
6906.987123197603,1589483.0,0.2988300025463104,9.000000136438757e-05,-4.999999873689376e-05,0.20205999910831451
6906.9881229698185,1589484.0,0.2978399991989136,-0.0015399999683722854,-0.005489999894052744,0.19954000413417816
6906.989122742033,1589485.0,0.2961300015449524,-0.00044999999227002263,-0.0015399999683722854,0.19541999697685242
6906.9901225142485,1589486.0,0.2902899980545044,0.006130000110715628,-0.001180000021122396,0.19825999438762665
6906.991122286464,1589487.0,0.28435999155044556,0.006130000110715628,-0.005270000081509352,0.20356999337673187
6906.992122058679,1589488.0,0.2777099907398224,0.005679999943822622,-0.0013599999947473407,0.2052599936723709
6906.993121830895,1589489.0,0.2707900106906891,0.002859999891370535,-0.004410000052303076,0.2035199999809265
6906.994121603109,1589490.0,0.2618100047111511,0.0024500000290572643,-0.0036800000816583633,0.19524000585079193
6906.995121375325,1589491.0,0.2503100037574768,-0.0021800000686198473,0.0006399999838322401,0.19844000041484833
6906.99612114754,1589492.0,0.24285000562667847,-0.006039999891072512,-0.0002699999895412475,0.1994899958372116
6906.997120919756,1589493.0,0.2332800030708313,-0.00749000022187829,-0.003539999946951866,0.20489999651908875
6906.998120691971,1589494.0,0.21562999486923218,-0.005859999917447567,-0.001230000052601099,0.20723000168800354
6906.9991204641865,1589495.0,0.1886799931526184,-0.006490000057965517,-0.0019099999917671084,0.2048500031232834
6907.000120236401,1589496.0,0.15849000215530396,-0.005810000002384186,-0.00267999991774559,0.19518999755382538
6907.001120008616,1589497.0,0.13243000209331512,-0.002630000002682209,-0.000910000002477318,0.20155000686645508
6907.002119780832,1589498.0,0.11042000353336334,-0.004040000028908253,0.002589999930933118,0.2062699943780899
6907.003119553047,1589499.0,0.08885999768972397,0.0016799999866634607,-0.00203999993391335,0.20663000643253326
6907.004119325263,1589500.0,0.06504999846220016,0.0052200001664459705,-0.003539999946951866,0.19753000140190125
6907.005119097477,1589501.0,0.04357999935746193,0.0022299999836832285,0.002319999970495701,0.2013700008392334
6907.006118869693,1589502.0,0.024529999122023582,0.003719999920576811,0.0029100000392645597,0.20979000627994537
6907.007118641908,1589503.0,0.008799999952316284,0.008170000277459621,0.003220000071451068,0.2059900015592575
6907.008118414124,1589504.0,-0.0020699999295175076,0.003220000071451068,-0.0011399999493733048,0.20146000385284424
6907.009118186339,1589505.0,-0.011409999802708626,0.001180000021122396,-0.00044999999227002263,0.2054000049829483
6907.0101179585545,1589506.0,-0.020749999210238457,0.007180000189691782,0.0002300000051036477,0.2101600021123886
6907.011117730769,1589507.0,-0.03117999993264675,0.007860000245273113,0.003000000026077032,0.20778000354766846
6907.012117502984,1589508.0,-0.041999999433755875,0.006719999946653843,-0.001500000013038516,0.20100000500679016
6907.0131172752,1589509.0,-0.05390999838709831,0.004089999943971634,-0.0022299999836832285,0.20502999424934387
6907.014117047415,1589510.0,-0.06526999920606613,0.0020000000949949026,-0.0019099999917671084,0.21126000583171844
6907.015116819631,1589511.0,-0.07444000244140625,0.00018000000272877514,-0.0031300000846385956,0.2085999995470047
6907.016116591845,1589512.0,-0.08157999813556671,-0.0045900000259280205,-0.005489999894052744,0.2062699943780899
6907.017116364061,1589513.0,-0.08495000004768372,-0.0031799999997019768,0.0002300000051036477,0.20100000500679016
6907.018116136276,1589514.0,-0.08477000147104263,-0.0027699999045580626,-0.0013200000394135714,0.2054000049829483
6907.019115908492,1589515.0,-0.08247999846935272,-0.005489999894052744,-0.003449999960139394,0.20833000540733337
6907.020115680707,1589516.0,-0.07897000014781952,-0.0006799999973736703,-0.0013200000394135714,0.2126300036907196
6907.0211154529225,1589517.0,-0.07372000068426132,0.0021299999207258224,-0.0024500000290572643,0.21126000583171844
6907.022115225137,1589518.0,-0.06972000002861023,-0.0007699999841861427,0.00031999999191612005,0.20979000627994537
6907.023114997352,1589519.0,-0.06549999862909317,0.00031999999191612005,-0.002589999930933118,0.20215000212192535
6907.024114769568,1589520.0,-0.0616299994289875,-0.0002300000051036477,-0.002589999930933118,0.20609000325202942
6907.025114541783,1589521.0,-0.06019999831914902,0.0031799999997019768,-0.0037700000684708357,0.2112099975347519
6907.026114313998,1589522.0,-0.06154000014066696,0.0007300000288523734,-0.004269999917596579,0.21358999609947205
6907.027114086213,1589523.0,-0.06436999887228012,-0.0018599999602884054,-0.0010000000474974513,0.2101600021123886
6907.028113858429,1589524.0,-0.06599000096321106,0.0014100000262260437,-0.0022299999836832285,0.20979000627994537
6907.029113630644,1589525.0,-0.06612999737262726,-0.0007300000288523734,-0.0014100000262260437,0.2094700038433075
6907.03011340286,1589526.0,-0.06706999987363815,0.006680000107735395,0.00031999999191612005,0.2029300034046173
6907.031113175075,1589527.0,-0.06869000196456909,0.006490000057965517,-0.00044999999227002263,0.20833000540733337
6907.03211294729,1589528.0,-0.07312999665737152,0.00686000008136034,-0.0012700000079348683,0.21217000484466553
6907.033112719505,1589529.0,-0.07799000293016434,0.0027699999045580626,4.999999873689376e-05,0.21505999565124512
6907.03411249172,1589530.0,-0.08152999728918076,0.0014100000262260437,-0.004269999917596579,0.21217000484466553
6907.035112263936,1589531.0,-0.08567000180482864,-0.0018599999602884054,-0.0052200001664459705,0.20833000540733337
6907.036112036151,1589532.0,-0.09070000052452087,-0.002589999930933118,-0.0033599999733269215,0.21410000324249268
6907.037111808366,1589533.0,-0.09407000243663788,-0.004040000028908253,-0.004269999917596579,0.21478000283241272
6907.038111580581,1589534.0,-0.09478999674320221,-0.004900000058114529,-0.0021800000686198473,0.20672999322414398
6907.039111352797,1589535.0,-0.093299999833107,-0.0037700000684708357,-0.0015399999683722854,0.21396000683307648
6907.040111125012,1589536.0,-0.0898900032043457,-0.0011399999493733048,-0.0019099999917671084,0.21556000411510468
6907.041110897228,1589537.0,-0.08594000339508057,0.0024999999441206455,-0.001820000004954636,0.2085999995470047
6907.042110669443,1589538.0,-0.08135999739170074,0.0010000000474974513,-0.002090000081807375,0.2171200066804886
6907.0431104416575,1589539.0,-0.07744999974966049,0.003220000071451068,-0.002630000002682209,0.21318000555038452
6907.044110213873,1589540.0,-0.07502000033855438,-0.0011399999493733048,-0.004129999782890081,0.2120400071144104
6907.045109986088,1589541.0,-0.07089000195264816,0.00031999999191612005,-0.0021800000686198473,0.21803000569343567
6907.046109758304,1589542.0,-0.06441999971866608,-0.00203999993391335,-0.002589999930933118,0.21010999381542206
6907.047109530519,1589543.0,-0.05773000046610832,0.0013200000394135714,-0.00044999999227002263,0.21111999452114105
6907.048109302734,1589544.0,-0.05319000035524368,-0.0015399999683722854,0.00031999999191612005,0.2195899933576584
6907.049109074949,1589545.0,-0.046629998832941055,0.0031300000846385956,-0.0033199999015778303,0.2151000052690506
6907.050108847165,1589546.0,-0.04317000135779381,0.00795000046491623,-0.0010000000474974513,0.21309000253677368
6907.05110861938,1589547.0,-0.04761999845504761,0.006769999861717224,-0.002409999957308173,0.22005000710487366
6907.0521083915955,1589548.0,-0.056379999965429306,0.007670000195503235,0.0010400000028312206,0.21762000024318695
6907.053108163811,1589549.0,-0.06842000037431717,0.005270000081509352,0.002409999957308173,0.21272000670433044
6907.0541079360255,1589550.0,-0.08139999955892563,0.004679999779909849,0.0015399999683722854,0.22096000611782074
6907.055107708241,1589551.0,-0.08715000003576279,0.0021299999207258224,0.0035000001080334187,0.2171200066804886
6907.056107480456,1589552.0,-0.08844999969005585,-0.005489999894052744,-0.000590000010561198,0.2145099937915802
6907.057107252672,1589553.0,-0.08634000271558762,-0.006089999806135893,-0.0018599999602884054,0.22110000252723694
6907.058107024887,1589554.0,-0.0860700011253357,-0.00798999983817339,-0.0027699999045580626,0.2184000015258789
6907.059106797102,1589555.0,-0.08669999986886978,-0.004410000052303076,0.00031999999191612005,0.21404999494552612
6907.060106569317,1589556.0,-0.08669999986886978,-0.005489999894052744,0.0029100000392645597,0.2184000015258789
6907.061106341533,1589557.0,-0.08715000003576279,0.001769999973475933,-0.003719999920576811,0.219310000538826
6907.062106113748,1589558.0,-0.08835999667644501,0.00031999999191612005,-0.0036800000816583633,0.21541999280452728
6907.0631058859635,1589559.0,-0.08822999894618988,0.003719999920576811,-0.0017300000181421638,0.2227499932050705
6907.064105658179,1589560.0,-0.08754999935626984,-0.0010900000343099236,0.001769999973475933,0.21889999508857727
6907.0651054303935,1589561.0,-0.08597999811172485,4.999999873689376e-05,0.0013200000394135714,0.21487000584602356
6907.066105202609,1589562.0,-0.08365000039339066,0.002409999957308173,0.00031999999191612005,0.2232999950647354
6907.067104974824,1589563.0,-0.07996000349521637,-4.999999873689376e-05,0.00031999999191612005,0.2179899960756302
6907.06810474704,1589564.0,-0.07619000226259232,0.00031999999191612005,0.003220000071451068,0.21638000011444092
6907.069104519255,1589565.0,-0.07242000102996826,0.002859999891370535,0.00267999991774559,0.22150999307632446
6907.07010429147,1589566.0,-0.06881999969482422,0.005040000192821026,0.00418000016361475,0.21295000612735748
6907.071104063685,1589567.0,-0.06661999970674515,0.008489999920129776,-0.0007699999841861427,0.22005000710487366
6907.072103835901,1589568.0,-0.06586000323295593,0.007579999975860119,0.0024999999441206455,0.22123999893665314
6907.073103608116,1589569.0,-0.06594999879598618,0.004679999779909849,0.003949999809265137,0.21735000610351562
6907.0741033803315,1589570.0,-0.06581000238656998,0.0029100000392645597,0.003220000071451068,0.22297999262809753
6907.075103152547,1589571.0,-0.06571999937295914,0.00031999999191612005,0.00031999999191612005,0.21358999609947205
6907.0761029247615,1589572.0,-0.06402000039815903,-0.0033599999733269215,-0.004860000219196081,0.2246199995279312
6907.077102696977,1589573.0,-0.06261999905109406,-0.006130000110715628,-9.000000136438757e-05,0.21990999579429626
6907.078102469192,1589574.0,-0.06064999848604202,-0.006490000057965517,-0.002589999930933118,0.22005000710487366
6907.079102241408,1589575.0,-0.05894000083208084,-0.004129999782890081,-0.001230000052601099,0.22297999262809753
6907.080102013623,1589576.0,-0.0553399994969368,-0.0011399999493733048,0.0013200000394135714,0.2176699936389923
6907.081101785838,1589577.0,-0.05031000077724457,0.0031300000846385956,-0.0016799999866634607,0.22472000122070312
6907.082101558053,1589578.0,-0.04735000059008598,0.0014100000262260437,-0.0020000000949949026,0.21419000625610352
6907.083101330269,1589579.0,-0.04438000172376633,0.00267999991774559,-0.0035000001080334187,0.2238900065422058
6907.084101102484,1589580.0,-0.0428600013256073,0.00031999999191612005,-0.0018599999602884054,0.22237999737262726
6907.0851008746995,1589581.0,-0.04222999885678291,0.00031999999191612005,0.0014100000262260437,0.2198600023984909
6907.086100646915,1589582.0,-0.04262999817728996,-0.0002300000051036477,0.0,0.2249000072479248
6907.0871004191295,1589583.0,-0.04402000084519386,-0.0008200000156648457,0.001820000004954636,0.21821999549865723
6907.088100191345,1589584.0,-0.04707999899983406,0.00031999999191612005,0.0013599999947473407,0.22658999264240265
6907.08909996356,1589585.0,-0.04842999950051308,0.0002699999895412475,0.003860000055283308,0.2252199947834015
6907.090099735776,1589586.0,-0.04806999862194061,0.0030900000128895044,0.00267999991774559,0.22005000710487366
6907.09109950799,1589587.0,-0.04861000180244446,0.0035000001080334187,0.0020000000949949026,0.22690999507904053
6907.092099280206,1589588.0,-0.052379999309778214,0.007540000136941671,0.0036299999337643385,0.217849999666214
6907.093099052421,1589589.0,-0.058800000697374344,0.007180000189691782,0.001769999973475933,0.22297999262809753
6907.094098824637,1589590.0,-0.0666700005531311,0.00031999999191612005,-0.001820000004954636,0.22713999450206757
6907.095098596852,1589591.0,-0.07366999983787537,-0.0033199999015778303,-0.002630000002682209,0.2220200002193451
6907.0960983690675,1589592.0,-0.07879000157117844,-0.004410000052303076,0.0020000000949949026,0.22705000638961792
6907.097098141283,1589593.0,-0.08194000273942947,-0.007309999782592058,-0.002090000081807375,0.22951999306678772
6907.098097913497,1589594.0,-0.0817599967122078,-0.0021299999207258224,0.0015899999998509884,0.22604000568389893
6907.099097685713,1589595.0,-0.08135999739170074,-0.0035000001080334187,0.0009500000160187483,0.21964000165462494
6907.100097457928,1589596.0,-0.07937999814748764,-0.002090000081807375,0.0024500000290572643,0.22426000237464905
6907.101097230144,1589597.0,-0.07614000141620636,0.0027699999045580626,0.005179999861866236,0.22869999706745148
6907.102097002358,1589598.0,-0.07429999858140945,0.001769999973475933,0.0027199999894946814,0.23176999390125275
6907.103096774574,1589599.0,-0.07312999665737152,0.0,0.0022700000554323196,0.23061999678611755
6907.104096546789,1589600.0,-0.07381000369787216,0.001500000013038516,0.005179999861866236,0.22136999666690826
6907.105096319005,1589601.0,-0.07366999983787537,-0.001500000013038516,0.0034099998883903027,0.22585999965667725
6907.10609609122,1589602.0,-0.07502000033855438,0.0020000000949949026,0.002950000111013651,0.2319899946451187
6907.1070958634355,1589603.0,-0.07709000259637833,-0.0013200000394135714,-0.0031300000846385956,0.23409999907016754
6907.10809563565,1589604.0,-0.07709000259637833,0.000910000002477318,-0.0027199999894946814,0.23276999592781067
6907.109095407865,1589605.0,-0.07429999858140945,-0.0011399999493733048,-0.0024500000290572643,0.23029999434947968
6907.110095180081,1589606.0,-0.07026000320911407,0.00803999975323677,-0.0030400000978261232,0.22429999709129333
6907.111094952296,1589607.0,-0.06756000220775604,0.008129999972879887,-4.999999873689376e-05,0.22992999851703644
6907.112094724512,1589608.0,-0.06406000256538391,0.010990000329911709,-0.003449999960139394,0.23469999432563782
6907.113094496726,1589609.0,-0.0616299994289875,0.007899999618530273,-0.002630000002682209,0.23707999289035797
6907.114094268942,1589610.0,-0.058889999985694885,0.0018599999602884054,-0.0031300000846385956,0.2358900010585785
6907.115094041157,1589611.0,-0.05722999945282936,-0.0010400000028312206,-0.004769999999552965,0.23383000493049622
6907.116093813373,1589612.0,-0.05552000179886818,-0.006399999838322401,-0.0007699999841861427,0.23048000037670135
6907.117093585588,1589613.0,-0.05291999876499176,-0.006949999835342169,-0.005630000028759241,0.23194999992847443
6907.118093357803,1589614.0,-0.04967999830842018,-0.00571999978274107,-0.0027699999045580626,0.2396399974822998
6907.119093130018,1589615.0,-0.04806999862194061,-0.00839999970048666,-0.004540000110864639,0.2384900003671646
6907.120092902233,1589616.0,-0.046140000224113464,-0.0022299999836832285,-0.0031300000846385956,0.23670999705791473
6907.121092674449,1589617.0,-0.04383999854326248,-0.001180000021122396,-0.0015899999998509884,0.22846999764442444
6907.122092446664,1589618.0,-0.044199999421834946,0.00418000016361475,0.0014100000262260437,0.23537999391555786
6907.12309221888,1589619.0,-0.046539999544620514,0.00031999999191612005,0.0010400000028312206,0.24192999303340912
6907.124091991094,1589620.0,-0.047029998153448105,-0.00031999999191612005,0.004540000110864639,0.24161000549793243
6907.12509176331,1589621.0,-0.04861000180244446,0.0030900000128895044,0.00031999999191612005,0.2315800040960312
6907.126091535525,1589622.0,-0.051660001277923584,0.003539999946951866,0.001180000021122396,0.2370299994945526
6907.127091307741,1589623.0,-0.05821999907493591,0.002409999957308173,0.0012700000079348683,0.2429399937391281
6907.128091079956,1589624.0,-0.06819000095129013,0.00267999991774559,-4.999999873689376e-05,0.24431000649929047
6907.129090852171,1589625.0,-0.07757999747991562,0.002409999957308173,0.0015899999998509884,0.24077999591827393
6907.130090624386,1589626.0,-0.08594000339508057,0.006130000110715628,0.0014100000262260437,0.23931999504566193
6907.131090396601,1589627.0,-0.09380000084638596,0.007670000195503235,0.002319999970495701,0.2431199997663498
6907.132090168817,1589628.0,-0.0997299998998642,0.005859999917447567,0.00031999999191612005,0.24738000333309174
6907.133089941032,1589629.0,-0.10138999670743942,0.003220000071451068,0.00031999999191612005,0.24595999717712402
6907.134089713248,1589630.0,-0.09900999814271927,-0.0002300000051036477,0.0029100000392645597,0.2376299947500229
6907.135089485462,1589631.0,-0.09487999975681305,0.00031999999191612005,-0.0010000000474974513,0.24422000348567963
6907.136089257678,1589632.0,-0.08782000094652176,-0.006579999811947346,0.0021299999207258224,0.2497600018978119
6907.137089029893,1589633.0,-0.07825999706983566,-0.006039999891072512,0.0021800000686198473,0.24595999717712402
6907.1380888021085,1589634.0,-0.06594999879598618,-0.009039999917149544,0.0013200000394135714,0.2405499964952469
6907.139088574324,1589635.0,-0.05201999843120575,-0.00839999970048666,-0.002090000081807375,0.2435300052165985
6907.140088346539,1589636.0,-0.0408799983561039,-0.002589999930933118,-0.003809999907389283,0.24815000593662262
6907.141088118754,1589637.0,-0.03068000078201294,-0.002409999957308173,0.00031999999191612005,0.2533699870109558
6907.142087890969,1589638.0,-0.022910000756382942,-0.0013200000394135714,0.005309999920427799,0.2500799894332886
6907.143087663185,1589639.0,-0.01940999925136566,0.0013200000394135714,0.005590000189840794,0.2460000067949295
6907.1440874354,1589640.0,-0.02043999917805195,-0.001820000004954636,0.0016799999866634607,0.2527799904346466
6907.145087207616,1589641.0,-0.02295999974012375,0.0024999999441206455,-0.003539999946951866,0.25227001309394836
6907.14608697983,1589642.0,-0.02314000017940998,0.001769999973475933,0.0021299999207258224,0.2515000104904175
6907.147086752046,1589643.0,-0.022280000150203705,0.001500000013038516,0.00418000016361475,0.2565299868583679
6907.148086524261,1589644.0,-0.023989999666810036,-0.002859999891370535,-0.004129999782890081,0.25301000475883484
6907.1490862964765,1589645.0,-0.025609999895095825,0.003949999809265137,0.00031999999191612005,0.2493399977684021
6907.150086068692,1589646.0,-0.02857000008225441,0.005400000140070915,-0.0027699999045580626,0.25648000836372375
6907.151085840907,1589647.0,-0.03612000122666359,0.00686000008136034,0.00031999999191612005,0.25992000102996826
6907.152085613122,1589648.0,-0.0436599999666214,0.005859999917447567,-0.003860000055283308,0.2540999948978424
6907.153085385337,1589649.0,-0.05012999847531319,0.007309999782592058,-0.0009500000160187483,0.25575000047683716
6907.154085157553,1589650.0,-0.05773000046610832,-0.0010000000474974513,-0.0019499999471008778,0.26179999113082886
