LSL_Time,PLUX_P2_nSeq,PLUX_P2_ECG0,PLUX_P2_EMG1,PLUX_P2_EMG2,PLUX_P2_RIP3
6668.895703350336,1352488.0,0.007499999832361937,-0.003719999920576811,0.0013599999947473407,-5.493000030517578
6668.896703122259,1352489.0,0.00872000027447939,-0.000539999979082495,0.00418000016361475,-5.456999778747559
6668.897702894182,1352490.0,0.007550000213086605,0.003909999970346689,0.0006399999838322401,-5.474999904632568
6668.898702666104,1352491.0,0.004399999976158142,-0.003000000026077032,-0.0059899999760091305,-5.468999862670898
6668.899702438027,1352492.0,0.0023799999617040157,-0.005679999943822622,-0.001230000052601099,-5.4720001220703125
6668.9007022099495,1352493.0,0.00018000000272877514,-0.001180000021122396,-0.003809999907389283,-5.4670000076293945
6668.901701981873,1352494.0,-0.0014400000218302011,-0.004900000058114529,-0.000539999979082495,-5.5279998779296875
6668.902701753796,1352495.0,-0.00215999991632998,-0.00267999991774559,0.000539999979082495,-5.499000072479248
6668.903701525718,1352496.0,-0.0027000000700354576,-9.000000136438757e-05,0.0007300000288523734,-5.510000228881836
6668.904701297641,1352497.0,-0.0008999999845400453,-0.004310000222176313,0.0003600000054575503,-5.511000156402588
6668.905701069563,1352498.0,0.0018400000408291817,-0.0006399999838322401,0.005450000055134296,-5.510000228881836
6668.906700841487,1352499.0,0.003229999914765358,0.00018000000272877514,-0.0022700000554323196,-5.501999855041504
6668.907700613409,1352500.0,0.0024300001095980406,-0.003449999960139394,-0.005770000163465738,-5.559999942779541
6668.908700385332,1352501.0,0.0020699999295175076,-0.004809999838471413,-0.0036299999337643385,-5.541999816894531
6668.9097001572545,1352502.0,0.0023399998899549246,0.0027199999894946814,-0.0022700000554323196,-5.547999858856201
6668.910699929177,1352503.0,0.0027000000700354576,-0.0059899999760091305,-0.004809999838471413,-5.559999942779541
6668.911699701101,1352504.0,0.0031399999279528856,-0.007180000189691782,-0.0015399999683722854,-5.576000213623047
6668.912699473023,1352505.0,0.004490000195801258,-0.00018000000272877514,-0.004129999782890081,-5.572999954223633
6668.913699244946,1352506.0,0.005929999984800816,-0.007079999893903732,-0.008899999782443047,-5.626999855041504
6668.914699016868,1352507.0,0.008179999887943268,-0.003809999907389283,-0.0030400000978261232,-5.559999942779541
6668.915698788791,1352508.0,0.008089999668300152,0.0020000000949949026,-0.001230000052601099,-5.620999813079834
6668.9166985607135,1352509.0,0.0088900001719594,-0.0016299999551847577,-0.003809999907389283,-5.631999969482422
6668.917698332637,1352510.0,0.01095999963581562,-0.004540000110864639,-0.0008200000156648457,-5.64900016784668
6668.91869810456,1352511.0,0.012400000356137753,0.003269999986514449,-0.005630000028759241,-5.617000102996826
6668.919697876482,1352512.0,0.013969999738037586,0.0029100000392645597,-0.000910000002477318,-5.656000137329102
6668.920697648405,1352513.0,0.01348000019788742,-0.004449999891221523,-0.004629999864846468,-5.605000019073486
6668.921697420327,1352514.0,0.012129999697208405,0.0030900000128895044,-0.0015399999683722854,-5.675000190734863
6668.922697192251,1352515.0,0.009700000286102295,-0.007579999975860119,-0.003809999907389283,-5.682000160217285
6668.923696964173,1352516.0,0.006920000072568655,-0.0025400000158697367,0.00018000000272877514,-5.682000160217285
6668.924696736096,1352517.0,0.0034099998883903027,0.00018000000272877514,-0.004900000058114529,-5.64300012588501
6668.9256965080185,1352518.0,0.0009899999713525176,0.0012700000079348683,-0.001820000004954636,-5.682000160217285
6668.926696279941,1352519.0,0.000539999979082495,-0.001820000004954636,-0.004089999943971634,-5.65500020980835
6668.927696051864,1352520.0,0.001979999942705035,-0.0036299999337643385,0.002589999930933118,-5.64300012588501
6668.928695823787,1352521.0,0.0024300001095980406,-0.007040000054985285,-0.006089999806135893,-5.6579999923706055
6668.92969559571,1352522.0,0.0030499999411404133,-0.0016299999551847577,0.0022299999836832285,-5.6529998779296875
6668.930695367632,1352523.0,0.004579999949783087,0.000539999979082495,-0.0024500000290572643,-5.730999946594238
6668.931695139555,1352524.0,0.0052999998442828655,0.004720000084489584,-0.002950000111013651,-5.666999816894531
6668.9326949114775,1352525.0,0.006020000204443932,0.003000000026077032,-0.002859999891370535,-5.682000160217285
6668.933694683401,1352526.0,0.005210000090301037,-0.007809999864548445,0.005270000081509352,-5.697999954223633
6668.934694455324,1352527.0,0.004540000110864639,-0.004720000084489584,-0.00795000046491623,-5.698999881744385
6668.935694227246,1352528.0,0.006289999932050705,-0.001449999981559813,-9.000000136438757e-05,-5.716000080108643
6668.936693999169,1352529.0,0.008179999887943268,-0.008080000057816505,0.0024500000290572643,-5.750999927520752
6668.937693771091,1352530.0,0.008089999668300152,0.0020000000949949026,0.004000000189989805,-5.703999996185303
6668.938693543015,1352531.0,0.007499999832361937,0.005270000081509352,0.0006399999838322401,-5.739999771118164
6668.939693314937,1352532.0,0.005210000090301037,-0.005450000055134296,-0.0003600000054575503,-5.730000019073486
6668.94069308686,1352533.0,0.003640000009909272,-0.007670000195503235,-0.008270000107586384,-5.736999988555908
6668.9416928587825,1352534.0,0.004540000110864639,-0.00018000000272877514,-0.005450000055134296,-5.785999774932861
6668.942692630705,1352535.0,0.006829999852925539,-0.005539999809116125,-0.0022299999836832285,-5.77400016784668
6668.943692402629,1352536.0,0.005929999984800816,-0.0017300000181421638,-0.0019099999917671084,-5.771999835968018
6668.944692174551,1352537.0,0.0028800000436604023,0.0017300000181421638,-0.0006399999838322401,-5.810999870300293
6668.945691946474,1352538.0,0.0002699999895412475,-0.008080000057816505,0.0064500002190470695,-5.797999858856201
6668.946691718396,1352539.0,-0.0006300000241026282,-0.00418000016361475,-0.006219999864697456,-5.827000141143799
6668.947691490319,1352540.0,-0.00018000000272877514,0.000539999979082495,-0.0008200000156648457,-5.831999778747559
6668.9486912622415,1352541.0,-0.0008099999977275729,-0.004809999838471413,0.003269999986514449,-5.784999847412109
6668.949691034165,1352542.0,-0.0014400000218302011,-0.004769999999552965,-0.004040000028908253,-5.8379998207092285
6668.950690806088,1352543.0,-0.0008999999845400453,0.002360000042244792,-0.001820000004954636,-5.77400016784668
6668.95169057801,1352544.0,0.0007200000109151006,-0.000859999970998615,0.006089999806135893,-5.789000034332275
6668.952690349933,1352545.0,0.0008999999845400453,-0.002360000042244792,-0.002950000111013651,-5.803999900817871
6668.953690121855,1352546.0,-0.00018000000272877514,-0.001180000021122396,0.0030900000128895044,-5.801000118255615
6668.954689893779,1352547.0,0.0003100000030826777,-0.0059899999760091305,0.001449999981559813,-5.822999954223633
6668.955689665701,1352548.0,0.0017999999690800905,-0.00418000016361475,0.001449999981559813,-5.8520002365112305
6668.956689437624,1352549.0,0.0023399998899549246,0.004629999864846468,-0.0033199999015778303,-5.8379998207092285
6668.9576892095465,1352550.0,0.003590000094845891,0.002360000042244792,-0.0015399999683722854,-5.841000080108643
6668.958688981469,1352551.0,0.0048500001430511475,-0.003000000026077032,-0.006180000025779009,-5.849999904632568
6668.959688753392,1352552.0,0.004490000195801258,0.001820000004954636,0.0022299999836832285,-5.823999881744385
6668.960688525315,1352553.0,0.004360000137239695,-0.0022700000554323196,0.0033599999733269215,-5.914000034332275
6668.961688297238,1352554.0,0.003949999809265137,-0.006810000166296959,0.0007699999841861427,-5.88700008392334
6668.96268806916,1352555.0,0.0034600000362843275,0.0020000000949949026,0.0017300000181421638,-5.873000144958496
6668.963687841083,1352556.0,0.0023399998899549246,-0.002859999891370535,0.00031999999191612005,-5.877999782562256
6668.964687613006,1352557.0,0.0029200001154094934,-0.004269999917596579,0.0024500000290572643,-5.89300012588501
6668.965687384929,1352558.0,0.003640000009909272,-0.0016299999551847577,-0.004129999782890081,-5.863999843597412
6668.966687156852,1352559.0,0.004129999782890081,0.002630000002682209,-0.0020000000949949026,-5.8979997634887695
6668.967686928774,1352560.0,0.004579999949783087,0.00041000000783242285,-0.004900000058114529,-5.942999839782715
6668.968686700697,1352561.0,0.005350000225007534,-0.004269999917596579,0.004269999917596579,-5.910999774932861
6668.969686472619,1352562.0,0.004220000002533197,-0.004540000110864639,-0.0016299999551847577,-5.929999828338623
6668.970686244543,1352563.0,0.0030499999411404133,0.00018000000272877514,-9.000000136438757e-05,-5.968999862670898
6668.971686016465,1352564.0,0.0030499999411404133,-0.005630000028759241,-0.005539999809116125,-5.895999908447266
6668.972685788388,1352565.0,0.00279000005684793,0.0027199999894946814,-0.005590000189840794,-5.927000045776367
6668.9736855603105,1352566.0,0.0024300001095980406,0.004040000028908253,-0.007720000110566616,-5.968999862670898
6668.974685332233,1352567.0,0.0016199999954551458,-0.008080000057816505,0.0021800000686198473,-5.9629998207092285
6668.975685104157,1352568.0,0.0021100000012665987,-0.002360000042244792,-0.003449999960139394,-5.980000019073486
6668.976684876079,1352569.0,0.0035000001080334187,0.0024500000290572643,-0.000910000002477318,-5.984000205993652
6668.977684648002,1352570.0,0.0035000001080334187,-0.006990000139921904,-0.0018599999602884054,-5.951000213623047
6668.978684419924,1352571.0,0.0048500001430511475,-0.003809999907389283,0.000910000002477318,-5.980999946594238
6668.979684191847,1352572.0,0.005750000011175871,-0.0036299999337643385,-0.0007300000288523734,-5.946000099182129
6668.9806839637695,1352573.0,0.006289999932050705,-0.0052200001664459705,-0.000910000002477318,-5.951000213623047
6668.981683735693,1352574.0,0.0071000000461936,0.001449999981559813,-0.0063599999994039536,-5.9629998207092285
6668.982683507616,1352575.0,0.00610999995842576,0.00535999983549118,0.006490000057965517,-5.982999801635742
6668.983683279538,1352576.0,0.005570000037550926,0.0003600000054575503,0.004999999888241291,-5.984000205993652
6668.984683051461,1352577.0,0.0027000000700354576,-0.0025400000158697367,0.005900000222027302,-6.0229997634887695
6668.985682823383,1352578.0,0.0012600000482052565,-0.003809999907389283,0.001500000013038516,-5.982999801635742
6668.986682595307,1352579.0,0.002469999948516488,-0.0003600000054575503,-0.004220000002533197,-5.974999904632568
6668.987682367229,1352580.0,0.00279000005684793,0.0027199999894946814,4.999999873689376e-05,-5.98799991607666
6668.988682139152,1352581.0,0.004220000002533197,-0.002630000002682209,-0.002360000042244792,-6.008999824523926
6668.9896819110745,1352582.0,0.004360000137239695,0.00041000000783242285,-0.001449999981559813,-6.01800012588501
6668.990681682997,1352583.0,0.003640000009909272,0.00571999978274107,-0.004679999779909849,-6.054999828338623
6668.991681454921,1352584.0,0.0035000001080334187,-0.000910000002477318,-0.00031999999191612005,-6.01200008392334
6668.992681226843,1352585.0,0.0034099998883903027,0.0007300000288523734,-0.004540000110864639,-6.017000198364258
6668.993680998766,1352586.0,0.0029200001154094934,0.0017300000181421638,0.0003600000054575503,-6.02400016784668
6668.994680770688,1352587.0,0.000539999979082495,-0.001180000021122396,-0.005040000192821026,-6.017000198364258
6668.995680542611,1352588.0,-0.0013500000350177288,0.005270000081509352,-0.0036299999337643385,-6.067999839782715
6668.996680314534,1352589.0,-0.0015300000086426735,9.000000136438757e-05,0.0016299999551847577,-6.0289998054504395
6668.997680086457,1352590.0,-0.0016199999954551458,-0.003809999907389283,0.0010000000474974513,-6.072999954223633
6668.99867985838,1352591.0,-0.0012600000482052565,-0.005040000192821026,-0.007449999917298555,-6.093999862670898
6668.999679630302,1352592.0,0.000539999979082495,0.001180000021122396,0.0027199999894946814,-6.080999851226807
6669.000679402225,1352593.0,0.0008999999845400453,0.006539999973028898,-0.001180000021122396,-6.078999996185303
6669.001679174147,1352594.0,0.0009899999713525176,0.0006399999838322401,-0.0034099998883903027,-6.060999870300293
6669.002678946071,1352595.0,0.00107999995816499,-0.00418000016361475,-0.004540000110864639,-6.0970001220703125
6669.003678717993,1352596.0,0.0012600000482052565,0.0028200000524520874,0.00018000000272877514,-6.076000213623047
6669.004678489916,1352597.0,0.0026100000832229853,-0.0030900000128895044,-0.004360000137239695,-6.091000080108643
6669.0056782618385,1352598.0,0.004399999976158142,-0.005810000002384186,-0.005179999861866236,-6.091000080108643
6669.006678033761,1352599.0,0.005210000090301037,-0.0015399999683722854,0.0036299999337643385,-6.072999954223633
6669.007677805685,1352600.0,0.005799999926239252,-0.005179999861866236,0.003590000094845891,-6.10699987411499
6669.008677577607,1352601.0,0.006829999852925539,-0.004269999917596579,0.004000000189989805,-6.0970001220703125
6669.00967734953,1352602.0,0.006020000204443932,0.0015399999683722854,-0.0029100000392645597,-6.138999938964844
6669.010677121452,1352603.0,0.0063299997709691525,0.004360000137239695,0.0024999999441206455,-6.145999908447266
6669.011676893375,1352604.0,0.007369999773800373,0.003809999907389283,-0.0036800000816583633,-6.1539998054504395
6669.0126766652975,1352605.0,0.007369999773800373,-0.0012700000079348683,0.0024999999441206455,-6.125999927520752
6669.013676437221,1352606.0,0.007369999773800373,-0.006719999946653843,0.0021299999207258224,-6.14300012588501
6669.0146762091435,1352607.0,0.008630000054836273,-0.004360000137239695,-0.000910000002477318,-6.117000102996826
6669.015675981066,1352608.0,0.010239999741315842,-0.0011399999493733048,-0.008899999782443047,-6.145999908447266
6669.016675752989,1352609.0,0.010599999688565731,0.00014000000373926014,0.0013599999947473407,-6.145999908447266
6669.017675524911,1352610.0,0.007369999773800373,0.005900000222027302,0.005040000192821026,-6.14300012588501
6669.018675296835,1352611.0,0.004220000002533197,0.00044999999227002263,0.006719999946653843,-6.177000045776367
6669.019675068757,1352612.0,0.00107999995816499,-0.005900000222027302,0.004540000110864639,-6.1570000648498535
6669.02067484068,1352613.0,-0.0012600000482052565,-0.007079999893903732,0.006219999864697456,-6.116000175476074
6669.0216746126025,1352614.0,-0.0014400000218302011,-0.004360000137239695,-0.004000000189989805,-6.171000003814697
6669.022674384525,1352615.0,-0.001979999942705035,0.0016299999551847577,-0.00041000000783242285,-6.168000221252441
6669.023674156449,1352616.0,-0.002520000096410513,0.00418000016361475,0.0010000000474974513,-6.171000003814697
6669.024673928371,1352617.0,-0.00215999991632998,0.000910000002477318,-0.0012700000079348683,-6.203999996185303
6669.025673700294,1352618.0,0.0,-0.003269999986514449,-0.0010000000474974513,-6.160999774932861
6669.026673472216,1352619.0,0.0017999999690800905,-0.003449999960139394,-0.0012700000079348683,-6.181000232696533
6669.027673244139,1352620.0,0.0014799999771639705,-0.005090000107884407,-0.004540000110864639,-6.183000087738037
6669.028673016062,1352621.0,0.00018000000272877514,-0.006310000084340572,-0.00418000016361475,-6.197999954223633
6669.029672787985,1352622.0,-0.00044999999227002263,0.00018000000272877514,0.0019099999917671084,-6.2129998207092285
6669.0306725599075,1352623.0,0.000539999979082495,-0.004900000058114529,-0.004449999891221523,-6.186999797821045
6669.03167233183,1352624.0,0.0027000000700354576,-0.0015399999683722854,0.0016299999551847577,-6.2129998207092285
6669.032672103753,1352625.0,0.004220000002533197,0.006579999811947346,0.001769999973475933,-6.183000087738037
6669.033671875675,1352626.0,0.0035000001080334187,0.005270000081509352,0.004000000189989805,-6.195000171661377
6669.034671647599,1352627.0,0.0020699999295175076,0.0003600000054575503,-0.004629999864846468,-6.197999954223633
6669.035671419521,1352628.0,0.0006300000241026282,-0.004449999891221523,0.002360000042244792,-6.193999767303467
6669.036671191444,1352629.0,-0.0013500000350177288,-0.0027199999894946814,0.004629999864846468,-6.229000091552734
6669.0376709633665,1352630.0,-0.0023399998899549246,0.0030900000128895044,-0.004360000137239695,-6.251999855041504
6669.038670735289,1352631.0,-0.0018899999558925629,-0.0013599999947473407,-0.0030900000128895044,-6.23199987411499
6669.039670507213,1352632.0,-0.0003600000054575503,0.0020000000949949026,0.0025400000158697367,-6.24399995803833
6669.040670279135,1352633.0,0.00022000000171829015,0.001769999973475933,-0.004900000058114529,-6.25
6669.041670051058,1352634.0,-0.0003100000030826777,-0.006719999946653843,-0.000539999979082495,-6.23199987411499
6669.04266982298,1352635.0,-0.0003600000054575503,-0.0010900000343099236,0.0017300000181421638,-6.236000061035156
6669.043669594903,1352636.0,0.001120000029914081,0.001820000004954636,-0.0015399999683722854,-6.2870001792907715
6669.044669366826,1352637.0,0.0024300001095980406,-0.004360000137239695,-0.003220000071451068,-6.25600004196167
6669.045669138749,1352638.0,0.0027000000700354576,-0.000539999979082495,0.0035000001080334187,-6.27400016784668
6669.0466689106715,1352639.0,0.0027000000700354576,0.0,-0.004900000058114529,-6.283999919891357
6669.047668682594,1352640.0,0.0025599999353289604,-0.003809999907389283,0.0021800000686198473,-6.26200008392334
6669.048668454517,1352641.0,0.0025599999353289604,0.00044999999227002263,0.003449999960139394,-6.281000137329102
6669.04966822644,1352642.0,0.0028800000436604023,0.0024500000290572643,-0.000539999979082495,-6.270999908447266
6669.050667998363,1352643.0,0.0025599999353289604,-0.006310000084340572,-0.001820000004954636,-6.284999847412109
6669.051667770285,1352644.0,0.0017999999690800905,0.0010900000343099236,0.0016299999551847577,-6.2870001792907715
6669.052667542208,1352645.0,0.00215999991632998,0.0015399999683722854,-0.004629999864846468,-6.320000171661377
6669.0536673141305,1352646.0,0.0025599999353289604,-0.008170000277459621,-0.0006399999838322401,-6.316999912261963
6669.054667086053,1352647.0,0.00279000005684793,-0.005179999861866236,-0.003269999986514449,-6.304999828338623
6669.055666857977,1352648.0,0.0018400000408291817,0.0002699999895412475,0.0012700000079348683,-6.296999931335449
6669.056666629899,1352649.0,0.0023399998899549246,-0.00418000016361475,-0.003809999907389283,-6.2870001792907715
6669.057666401822,1352650.0,0.003590000094845891,-0.000539999979082495,0.0025400000158697367,-6.293000221252441
6669.058666173744,1352651.0,0.007009999826550484,0.008270000107586384,-0.0033599999733269215,-6.293000221252441
6669.059665945667,1352652.0,0.009519999846816063,0.0006399999838322401,-0.0018599999602884054,-6.3480000495910645
6669.06066571759,1352653.0,0.009429999627172947,-0.007269999943673611,0.006719999946653843,-6.302999973297119
6669.061665489513,1352654.0,0.009519999846816063,-0.004040000028908253,0.004410000052303076,-6.328999996185303
6669.0626652614355,1352655.0,0.009519999846816063,-9.000000136438757e-05,0.0030900000128895044,-6.314000129699707
6669.063665033358,1352656.0,0.008449999615550041,0.001820000004954636,0.002360000042244792,-6.326000213623047
6669.064664805281,1352657.0,0.007009999826550484,0.0006799999973736703,-0.007449999917298555,-6.331999778747559
6669.065664577203,1352658.0,0.004129999782890081,-0.00018000000272877514,-0.0059899999760091305,-6.3480000495910645
6669.066664349127,1352659.0,0.0007200000109151006,-0.0022700000554323196,-0.0008200000156648457,-6.335000038146973
6669.067664121049,1352660.0,-0.0014400000218302011,-0.005040000192821026,-0.00041000000783242285,-6.375
6669.068663892972,1352661.0,-9.000000136438757e-05,-0.005590000189840794,-0.0016299999551847577,-6.375
6669.0696636648945,1352662.0,0.000539999979082495,-0.004449999891221523,0.002360000042244792,-6.3480000495910645
6669.070663436817,1352663.0,-0.0011699999449774623,-0.000539999979082495,-0.000539999979082495,-6.366000175476074
6669.071663208741,1352664.0,-0.0008099999977275729,-0.007720000110566616,0.0017300000181421638,-6.354000091552734
6669.072662980663,1352665.0,0.00018000000272877514,-0.006719999946653843,0.0021800000686198473,-6.370999813079834
6669.073662752586,1352666.0,0.0014400000218302011,-0.003719999920576811,0.003449999960139394,-6.340000152587891
6669.074662524508,1352667.0,0.0028800000436604023,-0.001449999981559813,-0.0007699999841861427,-6.3420000076293945
6669.075662296431,1352668.0,0.004490000195801258,-0.0016299999551847577,0.0024500000290572643,-6.35699987411499
6669.076662068354,1352669.0,0.0053900000639259815,0.0013599999947473407,0.0006399999838322401,-6.363999843597412
6669.077661840277,1352670.0,0.004310000222176313,-0.000910000002477318,-0.004089999943971634,-6.380000114440918
6669.0786616121995,1352671.0,0.0037700000684708357,-0.003719999920576811,0.0027199999894946814,-6.389999866485596
6669.079661384122,1352672.0,0.001979999942705035,-0.0011399999493733048,-0.0007699999841861427,-6.366000175476074
6669.080661156045,1352673.0,-0.000539999979082495,-0.0024500000290572643,-0.004129999782890081,-6.363999843597412
6669.081660927968,1352674.0,-0.0027000000700354576,-0.003590000094845891,-0.005630000028759241,-6.374000072479248
6669.082660699891,1352675.0,-0.0027000000700354576,0.0,0.000910000002477318,-6.372000217437744
6669.083660471813,1352676.0,-0.00279000005684793,0.0016299999551847577,0.004679999779909849,-6.389999866485596
6669.084660243736,1352677.0,-0.002959999954327941,-0.0036299999337643385,0.002630000002682209,-6.389999866485596
6669.0856600156585,1352678.0,-0.002520000096410513,-0.0002699999895412475,0.0,-6.395999908447266
6669.086659787581,1352679.0,-0.0016199999954551458,-0.0036800000816583633,0.006899999920278788,-6.38700008392334
6669.087659559505,1352680.0,-0.0016199999954551458,-0.0059899999760091305,-0.00798999983817339,-6.3979997634887695
6669.088659331427,1352681.0,-0.0016199999954551458,0.001820000004954636,0.0017300000181421638,-6.388999938964844
6669.08965910335,1352682.0,-0.0017999999690800905,-0.003809999907389283,0.0010000000474974513,-6.406000137329102
6669.090658875272,1352683.0,0.0002699999895412475,-0.0010000000474974513,0.006899999920278788,-6.4029998779296875
6669.091658647195,1352684.0,0.00215999991632998,0.0013599999947473407,-0.0007300000288523734,-6.432000160217285
6669.092658419118,1352685.0,0.0027000000700354576,-0.00018000000272877514,0.0025400000158697367,-6.423999786376953
6669.093658191041,1352686.0,0.0015300000086426735,-0.004000000189989805,-0.0011399999493733048,-6.447000026702881
6669.0946579629635,1352687.0,0.0006300000241026282,0.001180000021122396,0.005810000002384186,-6.4070000648498535
6669.095657734886,1352688.0,0.0028800000436604023,-0.0007300000288523734,0.0016299999551847577,-6.427000045776367
6669.096657506809,1352689.0,0.004579999949783087,-0.003449999960139394,0.0013599999947473407,-6.400000095367432
6669.097657278731,1352690.0,0.004269999917596579,-0.0003600000054575503,-0.0030900000128895044,-6.451000213623047
6669.098657050655,1352691.0,0.004579999949783087,-0.00418000016361475,0.00044999999227002263,-6.441999912261963
6669.099656822577,1352692.0,0.0048500001430511475,-0.001449999981559813,-0.004449999891221523,-6.465000152587891
6669.1006565945,1352693.0,0.0035000001080334187,0.0006399999838322401,0.0016299999551847577,-6.433000087738037
6669.1016563664225,1352694.0,0.0031900000758469105,0.005859999917447567,0.004360000137239695,-6.447999954223633
6669.102656138345,1352695.0,0.00279000005684793,-0.0007699999841861427,0.0016299999551847577,-6.429999828338623
6669.103655910269,1352696.0,0.0014400000218302011,-0.0021299999207258224,-0.0059899999760091305,-6.4670000076293945
6669.104655682191,1352697.0,0.000539999979082495,-0.004269999917596579,0.000539999979082495,-6.447999954223633
6669.105655454114,1352698.0,-0.0002699999895412475,-0.004410000052303076,0.002630000002682209,-6.464000225067139
6669.106655226036,1352699.0,0.0006699999794363976,0.0007300000288523734,-0.001820000004954636,-6.441999912261963
6669.107654997959,1352700.0,0.0016199999954551458,0.004769999999552965,0.0027699999045580626,-6.464000225067139
6669.108654769882,1352701.0,0.0023399998899549246,0.001769999973475933,0.002859999891370535,-6.435999870300293
6669.109654541805,1352702.0,0.0023399998899549246,-0.0010400000028312206,-0.0027199999894946814,-6.453000068664551
6669.1106543137275,1352703.0,0.0024300001095980406,-0.0059899999760091305,-0.00535999983549118,-6.453999996185303
6669.11165408565,1352704.0,0.0018400000408291817,-0.0012700000079348683,0.003000000026077032,-6.455999851226807
6669.112653857573,1352705.0,0.0016199999954551458,-0.005450000055134296,-0.002360000042244792,-6.4710001945495605
6669.113653629496,1352706.0,0.0012600000482052565,-0.0024500000290572643,0.001820000004954636,-6.4710001945495605
6669.114653401419,1352707.0,0.0009899999713525176,0.0012700000079348683,-0.00018000000272877514,-6.445000171661377
6669.115653173341,1352708.0,-0.00018000000272877514,-0.0059899999760091305,-0.000910000002477318,-6.445000171661377
6669.116652945264,1352709.0,-0.0012600000482052565,-0.004769999999552965,-0.0020000000949949026,-6.459000110626221
6669.1176527171865,1352710.0,-0.0016199999954551458,0.0010000000474974513,0.004310000222176313,-6.455999851226807
6669.118652489109,1352711.0,-0.0008999999845400453,-0.0010900000343099236,0.0027199999894946814,-6.4679999351501465
6669.119652261033,1352712.0,0.0008099999977275729,-0.004089999943971634,0.005179999861866236,-6.4710001945495605
6669.120652032955,1352713.0,0.0009899999713525176,-0.0059899999760091305,0.002859999891370535,-6.464000225067139
6669.121651804878,1352714.0,0.0008999999845400453,-0.005090000107884407,-0.004809999838471413,-6.48199987411499
6669.1226515768,1352715.0,0.0009899999713525176,-0.002360000042244792,0.00018000000272877514,-6.48799991607666
6669.123651348723,1352716.0,0.0016199999954551458,0.0030900000128895044,-0.0036299999337643385,-6.507999897003174
6669.124651120646,1352717.0,0.003949999809265137,0.0028200000524520874,-0.005179999861866236,-6.4730000495910645
6669.125650892569,1352718.0,0.004989999812096357,0.0007300000288523734,-0.005090000107884407,-6.491000175476074
6669.1266506644915,1352719.0,0.0052999998442828655,-0.006579999811947346,-0.0025400000158697367,-6.4710001945495605
6669.127650436414,1352720.0,0.004040000028908253,-0.000910000002477318,-0.004720000084489584,-6.4710001945495605
6669.128650208337,1352721.0,0.003280000062659383,0.00018000000272877514,0.003000000026077032,-6.47599983215332
6669.12964998026,1352722.0,0.002959999954327941,-4.999999873689376e-05,-0.004809999838471413,-6.47599983215332
6669.130649752183,1352723.0,0.0023399998899549246,0.004999999888241291,-0.003949999809265137,-6.485000133514404
6669.131649524105,1352724.0,0.00107999995816499,0.0019099999917671084,-0.006539999973028898,-6.525000095367432
6669.132649296028,1352725.0,-0.0017099999822676182,-0.003539999946951866,-0.000910000002477318,-6.5
6669.1336490679505,1352726.0,-0.00279000005684793,-0.004000000189989805,0.0007300000288523734,-6.48799991607666
6669.134648839874,1352727.0,-0.0037700000684708357,-0.0029100000392645597,0.003860000055283308,-6.48799991607666
6669.135648611797,1352728.0,-0.002959999954327941,-0.0063599999994039536,0.000910000002477318,-6.48799991607666
6669.136648383719,1352729.0,-0.0012600000482052565,-0.0021800000686198473,0.00031999999191612005,-6.508999824523926
6669.137648155642,1352730.0,-0.00044999999227002263,0.0016299999551847577,0.0020000000949949026,-6.505000114440918
6669.138647927564,1352731.0,-0.0008999999845400453,-0.0064500002190470695,-0.0059899999760091305,-6.525000095367432
6669.139647699487,1352732.0,-0.0006699999794363976,0.0002699999895412475,-0.003719999920576811,-6.525000095367432
6669.14064747141,1352733.0,0.00107999995816499,0.0028200000524520874,-0.003000000026077032,-6.5229997634887695
6669.141647243333,1352734.0,0.00279000005684793,-0.0019099999917671084,0.0017300000181421638,-6.50600004196167
6669.1426470152555,1352735.0,0.0034099998883903027,-0.003809999907389283,0.006180000025779009,-6.519000053405762
6669.143646787178,1352736.0,0.003860000055283308,-0.0028200000524520874,0.005810000002384186,-6.49399995803833
6669.144646559101,1352737.0,0.004129999782890081,-0.0025400000158697367,-0.0024500000290572643,-6.5279998779296875
6669.145646331024,1352738.0,0.004670000169426203,0.0016299999551847577,0.0030900000128895044,-6.525000095367432
6669.146646102947,1352739.0,0.006020000204443932,0.002090000081807375,-0.0059899999760091305,-6.5370001792907715
6669.147645874869,1352740.0,0.005929999984800816,-0.0022299999836832285,-0.0063599999994039536,-6.525000095367432
6669.148645646792,1352741.0,0.003949999809265137,-0.006089999806135893,-0.008449999615550041,-6.552000045776367
6669.1496454187145,1352742.0,0.0027000000700354576,-0.003449999960139394,-0.003269999986514449,-6.50600004196167
6669.150645190637,1352743.0,0.0016199999954551458,0.0016299999551847577,0.0024999999441206455,-6.517000198364258
6669.151644962561,1352744.0,0.00107999995816499,0.0028200000524520874,-0.002360000042244792,-6.517000198364258
6669.152644734483,1352745.0,0.002469999948516488,0.0016299999551847577,-0.008129999972879887,-6.50600004196167
6669.153644506406,1352746.0,0.0031399999279528856,-9.000000136438757e-05,-0.005090000107884407,-6.531000137329102
6669.154644278328,1352747.0,0.003590000094845891,-0.0010000000474974513,-0.0020000000949949026,-6.5279998779296875
6669.155644050251,1352748.0,0.004129999782890081,-0.005040000192821026,-0.000539999979082495,-6.5370001792907715
6669.156643822174,1352749.0,0.0048500001430511475,-0.0010000000474974513,-0.0025400000158697367,-6.5289998054504395
6669.157643594097,1352750.0,0.004579999949783087,0.0024500000290572643,0.004000000189989805,-6.5370001792907715
6669.1586433660195,1352751.0,0.004490000195801258,0.004900000058114529,-0.0028200000524520874,-6.544000148773193
6669.159643137942,1352752.0,0.0033199999015778303,0.0017300000181421638,-0.005270000081509352,-6.560999870300293
6669.160642909865,1352753.0,0.00279000005684793,-0.0003600000054575503,-0.0020000000949949026,-6.521999835968018
6669.161642681788,1352754.0,0.0013500000350177288,-0.005090000107884407,0.000910000002477318,-6.531000137329102
6669.162642453711,1352755.0,0.0008999999845400453,-0.004360000137239695,-0.003809999907389283,-6.572999954223633
6669.163642225633,1352756.0,0.0017500000540167093,0.0010400000028312206,0.001820000004954636,-6.543000221252441
6669.164641997556,1352757.0,0.0017999999690800905,0.004540000110864639,-0.005630000028759241,-6.570000171661377
6669.1656417694785,1352758.0,0.0030499999411404133,0.00044999999227002263,-0.004000000189989805,-6.540999889373779
6669.166641541402,1352759.0,0.004629999864846468,0.000539999979082495,-0.007770000025629997,-6.539999961853027
6669.167641313325,1352760.0,0.0026100000832229853,-0.003449999960139394,0.000910000002477318,-6.533999919891357
6669.168641085247,1352761.0,0.00018000000272877514,-0.005270000081509352,-0.0030900000128895044,-6.533999919891357
6669.16964085717,1352762.0,-0.0012600000482052565,-0.0033199999015778303,0.0024500000290572643,-6.5370001792907715
6669.170640629092,1352763.0,3.9999998989515007e-05,0.0016299999551847577,-0.003809999907389283,-6.560999870300293
6669.171640401015,1352764.0,-3.9999998989515007e-05,0.003909999970346689,-0.004809999838471413,-6.544000148773193
6669.172640172938,1352765.0,-0.000539999979082495,-0.000910000002477318,-0.003269999986514449,-6.570000171661377
6669.173639944861,1352766.0,-0.0011699999449774623,-0.0020000000949949026,-0.002630000002682209,-6.543000221252441
6669.1746397167835,1352767.0,-0.0014400000218302011,-0.007670000195503235,-0.005450000055134296,-6.5370001792907715
6669.175639488706,1352768.0,-0.0009899999713525176,-0.005270000081509352,0.002360000042244792,-6.5370001792907715
6669.176639260629,1352769.0,-0.0008999999845400453,0.004449999891221523,-0.004129999782890081,-6.546000003814697
6669.177639032552,1352770.0,0.00022000000171829015,-0.0010900000343099236,-0.005450000055134296,-6.583000183105469
6669.178638804475,1352771.0,0.0006300000241026282,-0.0021800000686198473,-0.004129999782890081,-6.546000003814697
6669.179638576397,1352772.0,0.0012600000482052565,-0.0003600000054575503,0.006490000057965517,-6.5370001792907715
6669.18063834832,1352773.0,0.003100000089034438,0.0027199999894946814,-0.00803999975323677,-6.557000160217285
6669.1816381202425,1352774.0,0.005210000090301037,0.001449999981559813,-0.004360000137239695,-6.546000003814697
6669.182637892166,1352775.0,0.006649999879300594,0.001180000021122396,-0.003449999960139394,-6.583000183105469
6669.183637664089,1352776.0,0.006649999879300594,-0.006949999835342169,-0.002090000081807375,-6.5370001792907715
6669.184637436011,1352777.0,0.006649999879300594,-0.001180000021122396,-0.007670000195503235,-6.557000160217285
6669.185637207934,1352778.0,0.006149999797344208,-0.0034099998883903027,0.0002699999895412475,-6.548999786376953
6669.186636979856,1352779.0,0.004490000195801258,0.0007300000288523734,-0.00267999991774559,-6.551000118255615
6669.18763675178,1352780.0,0.0029200001154094934,0.001820000004954636,0.0017300000181421638,-6.548999786376953
6669.188636523702,1352781.0,-0.00044999999227002263,0.002090000081807375,-0.00535999983549118,-6.577000141143799
6669.189636295625,1352782.0,-0.0028299998957663774,-0.003909999970346689,-0.0033599999733269215,-6.539999961853027
6669.1906360675475,1352783.0,-0.0024300001095980406,-0.00418000016361475,-0.004360000137239695,-6.560999870300293
6669.19163583947,1352784.0,-0.0008999999845400453,-0.0031799999997019768,-0.0006799999973736703,-6.558000087738037
6669.192635611393,1352785.0,0.0003100000030826777,0.001820000004954636,-0.00018000000272877514,-6.564000129699707
6669.193635383316,1352786.0,0.0009899999713525176,-0.00014000000373926014,0.001500000013038516,-6.577000141143799
6669.194635155239,1352787.0,0.0006300000241026282,-0.0027199999894946814,-0.003809999907389283,-6.544000148773193
6669.195634927161,1352788.0,0.00018000000272877514,-0.004900000058114529,-0.001180000021122396,-6.583000183105469
6669.196634699084,1352789.0,0.0004900000058114529,0.000910000002477318,-0.006990000139921904,-6.552000045776367
6669.1976344710065,1352790.0,0.0017500000540167093,-0.004040000028908253,0.002360000042244792,-6.553999900817871
6669.19863424293,1352791.0,0.0017099999822676182,-0.0022700000554323196,0.007449999917298555,-6.548999786376953
6669.199634014853,1352792.0,0.00215999991632998,-0.004410000052303076,-0.003269999986514449,-6.539999961853027
6669.200633786775,1352793.0,0.0017099999822676182,-0.0030900000128895044,-0.003809999907389283,-6.558000087738037
6669.201633558698,1352794.0,0.00107999995816499,0.003809999907389283,-0.001180000021122396,-6.560999870300293
6669.20263333062,1352795.0,0.0017999999690800905,-0.003949999809265137,0.005270000081509352,-6.544000148773193
6669.203633102543,1352796.0,0.002520000096410513,0.00044999999227002263,-0.005630000028759241,-6.564000129699707
6669.204632874466,1352797.0,0.0030499999411404133,0.004360000137239695,-0.007079999893903732,-6.566999912261963
6669.205632646389,1352798.0,0.0030499999411404133,0.001449999981559813,0.001500000013038516,-6.552000045776367
6669.2066324183115,1352799.0,0.0028800000436604023,0.0021299999207258224,0.001820000004954636,-6.583000183105469
6669.207632190234,1352800.0,0.002520000096410513,-0.0027199999894946814,-0.0029100000392645597,-6.546000003814697
6669.208631962157,1352801.0,0.0016199999954551458,-0.004860000219196081,-0.0006799999973736703,-6.585999965667725
6669.20963173408,1352802.0,3.9999998989515007e-05,-0.001449999981559813,0.0021299999207258224,-6.572999954223633
6669.210631506003,1352803.0,-0.0012600000482052565,0.000539999979082495,-0.0015399999683722854,-6.583000183105469
6669.211631277925,1352804.0,-0.0011699999449774623,-0.0003600000054575503,0.006949999835342169,-6.548999786376953
6669.212631049848,1352805.0,-0.0014400000218302011,0.004360000137239695,-0.000910000002477318,-6.559999942779541
6669.2136308217705,1352806.0,-0.0016199999954551458,-0.0020000000949949026,-0.0027199999894946814,-6.557000160217285
6669.214630593694,1352807.0,-0.0023399998899549246,-0.003809999907389283,-0.0030900000128895044,-6.546000003814697
6669.215630365617,1352808.0,-0.0037700000684708357,-0.00418000016361475,0.0012700000079348683,-6.548999786376953
6669.216630137539,1352809.0,-0.0037700000684708357,-0.0027199999894946814,-0.003719999920576811,-6.554999828338623
6669.217629909462,1352810.0,-0.004490000195801258,0.004629999864846468,0.0027199999894946814,-6.564000129699707
6669.218629681384,1352811.0,-0.004989999812096357,-0.000539999979082495,0.0020000000949949026,-6.558000087738037
6669.219629453308,1352812.0,-0.005750000011175871,-0.0033599999733269215,0.005810000002384186,-6.558000087738037
6669.22062922523,1352813.0,-0.00547999981790781,0.003449999960139394,-0.0051299999468028545,-6.572999954223633
6669.221628997153,1352814.0,-0.005570000037550926,-0.006180000025779009,0.00018000000272877514,-6.572999954223633
6669.2226287690755,1352815.0,-0.0048500001430511475,-0.007079999893903732,-0.0012700000079348683,-6.589000225067139
6669.223628540998,1352816.0,-0.004089999943971634,0.00418000016361475,0.007809999864548445,-6.559999942779541
6669.224628312921,1352817.0,-0.003590000094845891,0.0016299999551847577,0.001820000004954636,-6.548999786376953
6669.225628084844,1352818.0,-0.0036800000816583633,-0.005090000107884407,-0.0030900000128895044,-6.566999912261963
6669.226627856767,1352819.0,-0.0036800000816583633,0.0010000000474974513,-0.007449999917298555,-6.560999870300293
6669.227627628689,1352820.0,-0.004129999782890081,-0.00044999999227002263,-0.0008200000156648457,-6.568999767303467
6669.228627400612,1352821.0,-0.004449999891221523,-0.0015399999683722854,0.0,-6.566999912261963
6669.2296271725345,1352822.0,-0.003229999914765358,0.004269999917596579,0.002409999957308173,-6.560999870300293
6669.230626944458,1352823.0,-0.00215999991632998,-0.0010400000028312206,0.0022299999836832285,-6.552000045776367
6669.231626716381,1352824.0,-0.0022499999031424522,-0.0015399999683722854,0.00018000000272877514,-6.566999912261963
6669.232626488303,1352825.0,-0.0023399998899549246,0.002360000042244792,-0.003809999907389283,-6.558000087738037
6669.233626260226,1352826.0,-0.002199999988079071,-0.000910000002477318,0.000910000002477318,-6.539999961853027
6669.234626032148,1352827.0,-0.003370000049471855,-0.00535999983549118,-0.00018000000272877514,-6.543000221252441
6669.235625804071,1352828.0,-0.0048500001430511475,0.0,-0.004540000110864639,-6.554999828338623
6669.236625575994,1352829.0,-0.007280000019818544,0.0063599999994039536,-0.0010000000474974513,-6.560999870300293
6669.237625347917,1352830.0,-0.009340000338852406,-0.000539999979082495,0.0027199999894946814,-6.578000068664551
6669.2386251198395,1352831.0,-0.00875999964773655,0.003269999986514449,-0.002630000002682209,-6.584000110626221
6669.239624891762,1352832.0,-0.006829999852925539,0.0002699999895412475,-0.002360000042244792,-6.565999984741211
6669.240624663685,1352833.0,-0.0052999998442828655,-0.005900000222027302,0.005539999809116125,-6.560999870300293
6669.241624435608,1352834.0,-0.0034099998883903027,0.0024999999441206455,0.005090000107884407,-6.552000045776367
6669.242624207531,1352835.0,-0.0008999999845400453,0.0017300000181421638,0.003809999907389283,-6.559999942779541
6669.243623979453,1352836.0,0.0026100000832229853,0.0019099999917671084,-0.003590000094845891,-6.539999961853027
6669.244623751376,1352837.0,0.004490000195801258,0.0016299999551847577,-0.003449999960139394,-6.5370001792907715
6669.2456235232985,1352838.0,0.006829999852925539,-0.00872000027447939,-0.000910000002477318,-6.51200008392334
6669.246623295222,1352839.0,0.008799999952316284,-0.003809999907389283,0.0030900000128895044,-6.5279998779296875
6669.247623067145,1352840.0,0.009789999574422836,-0.006719999946653843,0.0028200000524520874,-6.548999786376953
6669.248622839067,1352841.0,0.010239999741315842,0.0006799999973736703,0.000590000010561198,-6.558000087738037
6669.24962261099,1352842.0,0.0101500004529953,0.0020000000949949026,0.00418000016361475,-6.531000137329102
6669.250622382912,1352843.0,0.009340000338852406,-0.0030400000978261232,-0.000539999979082495,-6.533999919891357
6669.251622154836,1352844.0,0.007499999832361937,-0.006719999946653843,-0.0016299999551847577,-6.525000095367432
6669.252621926758,1352845.0,0.004490000195801258,-0.001449999981559813,-0.004900000058114529,-6.552000045776367
6669.253621698681,1352846.0,0.0023399998899549246,-0.004540000110864639,-0.0008200000156648457,-6.543000221252441
6669.2546214706035,1352847.0,0.001979999942705035,-0.002589999930933118,-0.006579999811947346,-6.585999965667725
6669.255621242526,1352848.0,0.00107999995816499,0.0030900000128895044,-9.000000136438757e-05,-6.544000148773193
6669.256621014449,1352849.0,0.0007200000109151006,0.002630000002682209,0.0013599999947473407,-6.5370001792907715
6669.257620786372,1352850.0,0.0017099999822676182,4.999999873689376e-05,-0.000910000002477318,-6.5370001792907715
6669.258620558295,1352851.0,0.0030499999411404133,-0.002360000042244792,0.0017300000181421638,-6.525000095367432
6669.259620330217,1352852.0,0.0037700000684708357,-0.004809999838471413,0.0012700000079348683,-6.533999919891357
6669.26062010214,1352853.0,0.005570000037550926,-0.004410000052303076,-0.00031999999191612005,-6.570000171661377
6669.2616198740625,1352854.0,0.006920000072568655,0.0016299999551847577,-0.001180000021122396,-6.539999961853027
6669.262619645986,1352855.0,0.008089999668300152,0.0021299999207258224,0.004540000110864639,-6.5279998779296875
6669.263619417909,1352856.0,0.010239999741315842,-0.000539999979082495,-0.0064500002190470695,-6.5370001792907715
6669.264619189831,1352857.0,0.010060000233352184,-0.000910000002477318,0.004540000110864639,-6.519000053405762
6669.265618961754,1352858.0,0.0083600003272295,-0.0033599999733269215,-9.000000136438757e-05,-6.548999786376953
6669.266618733676,1352859.0,0.006829999852925539,-0.003449999960139394,-0.00044999999227002263,-6.5279998779296875
6669.2676185056,1352860.0,0.006289999932050705,0.0021299999207258224,0.004720000084489584,-6.539999961853027
6669.268618277522,1352861.0,0.0048500001430511475,-0.0010000000474974513,0.004000000189989805,-6.534999847412109
6669.269618049445,1352862.0,0.001979999942705035,-0.0059899999760091305,-0.001449999981559813,-6.554999828338623
6669.2706178213675,1352863.0,0.0002699999895412475,0.002630000002682209,-0.004089999943971634,-6.5279998779296875
6669.27161759329,1352864.0,0.00022000000171829015,-0.0016299999551847577,-0.006899999920278788,-6.543000221252441
6669.272617365214,1352865.0,0.0008999999845400453,-0.004629999864846468,-0.002360000042244792,-6.515999794006348
6669.273617137136,1352866.0,0.00107999995816499,0.0030900000128895044,-0.0002699999895412475,-6.51200008392334
6669.274616909059,1352867.0,0.0017999999690800905,-0.00014000000373926014,0.000910000002477318,-6.5
6669.275616680981,1352868.0,0.0027000000700354576,-0.004720000084489584,-0.0024999999441206455,-6.5
6669.276616452904,1352869.0,0.0029200001154094934,0.0010000000474974513,-0.003909999970346689,-6.511000156402588
6669.2776162248265,1352870.0,0.00279000005684793,0.0002699999895412475,-0.004540000110864639,-6.5370001792907715
6669.27861599675,1352871.0,0.005260000005364418,0.005179999861866236,-0.005859999917447567,-6.502999782562256
6669.279615768673,1352872.0,0.005929999984800816,-0.0012700000079348683,0.0016799999866634607,-6.48799991607666
6669.280615540595,1352873.0,0.004490000195801258,-0.006089999806135893,-0.006719999946653843,-6.493000030517578
6669.281615312518,1352874.0,0.003640000009909272,-0.0036299999337643385,0.0030900000128895044,-6.51200008392334
6669.28261508444,1352875.0,0.0030499999411404133,-0.004449999891221523,0.002360000042244792,-6.507999897003174
6669.283614856364,1352876.0,0.003280000062659383,-0.0030900000128895044,0.003449999960139394,-6.519000053405762
6669.284614628286,1352877.0,0.0030499999411404133,0.004000000189989805,0.0,-6.493000030517578
6669.285614400209,1352878.0,0.0006300000241026282,-0.0059899999760091305,-0.002859999891370535,-6.485000133514404
6669.2866141721315,1352879.0,0.0003600000054575503,-0.00267999991774559,-0.005489999894052744,-6.485000133514404
6669.287613944054,1352880.0,0.0003600000054575503,0.0013599999947473407,0.003809999907389283,-6.47599983215332
6669.288613715977,1352881.0,-0.0008099999977275729,-0.007449999917298555,0.0028200000524520874,-6.5
6669.2896134879,1352882.0,-0.0007200000109151006,-0.006630000192672014,0.007720000110566616,-6.482999801635742
6669.290613259823,1352883.0,0.0007600000244565308,0.0008200000156648457,0.00418000016361475,-6.497000217437744
6669.291613031745,1352884.0,0.001979999942705035,0.000539999979082495,0.002589999930933118,-6.502999782562256
6669.292612803668,1352885.0,0.0027000000700354576,-0.005450000055134296,-0.004449999891221523,-6.502999782562256
6669.2936125755905,1352886.0,0.002520000096410513,-0.005270000081509352,-0.000539999979082495,-6.51200008392334
6669.294612347514,1352887.0,0.0018899999558925629,-0.006579999811947346,0.00018000000272877514,-6.4710001945495605
6669.295612119437,1352888.0,0.0027000000700354576,-0.0022700000554323196,0.003809999907389283,-6.473999977111816
6669.296611891359,1352889.0,0.0034099998883903027,0.0044999998062849045,0.002360000042244792,-6.4710001945495605
6669.297611663282,1352890.0,0.0034099998883903027,0.00535999983549118,0.0006399999838322401,-6.479000091552734
6669.298611435204,1352891.0,0.0031900000758469105,-0.004540000110864639,-0.0064500002190470695,-6.46999979019165
6669.299611207128,1352892.0,0.0027000000700354576,-0.0013599999947473407,0.000539999979082495,-6.4730000495910645
6669.30061097905,1352893.0,0.00215999991632998,0.0012700000079348683,0.003539999946951866,-6.47599983215332
6669.301610750973,1352894.0,0.0023399998899549246,-0.000910000002477318,0.003539999946951866,-6.48799991607666
6669.3026105228955,1352895.0,0.0016599999507889152,0.00018000000272877514,-0.002360000042244792,-6.464000225067139
6669.303610294818,1352896.0,0.00107999995816499,-0.006219999864697456,-0.0010900000343099236,-6.4679999351501465
6669.304610066742,1352897.0,0.0008999999845400453,-0.001820000004954636,-0.0044999998062849045,-6.47599983215332
6669.305609838664,1352898.0,0.0013500000350177288,0.005040000192821026,-0.0012700000079348683,-6.464000225067139
6669.306609610587,1352899.0,0.00018000000272877514,0.0,-0.0024500000290572643,-6.458000183105469
6669.307609382509,1352900.0,-0.00018000000272877514,-0.0019099999917671084,0.00018000000272877514,-6.485000133514404
6669.308609154432,1352901.0,-9.000000136438757e-05,-0.0020000000949949026,0.0036299999337643385,-6.460999965667725
6669.3096089263545,1352902.0,-0.000539999979082495,-0.006990000139921904,0.003809999907389283,-6.460999965667725
6669.310608698278,1352903.0,-0.0022499999031424522,-0.00418000016361475,-0.004720000084489584,-6.48199987411499
6669.311608470201,1352904.0,-0.0033199999015778303,0.0027199999894946814,0.0012700000079348683,-6.447999954223633
6669.312608242123,1352905.0,-0.0034099998883903027,0.003909999970346689,-0.0015899999998509884,-6.4670000076293945
6669.313608014046,1352906.0,-0.003590000094845891,-0.000539999979082495,-0.00798999983817339,-6.427000045776367
6669.314607785968,1352907.0,-0.0028800000436604023,0.0016299999551847577,-0.0010900000343099236,-6.46999979019165
6669.315607557892,1352908.0,-0.0018400000408291817,-0.004269999917596579,-0.006219999864697456,-6.460999965667725
6669.316607329814,1352909.0,-0.0013500000350177288,4.999999873689376e-05,-0.003719999920576811,-6.458000183105469
6669.317607101737,1352910.0,-0.0008999999845400453,-0.004310000222176313,-0.004629999864846468,-6.418000221252441
6669.3186068736595,1352911.0,-0.000539999979082495,0.0016299999551847577,-0.003809999907389283,-6.464000225067139
6669.319606645582,1352912.0,0.000539999979082495,0.00418000016361475,-4.999999873689376e-05,-6.421999931335449
6669.320606417505,1352913.0,0.0017500000540167093,-0.000539999979082495,0.005630000028759241,-6.4120001792907715
6669.321606189428,1352914.0,0.0037700000684708357,-0.005090000107884407,-0.006990000139921904,-6.4029998779296875
6669.322605961351,1352915.0,0.004040000028908253,-0.004720000084489584,-0.005539999809116125,-6.418000221252441
6669.323605733273,1352916.0,0.0035000001080334187,-0.003449999960139394,-0.0027199999894946814,-6.451000213623047
6669.324605505196,1352917.0,0.0034099998883903027,0.0020000000949949026,0.0006399999838322401,-6.414999961853027
6669.325605277119,1352918.0,0.0024300001095980406,0.004720000084489584,-0.001449999981559813,-6.443999767303467
6669.326605049042,1352919.0,0.0006300000241026282,0.005179999861866236,-0.001449999981559813,-6.439000129699707
6669.327604820965,1352920.0,-0.0013500000350177288,0.005040000192821026,-0.0020000000949949026,-6.427000045776367
6669.328604592887,1352921.0,-0.0033199999015778303,-0.004269999917596579,-0.005270000081509352,-6.421999931335449
6669.32960436481,1352922.0,-0.0037700000684708357,0.0033599999733269215,-0.003220000071451068,-6.389999866485596
6669.330604136732,1352923.0,-0.003590000094845891,0.003220000071451068,-0.002859999891370535,-6.414999961853027
6669.331603908656,1352924.0,-0.0030499999411404133,9.000000136438757e-05,-0.008630000054836273,-6.38100004196167
6669.332603680578,1352925.0,-0.0023399998899549246,-0.0006399999838322401,0.001180000021122396,-6.38100004196167
6669.333603452501,1352926.0,-0.0035000001080334187,0.0019099999917671084,0.003449999960139394,-6.366000175476074
6669.3346032244235,1352927.0,-0.005570000037550926,-0.007809999864548445,-0.003000000026077032,-6.400000095367432
6669.335602996346,1352928.0,-0.006779999937862158,0.003449999960139394,-0.005900000222027302,-6.38700008392334
6669.33660276827,1352929.0,-0.006649999879300594,0.0027199999894946814,-0.005630000028759241,-6.408999919891357
6669.337602540192,1352930.0,-0.005570000037550926,-0.0051299999468028545,-0.005590000189840794,-6.366000175476074
6669.338602312115,1352931.0,-0.0030499999411404133,0.001820000004954636,-0.004449999891221523,-6.354000091552734
6669.339602084037,1352932.0,-0.0003600000054575503,0.0003600000054575503,0.002409999957308173,-6.3520002365112305
6669.34060185596,1352933.0,0.0016199999954551458,-0.000539999979082495,-0.003220000071451068,-6.400000095367432
6669.3416016278825,1352934.0,0.0027000000700354576,-0.005179999861866236,-0.00418000016361475,-6.363999843597412
6669.342601399806,1352935.0,0.003280000062659383,0.0020000000949949026,-0.004089999943971634,-6.38700008392334
6669.343601171729,1352936.0,0.002520000096410513,-0.0007300000288523734,-0.0007699999841861427,-6.348999977111816
6669.344600943651,1352937.0,0.00215999991632998,0.00044999999227002263,-0.005179999861866236,-6.3480000495910645
6669.345600715574,1352938.0,0.000539999979082495,0.003909999970346689,0.0010400000028312206,-6.348999977111816
6669.346600487496,1352939.0,-0.0028800000436604023,-0.000859999970998615,-0.004269999917596579,-6.328999996185303
6669.34760025942,1352940.0,-0.0048500001430511475,-0.00535999983549118,-0.0027199999894946814,-6.34499979019165
6669.348600031342,1352941.0,-0.0065100002102553844,0.0021800000686198473,-0.0044999998062849045,-6.377999782562256
6669.349599803265,1352942.0,-0.006020000204443932,-9.000000136438757e-05,-0.0003600000054575503,-6.335000038146973
6669.3505995751875,1352943.0,-0.004490000195801258,0.0013200000394135714,-0.003449999960139394,-6.3480000495910645
6669.35159934711,1352944.0,-0.004490000195801258,0.004629999864846468,-0.0020000000949949026,-6.3420000076293945
6669.352599119034,1352945.0,-0.003590000094845891,-0.0007300000288523734,-0.004449999891221523,-6.335000038146973
6669.353598890956,1352946.0,-0.0037700000684708357,-0.0063599999994039536,-0.00018000000272877514,-6.326000213623047
6669.354598662879,1352947.0,-0.005570000037550926,-0.0011399999493733048,-0.0010900000343099236,-6.354000091552734
6669.355598434801,1352948.0,-0.00773000018671155,-0.00418000016361475,0.004269999917596579,-6.326000213623047
6669.356598206724,1352949.0,-0.01131999958306551,-0.002360000042244792,-0.003449999960139394,-6.308000087738037
6669.357597978647,1352950.0,-0.017430000007152557,-9.000000136438757e-05,0.0020000000949949026,-6.304999828338623
6669.35859775057,1352951.0,-0.022460000589489937,-0.00044999999227002263,-0.002630000002682209,-6.289999961853027
6669.359597522493,1352952.0,-0.02525000087916851,-0.0036299999337643385,-0.0022700000554323196,-6.304999828338623
6669.360597294415,1352953.0,-0.027089999988675117,0.0051299999468028545,-0.004360000137239695,-6.324999809265137
6669.361597066338,1352954.0,-0.03027999959886074,-0.004809999838471413,0.0030900000128895044,-6.304999828338623
6669.36259683826,1352955.0,-0.030729999765753746,-0.0025400000158697367,-0.00018000000272877514,-6.328999996185303
6669.363596610184,1352956.0,-0.03058999963104725,0.000910000002477318,-0.0024500000290572643,-6.322999954223633
6669.364596382106,1352957.0,-0.030910000205039978,-0.004089999943971634,-0.005179999861866236,-6.283999919891357
6669.365596154029,1352958.0,-0.02986999973654747,-0.007079999893903732,-0.005179999861866236,-6.314000129699707
6669.3665959259515,1352959.0,-0.028209999203681946,-0.003809999907389283,-0.005400000140070915,-6.289999961853027
6669.367595697874,1352960.0,-0.027400000020861626,-0.0006399999838322401,0.0010000000474974513,-6.26800012588501
6669.368595469798,1352961.0,-0.02694999985396862,-0.004360000137239695,-0.0012700000079348683,-6.267000198364258
6669.36959524172,1352962.0,-0.02785000018775463,-0.0010000000474974513,-0.006719999946653843,-6.264999866485596
6669.370595013643,1352963.0,-0.02986999973654747,-0.004809999838471413,-0.004900000058114529,-6.263999938964844
6669.371594785565,1352964.0,-0.031449999660253525,-0.0083600003272295,-4.999999873689376e-05,-6.26200008392334
6669.372594557488,1352965.0,-0.033240001648664474,0.003860000055283308,0.004449999891221523,-6.25600004196167
6669.3735943294105,1352966.0,-0.03539999946951866,0.00044999999227002263,-0.0036299999337643385,-6.25600004196167
6669.374594101334,1352967.0,-0.036389999091625214,-0.006899999920278788,0.00018000000272877514,-6.238999843597412
6669.375593873257,1352968.0,-0.037379998713731766,0.004000000189989805,-0.007809999864548445,-6.25
6669.376593645179,1352969.0,-0.039170000702142715,-0.005270000081509352,-0.003000000026077032,-6.26800012588501
6669.377593417102,1352970.0,-0.03953000158071518,-0.00795000046491623,-0.005179999861866236,-6.22599983215332
6669.378593189024,1352971.0,-0.03678999841213226,0.007079999893903732,-0.0025400000158697367,-6.264999866485596
6669.379592960948,1352972.0,-0.03711000084877014,-0.00018000000272877514,-0.004999999888241291,-6.252999782562256
6669.38059273287,1352973.0,-0.035760000348091125,-0.005590000189840794,9.000000136438757e-05,-6.241000175476074
6669.381592504793,1352974.0,-0.03288000077009201,-0.0027199999894946814,-0.0010900000343099236,-6.248000144958496
6669.3825922767155,1352975.0,-0.030640000477433205,-0.007449999917298555,-0.00044999999227002263,-6.206999778747559
6669.383592048638,1352976.0,-0.03189999982714653,-0.002950000111013651,0.0012700000079348683,-6.23199987411499
6669.384591820562,1352977.0,-0.03162999823689461,0.002090000081807375,0.003809999907389283,-6.216000080108643
6669.385591592484,1352978.0,-0.029740000143647194,0.002360000042244792,-0.0016299999551847577,-6.203999996185303
6669.386591364407,1352979.0,-0.027130000293254852,-0.0002699999895412475,-0.004089999943971634,-6.197999954223633
6669.387591136329,1352980.0,-0.02281999960541725,-0.0036299999337643385,0.0020000000949949026,-6.179999828338623
6669.388590908252,1352981.0,-0.019540000706911087,-0.005090000107884407,0.0020000000949949026,-6.218999862670898
6669.389590680175,1352982.0,-0.01549999974668026,-0.004900000058114529,0.0036800000816583633,-6.195000171661377
6669.390590452098,1352983.0,-0.011049999855458736,-0.0002699999895412475,-0.000539999979082495,-6.201000213623047
6669.391590224021,1352984.0,-0.00773000018671155,-0.00031999999191612005,-0.00044999999227002263,-6.195000171661377
6669.392589995943,1352985.0,-0.0048500001430511475,0.0027199999894946814,-0.00571999978274107,-6.195000171661377
6669.393589767866,1352986.0,-0.0014400000218302011,-0.0024999999441206455,0.004720000084489584,-6.1579999923706055
6669.394589539788,1352987.0,0.0018400000408291817,-0.002859999891370535,0.002360000042244792,-6.181000232696533
6669.395589311712,1352988.0,0.006289999932050705,0.003860000055283308,0.0019099999917671084,-6.1579999923706055
6669.396589083634,1352989.0,0.015359999611973763,-0.005090000107884407,-0.006089999806135893,-6.195000171661377
6669.397588855557,1352990.0,0.029109999537467957,0.001449999981559813,0.003909999970346689,-6.168000221252441
6669.3985886274795,1352991.0,0.043710000813007355,0.003539999946951866,-0.004089999943971634,-6.185999870300293
6669.399588399402,1352992.0,0.055390000343322754,0.00044999999227002263,0.000539999979082495,-6.144999980926514
6669.400588171326,1352993.0,0.06559000164270401,-0.005090000107884407,0.000539999979082495,-6.1579999923706055
6669.401587943248,1352994.0,0.0737600028514862,0.0027199999894946814,0.001180000021122396,-6.110000133514404
6669.402587715171,1352995.0,0.07996000349521637,-0.008449999615550041,0.0027199999894946814,-6.132999897003174
6669.403587487093,1352996.0,0.08570999652147293,-0.0030900000128895044,-0.000539999979082495,-6.145999908447266
6669.404587259016,1352997.0,0.08975999802350998,0.0017300000181421638,-0.0063599999994039536,-6.15500020980835
6669.405587030939,1352998.0,0.09307999908924103,-0.004449999891221523,-0.0059899999760091305,-6.122000217437744
6669.406586802862,1352999.0,0.09447000175714493,-0.004000000189989805,-0.0015899999998509884,-6.145999908447266
6669.407586574785,1353000.0,0.09145999699831009,0.002589999930933118,-0.004000000189989805,-6.090000152587891
6669.408586346707,1353001.0,0.09047000110149384,-0.004540000110864639,0.0020000000949949026,-6.0879998207092285
6669.40958611863,1353002.0,0.09055999666452408,-0.002360000042244792,-0.0006399999838322401,-6.072999954223633
6669.410585890553,1353003.0,0.09200000017881393,-0.0021800000686198473,-0.0007300000288523734,-6.070000171661377
6669.411585662476,1353004.0,0.0919099971652031,-0.0028200000524520874,-0.004360000137239695,-6.081999778747559
6669.412585434398,1353005.0,0.09064999967813492,-0.004540000110864639,-0.006630000192672014,-6.122000217437744
6669.413585206321,1353006.0,0.08777999877929688,-0.003000000026077032,-0.005900000222027302,-6.078999996185303
6669.4145849782435,1353007.0,0.08534999936819077,-0.0012700000079348683,-0.00031999999191612005,-6.072999954223633
6669.415584750166,1353008.0,0.08247999846935272,-0.003220000071451068,-0.0024999999441206455,-6.078999996185303
6669.41658452209,1353009.0,0.07897000014781952,0.005770000163465738,0.003269999986514449,-6.058000087738037
6669.417584294012,1353010.0,0.07511000335216522,0.003269999986514449,-0.0014100000262260437,-6.0879998207092285
6669.418584065935,1353011.0,0.07161000370979309,-0.00041000000783242285,-0.0016299999551847577,-6.048999786376953
6669.419583837857,1353012.0,0.06774000078439713,-0.004540000110864639,-0.007670000195503235,-6.070000171661377
6669.42058360978,1353013.0,0.06477999687194824,-0.004000000189989805,0.004360000137239695,-6.054999828338623
6669.421583381703,1353014.0,0.061500001698732376,-0.0005000000237487257,-0.0021800000686198473,-6.067999839782715
6669.422583153626,1353015.0,0.05785999819636345,0.003539999946951866,0.0036299999337643385,-6.0320000648498535
6669.4235829255485,1353016.0,0.05341000109910965,0.001449999981559813,0.0030900000128895044,-6.048999786376953
6669.424582697471,1353017.0,0.04879000037908554,0.0002699999895412475,0.002950000111013651,-6.020999908447266
6669.425582469394,1353018.0,0.04267999902367592,-0.005040000192821026,-0.00418000016361475,-6.041999816894531
6669.426582241316,1353019.0,0.03756000101566315,-0.0033599999733269215,-0.001820000004954636,-6.039000034332275
6669.42758201324,1353020.0,0.03189999982714653,-0.0020000000949949026,-0.0083600003272295,-6.02400016784668
6669.428581785162,1353021.0,0.025790000334382057,-0.00018000000272877514,0.00018000000272877514,-6.035999774932861
6669.429581557085,1353022.0,0.020889999344944954,0.004900000058114529,-0.0012700000079348683,-5.984000205993652
6669.4305813290075,1353023.0,0.014910000376403332,0.000910000002477318,-0.003719999920576811,-5.99399995803833
6669.43158110093,1353024.0,0.010599999688565731,-0.005630000028759241,0.0007300000288523734,-5.974999904632568
6669.432580872854,1353025.0,0.006829999852925539,-0.0022700000554323196,0.009309999644756317,-5.997000217437744
6669.433580644776,1353026.0,0.002520000096410513,0.004449999891221523,-0.00018000000272877514,-6.01800012588501
6669.434580416699,1353027.0,-0.0017500000540167093,-0.00418000016361475,-0.004540000110864639,-5.9720001220703125
6669.435580188621,1353028.0,-0.0048500001430511475,-0.006219999864697456,-0.00571999978274107,-6.013000011444092
6669.436579960544,1353029.0,-0.008449999615550041,0.0006799999973736703,-0.004360000137239695,-5.947999954223633
6669.437579732467,1353030.0,-0.01221999991685152,-0.005630000028759241,0.0020000000949949026,-5.966000080108643
6669.43857950439,1353031.0,-0.01508999988436699,0.003269999986514449,-0.002360000042244792,-5.980000019073486
6669.4395792763125,1353032.0,-0.01761000044643879,0.000910000002477318,-0.004629999864846468,-5.978000164031982
6669.440579048235,1353033.0,-0.01899999938905239,-0.004449999891221523,-0.004410000052303076,-5.947999954223633
6669.441578820158,1353034.0,-0.02102000080049038,-0.005630000028759241,-0.0029100000392645597,-5.9720001220703125
6669.442578592081,1353035.0,-0.023180000483989716,-0.00014000000373926014,-0.0036299999337643385,-5.9070000648498535
6669.443578364004,1353036.0,-0.025609999895095825,-0.003000000026077032,0.005270000081509352,-5.922999858856201
6669.444578135926,1353037.0,-0.0258799996227026,-0.0022299999836832285,-0.0036800000816583633,-5.960000038146973
6669.445577907849,1353038.0,-0.026590000838041306,0.0016299999551847577,-0.0022700000554323196,-5.953999996185303
6669.4465776797715,1353039.0,-0.02686000056564808,0.0020000000949949026,0.0007300000288523734,-5.88700008392334
6669.447577451694,1353040.0,-0.02703999914228916,-0.0036800000816583633,0.00418000016361475,-5.8979997634887695
6669.448577223618,1353041.0,-0.028030000627040863,-0.0029100000392645597,0.000910000002477318,-5.927000045776367
6669.44957699554,1353042.0,-0.026319999247789383,-0.00018000000272877514,-0.0008200000156648457,-5.90500020980835
6669.450576767463,1353043.0,-0.024620000272989273,0.0035000001080334187,-0.003449999960139394,-5.877999782562256
6669.451576539385,1353044.0,-0.02353999949991703,-0.0022700000554323196,0.003590000094845891,-5.877999782562256
6669.452576311308,1353045.0,-0.02353999949991703,0.001820000004954636,0.0031799999997019768,-5.895999908447266
6669.453576083231,1353046.0,-0.02345000021159649,0.0021800000686198473,0.0019099999917671084,-5.853000164031982
6669.454575855154,1353047.0,-0.022280000150203705,-0.003449999960139394,0.004540000110864639,-5.872000217437744
6669.4555756270765,1353048.0,-0.021379999816417694,0.0028200000524520874,-0.0025400000158697367,-5.859000205993652
6669.456575398999,1353049.0,-0.02151999995112419,0.0031799999997019768,0.0012700000079348683,-5.8470001220703125
6669.457575170922,1353050.0,-0.021199999377131462,0.0016299999551847577,-0.006130000110715628,-5.848999977111816
6669.458574942844,1353051.0,-0.020749999210238457,0.0033599999733269215,-0.009399999864399433,-5.877999782562256
6669.459574714768,1353052.0,-0.021199999377131462,0.005770000163465738,-0.006630000192672014,-5.827000141143799
6669.46057448669,1353053.0,-0.020659999921917915,-0.001180000021122396,-0.00044999999227002263,-5.827000141143799
6669.461574258613,1353054.0,-0.01940999925136566,0.00018000000272877514,-0.005859999917447567,-5.816999912261963
6669.4625740305355,1353055.0,-0.020659999921917915,0.005770000163465738,0.003590000094845891,-5.810999870300293
6669.463573802458,1353056.0,-0.020659999921917915,-0.004540000110864639,-0.0030900000128895044,-5.800000190734863
6669.464573574382,1353057.0,-0.020570000633597374,-0.0007699999841861427,-0.00044999999227002263,-5.843999862670898
6669.465573346304,1353058.0,-0.022099999710917473,0.0016299999551847577,0.0031799999997019768,-5.7769999504089355
6669.466573118227,1353059.0,-0.021379999816417694,-0.006310000084340572,0.004809999838471413,-5.814000129699707
6669.467572890149,1353060.0,-0.020840000361204147,-0.005270000081509352,-0.0020000000949949026,-5.823999881744385
6669.468572662072,1353061.0,-0.019500000402331352,-0.0018599999602884054,0.0002699999895412475,-5.788000106811523
6669.469572433995,1353062.0,-0.018279999494552612,0.0006399999838322401,-0.004860000219196081,-5.791999816894531
6669.470572205918,1353063.0,-0.01671000011265278,-0.0005000000237487257,-0.004449999891221523,-5.872000217437744
6669.4715719778405,1353064.0,-0.016259999945759773,0.003449999960139394,-0.006310000084340572,-5.76200008392334
6669.472571749763,1353065.0,-0.015540000051259995,0.0009500000160187483,-0.001180000021122396,-5.718999862670898
6669.473571521686,1353066.0,-0.01671000011265278,-0.00535999983549118,-0.004540000110864639,-5.718999862670898
6669.474571293609,1353067.0,-0.018780000507831573,-0.0014100000262260437,-0.0025400000158697367,-5.710999965667725
6669.475571065532,1353068.0,-0.02012999914586544,0.00018000000272877514,-0.005590000189840794,-5.76800012588501
6669.476570837454,1353069.0,-0.02133999951183796,0.002360000042244792,-0.003269999986514449,-5.716000080108643
6669.477570609377,1353070.0,-0.021740000694990158,-0.005270000081509352,-0.00571999978274107,-5.760000228881836
6669.4785703812995,1353071.0,-0.02102000080049038,0.0051299999468028545,0.00571999978274107,-5.706999778747559
6669.479570153222,1353072.0,-0.019859999418258667,-0.004089999943971634,-0.0025400000158697367,-5.701000213623047
6669.480569925146,1353073.0,-0.01860000006854534,-0.00798999983817339,0.001820000004954636,-5.695000171661377
6669.481569697068,1353074.0,-0.0185100007802248,0.002360000042244792,-0.00041000000783242285,-5.660999774932861
6669.482569468991,1353075.0,-0.018459999933838844,0.0007300000288523734,-0.0028200000524520874,-5.691999912261963
6669.483569240913,1353076.0,-0.01779000088572502,-0.005630000028759241,0.0,-5.718999862670898
6669.484569012836,1353077.0,-0.0175199992954731,0.0012700000079348683,0.0010900000343099236,-5.701000213623047
6669.485568784759,1353078.0,-0.017430000007152557,0.0012700000079348683,-0.0030900000128895044,-5.704999923706055
6669.486568556682,1353079.0,-0.0185100007802248,0.003860000055283308,-0.0016299999551847577,-5.703999996185303
6669.4875683286045,1353080.0,-0.01923000067472458,-0.0022700000554323196,-0.006719999946653843,-5.645999908447266
6669.488568100527,1353081.0,-0.01860000006854534,-0.004360000137239695,-0.005489999894052744,-5.684999942779541
6669.48956787245,1353082.0,-0.01841999962925911,-0.0027199999894946814,-0.0063599999994039536,-5.609000205993652
6669.490567644373,1353083.0,-0.01761000044643879,-0.004449999891221523,0.000910000002477318,-5.609000205993652
6669.491567416296,1353084.0,-0.016939999535679817,-0.00018000000272877514,-0.0024500000290572643,-5.609000205993652
6669.492567188218,1353085.0,-0.01689000055193901,-0.000910000002477318,0.0014100000262260437,-5.593999862670898
6669.493566960141,1353086.0,-0.015809999778866768,-0.005630000028759241,0.0030900000128895044,-5.63700008392334
6669.4945667320635,1353087.0,-0.013299999758601189,-0.003449999960139394,0.003000000026077032,-5.5970001220703125
6669.495566503987,1353088.0,-0.011230000294744968,0.0012700000079348683,0.003449999960139394,-5.585000038146973
6669.49656627591,1353089.0,-0.00930000003427267,-0.001449999981559813,0.0030900000128895044,-5.591000080108643
6669.497566047832,1353090.0,-0.006560000125318766,-0.004360000137239695,-0.006899999920278788,-5.576000213623047
6669.498565819755,1353091.0,-0.005929999984800816,-0.004809999838471413,0.000590000010561198,-5.576000213623047
6669.499565591677,1353092.0,-0.006289999932050705,-0.003809999907389283,0.00018000000272877514,-5.614999771118164
6669.5005653636,1353093.0,-0.00773000018671155,0.005270000081509352,-0.0033599999733269215,-5.541999816894531
6669.501565135523,1353094.0,-0.00872000027447939,0.0028200000524520874,-0.005090000107884407,-5.6020002365112305
6669.502564907446,1353095.0,-0.00872000027447939,0.000539999979082495,0.0027199999894946814,-5.552999973297119
6669.5035646793685,1353096.0,-0.0088900001719594,0.0029100000392645597,0.00018000000272877514,-5.535999774932861
6669.504564451291,1353097.0,-0.009879999794065952,-0.005900000222027302,-0.00018000000272877514,-5.571000099182129
6669.505564223214,1353098.0,-0.011140000075101852,0.00418000016361475,-0.0016299999551847577,-5.501999855041504
6669.506563995137,1353099.0,-0.010870000347495079,0.0002300000051036477,-0.0030900000128895044,-5.535999774932861
6669.50756376706,1353100.0,-0.010780000127851963,-0.005400000140070915,-0.0012700000079348683,-5.4730000495910645
6669.508563538982,1353101.0,-0.010870000347495079,-0.0036299999337643385,0.004000000189989805,-5.479000091552734
6669.509563310905,1353102.0,-0.011950000189244747,0.001769999973475933,-0.0013200000394135714,-5.4629998207092285
6669.5105630828275,1353103.0,-0.015720000490546227,-0.0010000000474974513,0.0021299999207258224,-5.499000072479248
6669.51156285475,1353104.0,-0.019179999828338623,0.003719999920576811,0.003449999960139394,-5.46999979019165
6669.512562626674,1353105.0,-0.019770000129938126,-9.000000136438757e-05,0.00803999975323677,-5.498000144958496
6669.513562398596,1353106.0,-0.018149999901652336,-0.004679999779909849,0.001820000004954636,-5.456999778747559
6669.514562170519,1353107.0,-0.014820000156760216,-0.004449999891221523,0.005450000055134296,-5.456999778747559
6669.515561942441,1353108.0,-0.012760000303387642,-0.004449999891221523,-0.0025400000158697367,-5.449999809265137
6669.516561714364,1353109.0,-0.012400000356137753,0.003949999809265137,-0.003719999920576811,-5.438000202178955
6669.517561486287,1353110.0,-0.012760000303387642,-0.004720000084489584,-0.0007699999841861427,-5.458000183105469
6669.51856125821,1353111.0,-0.014059999957680702,-0.0012700000079348683,-0.004040000028908253,-5.394000053405762
6669.5195610301325,1353112.0,-0.015629999339580536,-4.999999873689376e-05,0.001180000021122396,-5.39900016784668
6669.520560802055,1353113.0,-0.017430000007152557,-0.009080000221729279,0.004540000110864639,-5.4019999504089355
6669.521560573978,1353114.0,-0.01800999976694584,-0.00571999978274107,-0.0031799999997019768,-5.4019999504089355
6669.522560345901,1353115.0,-0.019950000569224358,-0.0063599999994039536,-0.006630000192672014,-5.426000118255615
6669.523560117824,1353116.0,-0.01940999925136566,-0.001820000004954636,-0.0003600000054575503,-5.40500020980835
6669.524559889746,1353117.0,-0.0185100007802248,-0.003269999986514449,0.0029100000392645597,-5.349999904632568
6669.525559661669,1353118.0,-0.016349999234080315,-0.004129999782890081,-0.002859999891370535,-5.359000205993652
6669.5265594335915,1353119.0,-0.015629999339580536,0.004089999943971634,-0.0003600000054575503,-5.328000068664551
6669.527559205515,1353120.0,-0.0147299999371171,-0.0030900000128895044,-0.004000000189989805,-5.375999927520752
6669.528558977438,1353121.0,-0.0142000000923872,-0.002360000042244792,-0.000859999970998615,-5.315999984741211
6669.52955874936,1353122.0,-0.014550000429153442,-0.00418000016361475,-0.002630000002682209,-5.313000202178955
6669.530558521283,1353123.0,-0.014910000376403332,-0.00535999983549118,0.0002300000051036477,-5.313000202178955
6669.531558293205,1353124.0,-0.015720000490546227,-0.004129999782890081,0.001449999981559813,-5.318999767303467
6669.532558065128,1353125.0,-0.016349999234080315,0.0036800000816583633,0.0021299999207258224,-5.285999774932861
6669.533557837051,1353126.0,-0.01631000079214573,-0.0063599999994039536,0.0030900000128895044,-5.315999984741211
6669.534557608974,1353127.0,-0.016349999234080315,0.00044999999227002263,-0.0025400000158697367,-5.265999794006348
6669.5355573808965,1353128.0,-0.014820000156760216,4.999999873689376e-05,-0.004269999917596579,-5.291999816894531
6669.536557152819,1353129.0,-0.01384000014513731,0.0017300000181421638,-0.002360000042244792,-5.267000198364258
6669.537556924742,1353130.0,-0.01257999986410141,0.0028200000524520874,0.001500000013038516,-5.289000034332275
6669.538556696665,1353131.0,-0.010870000347495079,-0.0036800000816583633,-0.00031999999191612005,-5.243000030517578
6669.539556468588,1353132.0,-0.008630000054836273,0.000910000002477318,-0.0016299999551847577,-5.291999816894531
6669.54055624051,1353133.0,-0.00800000037997961,-0.0019099999917671084,-0.001449999981559813,-5.243000030517578
6669.541556012433,1353134.0,-0.007189999800175428,-0.00418000016361475,0.0027199999894946814,-5.209000110626221
6669.5425557843555,1353135.0,-0.005350000225007534,0.003449999960139394,0.000539999979082495,-5.267000198364258
6669.543555556279,1353136.0,-0.005570000037550926,0.00044999999227002263,-0.002090000081807375,-5.230999946594238
6669.544555328202,1353137.0,-0.006560000125318766,0.0010900000343099236,0.0028200000524520874,-5.172999858856201
6669.545555100124,1353138.0,-0.006200000178068876,-0.000910000002477318,0.0016299999551847577,-5.188000202178955
6669.546554872047,1353139.0,-0.005710000172257423,-0.006990000139921904,0.003539999946951866,-5.23199987411499
6669.547554643969,1353140.0,-0.007369999773800373,-0.0030900000128895044,-0.0033199999015778303,-5.230999946594238
6669.548554415893,1353141.0,-0.0083600003272295,0.004269999917596579,-0.003809999907389283,-5.209000110626221
6669.549554187815,1353142.0,-0.010599999688565731,0.0012700000079348683,-0.0016299999551847577,-5.214000225067139
6669.550553959738,1353143.0,-0.013299999758601189,-0.004360000137239695,-0.0016299999551847577,-5.151000022888184
6669.5515537316605,1353144.0,-0.017069999128580093,0.000910000002477318,0.000539999979082495,-5.118000030517578
6669.552553503583,1353145.0,-0.018869999796152115,0.0002300000051036477,0.004900000058114529,-5.160999774932861
6669.553553275506,1353146.0,-0.0185100007802248,0.003220000071451068,-0.0036299999337643385,-5.170000076293945
6669.554553047429,1353147.0,-0.015990000218153,0.004679999779909849,0.0010000000474974513,-5.138999938964844
6669.555552819352,1353148.0,-0.014550000429153442,0.0033599999733269215,0.0030900000128895044,-5.111999988555908
6669.556552591274,1353149.0,-0.014109999872744083,-0.000910000002477318,-0.004360000137239695,-5.132999897003174
6669.557552363197,1353150.0,-0.014290000312030315,0.0015399999683722854,-0.004000000189989805,-5.070000171661377
6669.5585521351195,1353151.0,-0.014550000429153442,-0.004720000084489584,0.003220000071451068,-5.109000205993652
6669.559551907043,1353152.0,-0.014419999904930592,-0.004629999864846468,0.000910000002477318,-5.045000076293945
6669.560551678966,1353153.0,-0.013120000250637531,-0.0019099999917671084,-0.004900000058114529,-5.026000022888184
6669.561551450888,1353154.0,-0.012439999729394913,0.004900000058114529,0.002360000042244792,-5.019000053405762
6669.562551222811,1353155.0,-0.012670000083744526,0.0028200000524520874,0.002360000042244792,-5.170000076293945
6669.563550994733,1353156.0,-0.013209999538958073,0.0019099999917671084,-0.005450000055134296,-5.047999858856201
6669.564550766656,1353157.0,-0.013120000250637531,0.003220000071451068,-0.0027199999894946814,-5.078000068664551
6669.565550538579,1353158.0,-0.01348000019788742,0.00418000016361475,-0.0018599999602884054,-4.999000072479248
6669.566550310502,1353159.0,-0.013120000250637531,-0.005859999917447567,-0.00014000000373926014,-5.047999858856201
6669.5675500824245,1353160.0,-0.011590000241994858,0.00018000000272877514,-0.00031999999191612005,-4.995999813079834
6669.568549854347,1353161.0,-0.009700000286102295,-0.0033599999733269215,-0.0019099999917671084,-5.015999794006348
6669.56954962627,1353162.0,-0.00839999970048666,-0.00418000016361475,0.0015399999683722854,-4.993000030517578
6669.570549398193,1353163.0,-0.006289999932050705,-0.0027199999894946814,-0.003449999960139394,-4.928999900817871
6669.571549170116,1353164.0,-0.006560000125318766,-0.0030900000128895044,-0.006719999946653843,-4.949999809265137
6669.572548942038,1353165.0,-0.005570000037550926,0.00535999983549118,0.0002699999895412475,-4.949999809265137
6669.573548713961,1353166.0,-0.006920000072568655,-0.0036299999337643385,0.001820000004954636,-4.973999977111816
6669.5745484858835,1353167.0,-0.008270000107586384,-0.0019499999471008778,-0.005900000222027302,-4.89300012588501
6669.575548257807,1353168.0,-0.008539999835193157,-0.004720000084489584,0.004540000110864639,-4.9070000648498535
6669.57654802973,1353169.0,-0.010239999741315842,-0.006990000139921904,-0.0020000000949949026,-4.913000106811523
6669.577547801652,1353170.0,-0.011459999717772007,0.00031999999191612005,-0.004410000052303076,-4.892000198364258
6669.578547573575,1353171.0,-0.010870000347495079,-0.003000000026077032,-0.008270000107586384,-4.894999980926514
6669.579547345497,1353172.0,-0.010599999688565731,-0.0007300000288523734,0.0021800000686198473,-4.909999847412109
6669.580547117421,1353173.0,-0.010780000127851963,-0.002630000002682209,-0.0021800000686198473,-4.857999801635742
6669.581546889343,1353174.0,-0.010780000127851963,-0.006219999864697456,0.003909999970346689,-4.8520002365112305
6669.582546661266,1353175.0,-0.01051000040024519,-0.003809999907389283,-0.004089999943971634,-4.848999977111816
6669.5835464331885,1353176.0,-0.010239999741315842,-0.00018000000272877514,0.0012700000079348683,-4.818999767303467
6669.584546205111,1353177.0,-0.010780000127851963,-0.0059899999760091305,-0.00418000016361475,-4.790999889373779
6669.585545977034,1353178.0,-0.010599999688565731,-0.000910000002477318,-0.004900000058114529,-4.798999786376953
6669.586545748957,1353179.0,-0.01092000026255846,-0.0007300000288523734,-0.0033599999733269215,-4.864999771118164
6669.58754552088,1353180.0,-0.01131999958306551,-0.001180000021122396,0.0016299999551847577,-4.828000068664551
6669.588545292802,1353181.0,-0.012040000408887863,0.0016299999551847577,-0.003220000071451068,-4.790999889373779
6669.589545064725,1353182.0,-0.010599999688565731,-0.007360000163316727,-0.006630000192672014,-4.742000102996826
6669.5905448366475,1353183.0,-0.010200000368058681,0.0035000001080334187,0.001500000013038516,-4.802000045776367
6669.591544608571,1353184.0,-0.008630000054836273,-0.003449999960139394,0.0030900000128895044,-4.7270002365112305
6669.592544380494,1353185.0,-0.007550000213086605,0.0017300000181421638,0.0024500000290572643,-4.738999843597412
6669.593544152416,1353186.0,-0.008089999668300152,0.0024999999441206455,-0.004540000110864639,-4.7270002365112305
6669.594543924339,1353187.0,-0.009069999679923058,-0.0030900000128895044,-0.0008200000156648457,-4.732999801635742
6669.595543696261,1353188.0,-0.009340000338852406,0.0027199999894946814,0.004629999864846468,-4.730000019073486
6669.596543468184,1353189.0,-0.0101500004529953,-0.0010900000343099236,-0.0005000000237487257,-4.665999889373779
6669.597543240107,1353190.0,-0.01131999958306551,-0.004720000084489584,-0.0020000000949949026,-4.749000072479248
6669.59854301203,1353191.0,-0.011859999969601631,0.0031799999997019768,-0.0005000000237487257,-4.681000232696533
6669.5995427839525,1353192.0,-0.01221999991685152,-0.0011399999493733048,0.0003600000054575503,-4.632999897003174
6669.600542555875,1353193.0,-0.011859999969601631,-0.0013599999947473407,0.001180000021122396,-4.688000202178955
6669.601542327798,1353194.0,-0.011409999802708626,-0.00267999991774559,-0.005900000222027302,-4.669000148773193
6669.602542099721,1353195.0,-0.012129999697208405,-0.006490000057965517,0.0024999999441206455,-4.6620001792907715
6669.603541871644,1353196.0,-0.012400000356137753,-0.004540000110864639,0.001180000021122396,-4.617000102996826
6669.604541643566,1353197.0,-0.012760000303387642,0.0025400000158697367,-0.007079999893903732,-4.65500020980835
6669.605541415489,1353198.0,-0.01348000019788742,-0.006180000025779009,0.0012700000079348683,-4.580999851226807
6669.6065411874115,1353199.0,-0.012040000408887863,-0.007360000163316727,0.0006399999838322401,-4.632999897003174
6669.607540959335,1353200.0,-0.012400000356137753,-0.002319999970495701,-0.002360000042244792,-4.644999980926514
6669.608540731258,1353201.0,-0.012489999644458294,-0.002360000042244792,-0.000539999979082495,-4.632999897003174
6669.60954050318,1353202.0,-0.011590000241994858,-0.0020000000949949026,-0.001820000004954636,-4.5289998054504395
6669.610540275103,1353203.0,-0.011370000429451466,0.003269999986514449,-0.0029100000392645597,-4.574999809265137
6669.611540047025,1353204.0,-0.010329999960958958,-0.0019099999917671084,-0.0003600000054575503,-4.566999912261963
6669.612539818949,1353205.0,-0.009519999846816063,-0.004000000189989805,0.004540000110864639,-4.500999927520752
6669.613539590871,1353206.0,-0.008799999952316284,-0.0010900000343099236,-0.002630000002682209,-4.546000003814697
6669.614539362794,1353207.0,-0.008089999668300152,-0.0031799999997019768,-0.004769999999552965,-4.53000020980835
6669.6155391347165,1353208.0,-0.008220000192523003,0.001820000004954636,0.003809999907389283,-4.455999851226807
6669.616538906639,1353209.0,-0.007550000213086605,0.005270000081509352,-0.010540000163018703,-4.468999862670898
6669.617538678562,1353210.0,-0.007189999800175428,0.004809999838471413,-0.0022700000554323196,-4.459000110626221
6669.618538450485,1353211.0,-0.00674000009894371,-0.005179999861866236,0.003220000071451068,-4.436999797821045
6669.619538222408,1353212.0,-0.006289999932050705,0.001820000004954636,0.0017300000181421638,-4.459000110626221
6669.62053799433,1353213.0,-0.004579999949783087,-0.004540000110864639,-0.0012700000079348683,-4.480000019073486
6669.621537766253,1353214.0,-0.005210000090301037,0.0027199999894946814,-0.003449999960139394,-4.375999927520752
6669.6225375381755,1353215.0,-0.005929999984800816,-0.004679999779909849,-0.0015399999683722854,-4.48199987411499
6669.623537310099,1353216.0,-0.005750000011175871,0.004720000084489584,0.0025400000158697367,-4.385000228881836
6669.624537082022,1353217.0,-0.006060000043362379,0.0010000000474974513,0.0007699999841861427,-4.4070000648498535
6669.625536853944,1353218.0,-0.008449999615550041,-0.008170000277459621,-0.006219999864697456,-4.419000148773193
6669.626536625867,1353219.0,-0.011500000022351742,-0.009170000441372395,-0.00418000016361475,-4.434000015258789
6669.627536397789,1353220.0,-0.011950000189244747,0.0007699999841861427,-0.007079999893903732,-4.3429999351501465
6669.628536169713,1353221.0,-0.011500000022351742,-0.007079999893903732,0.0028200000524520874,-4.290999889373779
6669.629535941635,1353222.0,-0.011049999855458736,0.0027199999894946814,0.006719999946653843,-4.369999885559082
6669.630535713558,1353223.0,-0.010239999741315842,-0.0006399999838322401,9.000000136438757e-05,-4.390999794006348
6669.6315354854805,1353224.0,-0.010060000233352184,-0.008630000054836273,-0.0019099999917671084,-4.373000144958496
6669.632535257403,1353225.0,-0.010420000180602074,-0.00571999978274107,0.004360000137239695,-4.254000186920166
6669.633535029327,1353226.0,-0.010239999741315842,0.005400000140070915,-0.0063599999994039536,-4.3520002365112305
6669.634534801249,1353227.0,-0.010780000127851963,-0.0007300000288523734,-0.010259999893605709,-4.269000053405762
6669.635534573172,1353228.0,-0.010599999688565731,0.005270000081509352,-0.007269999943673611,-4.2179999351501465
6669.636534345094,1353229.0,-0.009700000286102295,0.005859999917447567,-0.0014100000262260437,-4.2270002365112305
6669.637534117017,1353230.0,-0.007910000160336494,0.006180000025779009,-0.002589999930933118,-4.297999858856201
6669.6385338889395,1353231.0,-0.006560000125318766,0.002360000042244792,-0.0037700000684708357,-4.294000148773193
6669.639533660863,1353232.0,-0.005929999984800816,0.0002300000051036477,-0.004540000110864639,-4.197999954223633
6669.640533432786,1353233.0,-0.005570000037550926,-0.0063599999994039536,0.006719999946653843,-4.192999839782715
6669.641533204708,1353234.0,-0.004399999976158142,-0.002589999930933118,-0.0019099999917671084,-4.224999904632568
6669.642532976631,1353235.0,-0.004129999782890081,-0.0034099998883903027,0.000590000010561198,-4.129000186920166
6669.643532748553,1353236.0,-0.004579999949783087,-0.003000000026077032,-0.0012700000079348683,-4.14300012588501
6669.644532520477,1353237.0,-0.004129999782890081,0.0033599999733269215,-0.004000000189989805,-4.144000053405762
6669.645532292399,1353238.0,-0.004399999976158142,-0.004089999943971634,0.0030900000128895044,-4.125999927520752
6669.646532064322,1353239.0,-0.004220000002533197,0.000539999979082495,0.006180000025779009,-4.144000053405762
6669.6475318362445,1353240.0,-0.004129999782890081,-0.003809999907389283,-0.004860000219196081,-4.071000099182129
6669.648531608167,1353241.0,-0.004129999782890081,-0.001449999981559813,-0.002360000042244792,-4.140999794006348
6669.64953138009,1353242.0,-0.0048500001430511475,-0.00418000016361475,-0.004269999917596579,-4.083000183105469
6669.650531152013,1353243.0,-0.004490000195801258,-0.003590000094845891,0.0012700000079348683,-4.044000148773193
6669.651530923936,1353244.0,-0.0048500001430511475,-0.00018000000272877514,0.007809999864548445,-4.0370001792907715
6669.652530695858,1353245.0,-0.0034099998883903027,-0.005630000028759241,-0.003719999920576811,-4.03000020980835
6669.653530467781,1353246.0,-0.0017999999690800905,-0.004000000189989805,-0.004129999782890081,-4.083000183105469
6669.6545302397035,1353247.0,-0.0002699999895412475,-0.004629999864846468,0.001500000013038516,-4.019000053405762
6669.655530011627,1353248.0,-0.0002699999895412475,-0.001180000021122396,-0.003809999907389283,-4.078999996185303
6669.65652978355,1353249.0,-0.0012600000482052565,-0.006219999864697456,-0.00031999999191612005,-3.9790000915527344
6669.657529555472,1353250.0,-0.0034099998883903027,4.999999873689376e-05,-0.0016299999551847577,-3.992000102996826
6669.658529327395,1353251.0,-0.004720000084489584,-0.004410000052303076,-0.005450000055134296,-3.992000102996826
6669.659529099317,1353252.0,-0.004809999838471413,0.0029100000392645597,-0.0063599999994039536,-3.9119999408721924
6669.660528871241,1353253.0,-0.004939999897032976,-0.0034099998883903027,0.0002699999895412475,-3.9779999256134033
6669.661528643163,1353254.0,-0.004490000195801258,0.004999999888241291,0.000539999979082495,-3.9049999713897705
6669.662528415086,1353255.0,-0.00279000005684793,-0.0027199999894946814,-0.0010900000343099236,-3.859999895095825
6669.6635281870085,1353256.0,-0.0014400000218302011,-0.000910000002477318,0.002360000042244792,-3.859999895095825
6669.664527958931,1353257.0,-0.0014400000218302011,0.0030900000128895044,0.0036299999337643385,-3.864000082015991
6669.665527730855,1353258.0,-0.0008099999977275729,0.0020000000949949026,-0.003269999986514449,-3.869999885559082
6669.666527502777,1353259.0,0.0008999999845400453,-9.000000136438757e-05,0.0027199999894946814,-3.884999990463257
6669.6675272747,1353260.0,0.0023399998899549246,-0.0033199999015778303,0.0010900000343099236,-3.888000011444092
6669.668527046622,1353261.0,0.004000000189989805,-0.000910000002477318,-0.002630000002682209,-3.809000015258789
6669.669526818545,1353262.0,0.0052999998442828655,-0.0033199999015778303,-0.00686000008136034,-3.815000057220459
6669.6705265904675,1353263.0,0.006289999932050705,0.0031300000846385956,0.0028200000524520874,-3.875999927520752
6669.671526362391,1353264.0,0.006149999797344208,0.0,0.0019099999917671084,-3.7780001163482666
6669.672526134314,1353265.0,0.005570000037550926,0.0020000000949949026,-0.0013599999947473407,-3.753999948501587
6669.673525906236,1353266.0,0.005210000090301037,0.001180000021122396,-0.004860000219196081,-3.750999927520752
6669.674525678159,1353267.0,0.0052999998442828655,-0.009259999729692936,-0.0007699999841861427,-3.7899999618530273
6669.675525450081,1353268.0,0.0047599999234080315,0.005859999917447567,-0.000910000002477318,-3.7780001163482666
6669.676525222005,1353269.0,0.004129999782890081,-0.005450000055134296,0.0033599999733269215,-3.7260000705718994
6669.677524993927,1353270.0,0.0037700000684708357,0.00203999993391335,0.001820000004954636,-3.6740000247955322
6669.67852476585,1353271.0,0.003280000062659383,0.006719999946653843,-0.00418000016361475,-3.6530001163482666
6669.6795245377725,1353272.0,0.003229999914765358,0.0076299998909235,-0.005630000028759241,-3.680000066757202
6669.680524309695,1353273.0,0.0030499999411404133,-0.004089999943971634,-0.004000000189989805,-3.6619999408721924
6669.681524081619,1353274.0,0.0028800000436604023,0.0027199999894946814,0.006130000110715628,-3.7049999237060547
6669.682523853541,1353275.0,0.0015300000086426735,0.000910000002477318,0.006130000110715628,-3.6389999389648438
6669.683523625464,1353276.0,0.0002699999895412475,0.0002699999895412475,-0.0031799999997019768,-3.5950000286102295
6669.684523397386,1353277.0,0.0006300000241026282,0.000539999979082495,-0.0002699999895412475,-3.5829999446868896
6669.685523169309,1353278.0,0.0,0.005040000192821026,-0.0006799999973736703,-3.5769999027252197
6669.686522941232,1353279.0,-9.000000136438757e-05,-0.004310000222176313,-0.002360000042244792,-3.5429999828338623
6669.687522713155,1353280.0,-0.0002699999895412475,0.003269999986514449,0.005270000081509352,-3.630000114440918
6669.688522485078,1353281.0,-0.00044999999227002263,0.005450000055134296,0.0027199999894946814,-3.5160000324249268
6669.689522257,1353282.0,-0.0016199999954551458,0.0017300000181421638,-0.004769999999552965,-3.503000020980835
6669.690522028923,1353283.0,-0.0011699999449774623,-0.0016299999551847577,-0.0012700000079348683,-3.5220000743865967
6669.691521800845,1353284.0,-0.0011699999449774623,0.0021800000686198473,-0.007079999893903732,-3.615999937057495
6669.692521572769,1353285.0,-0.0017099999822676182,-0.003220000071451068,-0.000910000002477318,-3.50600004196167
6669.693521344691,1353286.0,-0.00215999991632998,0.004000000189989805,0.0016299999551847577,-3.441999912261963
6669.694521116614,1353287.0,-0.0014400000218302011,0.0013599999947473407,0.0030900000128895044,-3.4579999446868896
6669.6955208885365,1353288.0,-0.00044999999227002263,0.0016299999551847577,-0.003590000094845891,-3.444000005722046
6669.696520660459,1353289.0,0.00039999998989515007,-0.004089999943971634,-0.001230000052601099,-3.4579999446868896
6669.697520432383,1353290.0,0.0008999999845400453,0.0033199999015778303,-0.0016299999551847577,-3.4649999141693115
6669.698520204305,1353291.0,0.00215999991632998,-0.00795000046491623,-0.001820000004954636,-3.4760000705718994
6669.699519976228,1353292.0,0.003819999983534217,0.0025400000158697367,0.0030900000128895044,-3.3489999771118164
6669.70051974815,1353293.0,0.006380000151693821,0.0010000000474974513,0.0030900000128895044,-3.4760000705718994
6669.701519520073,1353294.0,0.007550000213086605,-0.0021299999207258224,-0.000539999979082495,-3.371999979019165
6669.7025192919955,1353295.0,0.008179999887943268,0.00031999999191612005,0.0030900000128895044,-3.313999891281128
6669.703519063919,1353296.0,0.011049999855458736,-0.00031999999191612005,-0.002360000042244792,-3.306999921798706
6669.704518835842,1353297.0,0.0088900001719594,-0.0016299999551847577,-0.003809999907389283,-3.2899999618530273
6669.705518607764,1353298.0,0.004269999917596579,-0.005090000107884407,-0.0062699997797608376,-3.2750000953674316
6669.706518379687,1353299.0,0.00215999991632998,0.001820000004954636,0.0,-3.4119999408721924
6669.707518151609,1353300.0,-0.0009899999713525176,0.0013599999947473407,-0.004310000222176313,-3.306999921798706
6669.708517923533,1353301.0,-0.006649999879300594,0.0027199999894946814,-0.0059899999760091305,-3.240999937057495
6669.709517695455,1353302.0,-0.012400000356137753,0.006490000057965517,-0.0036299999337643385,-3.234999895095825
6669.710517467378,1353303.0,-0.014109999872744083,-0.00044999999227002263,0.000910000002477318,-3.3389999866485596
6669.7115172393005,1353304.0,-0.012760000303387642,0.002360000042244792,0.001449999981559813,-3.2200000286102295
6669.712517011223,1353305.0,-0.010060000233352184,-0.0027199999894946814,-0.0011399999493733048,-3.259000062942505
6669.713516783147,1353306.0,-0.00800000037997961,0.001180000021122396,0.004040000028908253,-3.2360000610351562
6669.714516555069,1353307.0,-0.007459999993443489,-0.004769999999552965,-0.0021299999207258224,-3.2070000171661377
6669.715516326992,1353308.0,-0.007009999826550484,-0.0012700000079348683,9.000000136438757e-05,-3.1459999084472656
6669.716516098914,1353309.0,-0.005570000037550926,-0.001769999973475933,0.0,-3.265000104904175
6669.717515870837,1353310.0,-0.003949999809265137,-0.0030900000128895044,0.008310000412166119,-3.1679999828338623
6669.71851564276,1353311.0,-0.0021100000012665987,0.0029100000392645597,0.00018000000272877514,-3.197999954223633
6669.719515414683,1353312.0,-0.0027000000700354576,0.00018000000272877514,-0.003269999986514449,-3.11299991607666
6669.720515186606,1353313.0,-0.003949999809265137,-0.005040000192821026,-0.004089999943971634,-3.069999933242798
6669.721514958528,1353314.0,-0.0034099998883903027,0.0002300000051036477,-0.004089999943971634,-3.1010000705718994
6669.722514730451,1353315.0,-0.003229999914765358,0.0015399999683722854,0.0020000000949949026,-3.0329999923706055
6669.723514502373,1353316.0,-0.004490000195801258,-0.0033199999015778303,0.0030900000128895044,-3.1559998989105225
6669.724514274297,1353317.0,-0.0053900000639259815,0.000539999979082495,4.999999873689376e-05,-2.996999979019165
6669.725514046219,1353318.0,-0.004129999782890081,-0.003809999907389283,-0.001180000021122396,-2.990999937057495
6669.726513818142,1353319.0,-0.0033199999015778303,-0.0059899999760091305,-0.001449999981559813,-2.990999937057495
6669.7275135900645,1353320.0,-0.0030499999411404133,-0.0059899999760091305,-0.004629999864846468,-3.078000068664551
6669.728513361987,1353321.0,-0.0037700000684708357,0.0016299999551847577,0.00044999999227002263,-2.9719998836517334
6669.729513133911,1353322.0,-0.0048500001430511475,-0.0027199999894946814,0.00018000000272877514,-3.0429999828338623
6669.730512905833,1353323.0,-0.0047599999234080315,-0.00018000000272877514,-0.0022299999836832285,-3.063999891281128
6669.731512677756,1353324.0,-0.0048500001430511475,-0.0020000000949949026,-0.003590000094845891,-2.8989999294281006
6669.732512449678,1353325.0,-0.005210000090301037,-0.005630000028759241,-0.0027199999894946814,-2.943000078201294
6669.733512221601,1353326.0,-0.005080000031739473,-0.004310000222176313,0.003449999960139394,-2.938999891281128
6669.7345119935235,1353327.0,-0.0053900000639259815,0.0013599999947473407,0.0022299999836832285,-2.9049999713897705
6669.735511765447,1353328.0,-0.004629999864846468,-0.004900000058114529,0.00571999978274107,-2.875
6669.73651153737,1353329.0,-0.005119999870657921,0.0045900000259280205,0.0003600000054575503,-2.947999954223633
6669.737511309292,1353330.0,-0.005169999785721302,-0.0036800000816583633,-0.003909999970346689,-2.86299991607666
6669.738511081215,1353331.0,-0.0048500001430511475,-0.007269999943673611,-0.0036800000816583633,-2.9140000343322754
6669.739510853137,1353332.0,-0.005119999870657921,-0.0012700000079348683,0.0027199999894946814,-2.9170000553131104
6669.740510625061,1353333.0,-0.004399999976158142,0.0036299999337643385,0.0012700000079348683,-2.9170000553131104
6669.741510396983,1353334.0,-0.002959999954327941,-0.006579999811947346,0.0,-2.808000087738037
6669.742510168906,1353335.0,-0.0016199999954551458,0.0030900000128895044,-0.00418000016361475,-2.740000009536743
6669.7435099408285,1353336.0,-0.0013500000350177288,-0.0029100000392645597,-0.004769999999552965,-2.8289999961853027
6669.744509712751,1353337.0,0.0,-0.003220000071451068,-0.006219999864697456,-2.75
6669.745509484675,1353338.0,-0.00018000000272877514,0.0022299999836832285,0.000539999979082495,-2.7079999446868896
6669.746509256597,1353339.0,-0.001979999942705035,0.001180000021122396,0.00031999999191612005,-2.640000104904175
6669.74750902852,1353340.0,-0.0034099998883903027,-0.00418000016361475,0.001769999973475933,-2.808000087738037
6669.748508800442,1353341.0,-0.0028800000436604023,-0.0027199999894946814,0.0036299999337643385,-2.6640000343322754
6669.749508572365,1353342.0,-0.00279000005684793,0.0020000000949949026,0.003809999907389283,-2.678999900817871
6669.750508344288,1353343.0,-0.0027000000700354576,0.000539999979082495,0.0007699999841861427,-2.6670000553131104
6669.751508116211,1353344.0,-0.0021100000012665987,-0.0007699999841861427,0.0016799999866634607,-2.674999952316284
6669.752507888134,1353345.0,-0.0017099999822676182,0.001500000013038516,-0.0020000000949949026,-2.634999990463257
6669.753507660056,1353346.0,-0.0009399999980814755,0.0028200000524520874,-0.0037700000684708357,-2.618000030517578
6669.754507431979,1353347.0,0.00018000000272877514,-0.004000000189989805,0.000539999979082495,-2.556999921798706
6669.755507203901,1353348.0,0.0008099999977275729,0.0016299999551847577,-0.008170000277459621,-2.6640000343322754
6669.756506975825,1353349.0,0.0035500000230968,0.0007300000288523734,-0.005539999809116125,-2.5190000534057617
6669.757506747747,1353350.0,0.0053900000639259815,-4.999999873689376e-05,-0.0008200000156648457,-2.5759999752044678
6669.75850651967,1353351.0,0.005030000116676092,0.0002699999895412475,0.004449999891221523,-2.552999973297119
6669.7595062915925,1353352.0,0.0037700000684708357,-0.00418000016361475,0.002589999930933118,-2.496000051498413
6669.760506063515,1353353.0,0.0013500000350177288,0.006539999973028898,-0.0020000000949949026,-2.618000030517578
6669.761505835439,1353354.0,0.00018000000272877514,-0.004720000084489584,0.0027199999894946814,-2.569999933242798
6669.762505607361,1353355.0,-0.0008999999845400453,-0.0019499999471008778,-0.0033199999015778303,-2.611999988555908
6669.763505379284,1353356.0,-0.0014400000218302011,-0.003809999907389283,-0.002589999930933118,-2.5309998989105225
6669.764505151206,1353357.0,0.00018000000272877514,-0.007670000195503235,0.004360000137239695,-2.562999963760376
6669.765504923129,1353358.0,0.0006300000241026282,0.001769999973475933,0.0013599999947473407,-2.447999954223633
6669.766504695052,1353359.0,-0.00044999999227002263,0.000910000002477318,-0.006630000192672014,-2.385999917984009
6669.767504466975,1353360.0,-0.00039999998989515007,0.002360000042244792,0.0022700000554323196,-2.385999917984009
6669.768504238898,1353361.0,-0.0012600000482052565,-4.999999873689376e-05,0.0025400000158697367,-2.4089999198913574
6669.76950401082,1353362.0,-0.0016199999954551458,-0.0012700000079348683,0.001820000004954636,-2.4660000801086426
6669.770503782743,1353363.0,-0.001979999942705035,0.00571999978274107,-0.006949999835342169,-2.382999897003174
6669.771503554666,1353364.0,-0.0022499999031424522,-9.000000136438757e-05,-0.004540000110864639,-2.319000005722046
6669.772503326589,1353365.0,-0.0023399998899549246,-0.0059899999760091305,-0.0016299999551847577,-2.4519999027252197
6669.773503098511,1353366.0,-0.002520000096410513,-0.003000000026077032,-0.001180000021122396,-2.4260001182556152
6669.774502870434,1353367.0,-0.0015300000086426735,-0.004720000084489584,0.0025400000158697367,-2.382999897003174
6669.7755026423565,1353368.0,-0.0016199999954551458,-0.004679999779909849,0.0076299998909235,-2.249000072479248
6669.776502414279,1353369.0,-0.002199999988079071,-0.0005000000237487257,-0.004360000137239695,-2.385999917984009
6669.777502186203,1353370.0,-0.0008099999977275729,-0.00041000000783242285,-0.004089999943971634,-2.252000093460083
6669.778501958125,1353371.0,0.0014400000218302011,0.0024500000290572643,0.0015399999683722854,-2.203000068664551
6669.779501730048,1353372.0,0.0023399998899549246,-0.001769999973475933,-0.0030900000128895044,-2.2090001106262207
6669.78050150197,1353373.0,0.002520000096410513,0.0,-0.007770000025629997,-2.2109999656677246
6669.781501273893,1353374.0,0.0016599999507889152,0.0020000000949949026,-0.0003600000054575503,-2.3299999237060547
6669.782501045816,1353375.0,0.0006699999794363976,-0.006579999811947346,0.000910000002477318,-2.203000068664551
6669.783500817739,1353376.0,0.0012600000482052565,-0.00267999991774559,0.00018000000272877514,-2.1449999809265137
6669.784500589662,1353377.0,0.003229999914765358,-0.000539999979082495,-0.009259999729692936,-2.247999906539917
6669.785500361584,1353378.0,0.0021100000012665987,-0.0059899999760091305,-0.0063599999994039536,-2.115000009536743
6669.786500133507,1353379.0,0.0,0.002360000042244792,0.00418000016361475,-2.203000068664551
6669.787499905429,1353380.0,0.00018000000272877514,-0.004900000058114529,-0.0013200000394135714,-2.1989998817443848
6669.788499677353,1353381.0,0.000539999979082495,0.0015399999683722854,-0.0018599999602884054,-2.0869998931884766
6669.789499449275,1353382.0,0.0,-0.0011399999493733048,0.003000000026077032,-2.118000030517578
6669.790499221198,1353383.0,0.0003600000054575503,0.002950000111013651,-0.00044999999227002263,-2.1419999599456787
6669.7914989931205,1353384.0,-0.0012600000482052565,-0.0027199999894946814,0.001449999981559813,-2.1389999389648438
6669.792498765043,1353385.0,-0.00215999991632998,-0.006130000110715628,-0.004900000058114529,-2.1389999389648438
6669.793498536967,1353386.0,-0.002520000096410513,-0.0022700000554323196,0.002090000081807375,-2.125999927520752
6669.794498308889,1353387.0,-0.00215999991632998,-0.0019499999471008778,-0.00418000016361475,-2.010999917984009
6669.795498080812,1353388.0,-0.0027000000700354576,0.0021299999207258224,-0.005270000081509352,-1.9420000314712524
6669.796497852734,1353389.0,-0.0029200001154094934,-0.005450000055134296,0.006089999806135893,-2.0969998836517334
6669.797497624657,1353390.0,-0.001979999942705035,0.003269999986514449,-0.0030900000128895044,-1.968000054359436
6669.79849739658,1353391.0,-0.0023399998899549246,-0.004900000058114529,-0.007770000025629997,-2.0420000553131104
6669.799497168503,1353392.0,-0.0012600000482052565,-0.00018000000272877514,-0.001820000004954636,-1.9470000267028809
6669.800496940426,1353393.0,-0.000539999979082495,-0.00018000000272877514,-0.004310000222176313,-1.8890000581741333
6669.801496712348,1353394.0,-0.0017999999690800905,-0.0003600000054575503,-0.007899999618530273,-1.906999945640564
6669.802496484271,1353395.0,-0.002959999954327941,0.000910000002477318,0.004629999864846468,-1.8769999742507935
6669.803496256194,1353396.0,-0.0027000000700354576,-0.0027199999894946814,0.0016299999551847577,-1.9789999723434448
6669.804496028117,1353397.0,-0.0028299998957663774,-0.0021800000686198473,0.000539999979082495,-1.819000005722046
6669.805495800039,1353398.0,-0.0030499999411404133,-9.000000136438757e-05,0.00018000000272877514,-1.8200000524520874
6669.806495571962,1353399.0,-0.0027000000700354576,0.00418000016361475,0.000539999979082495,-1.7910000085830688
6669.8074953438845,1353400.0,-0.0023399998899549246,-0.00018000000272877514,-0.003809999907389283,-1.819000005722046
6669.808495115807,1353401.0,-0.0016199999954551458,-0.003809999907389283,-0.0007699999841861427,-1.746999979019165
6669.809494887731,1353402.0,0.00018000000272877514,0.005090000107884407,0.003539999946951866,-1.8980000019073486
6669.810494659653,1353403.0,0.0012600000482052565,-0.003719999920576811,-0.0024500000290572643,-1.8949999809265137
6669.811494431576,1353404.0,0.0023399998899549246,0.0,-0.000539999979082495,-1.7029999494552612
6669.812494203498,1353405.0,0.00215999991632998,0.0027699999045580626,0.0012700000079348683,-1.7519999742507935
6669.813493975421,1353406.0,0.0016199999954551458,-0.004540000110864639,0.0027199999894946814,-1.687999963760376
6669.814493747344,1353407.0,0.0012600000482052565,-0.0059899999760091305,-0.002859999891370535,-1.7879999876022339
6669.815493519267,1353408.0,0.0008999999845400453,-0.003949999809265137,-0.008899999782443047,-1.781000018119812
6669.8164932911895,1353409.0,-0.0011699999449774623,-0.004000000189989805,-0.002360000042244792,-1.781000018119812
6669.817493063112,1353410.0,-0.003590000094845891,0.001769999973475933,-0.005179999861866236,-1.6510000228881836
6669.818492835035,1353411.0,-0.005570000037550926,0.001230000052601099,-0.004089999943971634,-1.5809999704360962
6669.819492606957,1353412.0,-0.006200000178068876,-0.0027199999894946814,0.002360000042244792,-1.7519999742507935
6669.820492378881,1353413.0,-0.007009999826550484,-0.0008200000156648457,-0.000539999979082495,-1.694000005722046
6669.821492150803,1353414.0,-0.00610999995842576,-0.007180000189691782,-0.007079999893903732,-1.6540000438690186
6669.822491922726,1353415.0,-0.003949999809265137,-0.004000000189989805,-9.000000136438757e-05,-1.6039999723434448
6669.8234916946485,1353416.0,-0.0037700000684708357,-0.004089999943971634,-0.0020000000949949026,-1.6619999408721924
6669.824491466571,1353417.0,-0.0028800000436604023,-0.0003600000054575503,0.00018000000272877514,-1.6649999618530273
6669.825491238495,1353418.0,-0.0022899999748915434,-0.0021800000686198473,0.0002699999895412475,-1.4910000562667847
6669.826491010417,1353419.0,-0.0018400000408291817,0.0021299999207258224,0.004000000189989805,-1.531999945640564
6669.82749078234,1353420.0,-0.0016199999954551458,-0.003449999960139394,0.008170000277459621,-1.4559999704360962
6669.828490554262,1353421.0,-0.00107999995816499,0.001180000021122396,0.0030900000128895044,-1.6109999418258667
6669.829490326185,1353422.0,-0.00018000000272877514,0.0017300000181421638,-0.003809999907389283,-1.4910000562667847
6669.830490098108,1353423.0,-0.00039999998989515007,-0.003719999920576811,0.0024500000290572643,-1.4019999504089355
6669.831489870031,1353424.0,-0.0022499999031424522,0.0027199999894946814,0.00044999999227002263,-1.5750000476837158
6669.8324896419535,1353425.0,-0.0022899999748915434,-0.003449999960139394,-0.006899999920278788,-1.5640000104904175
6669.833489413876,1353426.0,-0.0027000000700354576,-0.002319999970495701,-0.008080000057816505,-1.5499999523162842
6669.834489185799,1353427.0,-0.0018899999558925629,-0.004809999838471413,-0.0010900000343099236,-1.3919999599456787
6669.835488957722,1353428.0,-0.000539999979082495,-0.0002699999895412475,-0.0020000000949949026,-1.5199999809265137
6669.836488729645,1353429.0,-0.0003600000054575503,0.003449999960139394,-0.002630000002682209,-1.3200000524520874
6669.837488501567,1353430.0,-0.0022899999748915434,-0.0051299999468028545,-0.003000000026077032,-1.3370000123977661
6669.83848827349,1353431.0,-0.0024300001095980406,0.0016299999551847577,0.003269999986514449,-1.3209999799728394
6669.8394880454125,1353432.0,-0.0023399998899549246,-0.008539999835193157,-0.0015399999683722854,-1.4470000267028809
6669.840487817335,1353433.0,-0.002520000096410513,-0.003269999986514449,0.003809999907389283,-1.3919999599456787
6669.841487589259,1353434.0,-0.0014400000218302011,0.0010400000028312206,-0.003909999970346689,-1.3519999980926514
6669.842487361181,1353435.0,9.000000136438757e-05,0.0007699999841861427,-0.00535999983549118,-1.2269999980926514
6669.843487133104,1353436.0,-0.00018000000272877514,0.0015399999683722854,-0.0002699999895412475,-1.2510000467300415
6669.844486905026,1353437.0,0.000539999979082495,0.0002699999895412475,-0.004089999943971634,-1.1959999799728394
6669.845486676949,1353438.0,0.0018899999558925629,-0.0003600000054575503,-0.0031799999997019768,-1.215000033378601
6669.846486448872,1353439.0,0.004129999782890081,-0.0027199999894946814,0.0014100000262260437,-1.215000033378601
6669.847486220795,1353440.0,0.004399999976158142,0.0030900000128895044,0.003809999907389283,-1.312000036239624
6669.8484859927175,1353441.0,0.006380000151693821,-0.001449999981559813,-0.0015399999683722854,-1.2740000486373901
6669.84948576464,1353442.0,0.007280000019818544,-0.0027199999894946814,-0.005179999861866236,-1.2130000591278076
6669.850485536563,1353443.0,0.005929999984800816,-0.007269999943673611,-0.004449999891221523,-1.1410000324249268
6669.851485308486,1353444.0,0.0035000001080334187,-0.005770000163465738,0.003590000094845891,-1.1349999904632568
6669.852485080409,1353445.0,0.000539999979082495,-0.0062699997797608376,0.0030900000128895044,-1.2020000219345093
6669.853484852331,1353446.0,-0.0017999999690800905,-0.003269999986514449,-0.003449999960139394,-1.2480000257492065
6669.854484624254,1353447.0,-0.0037700000684708357,0.0002300000051036477,0.0002699999895412475,-1.1959999799728394
6669.8554843961765,1353448.0,-0.004490000195801258,-0.0012700000079348683,0.0030900000128895044,-1.1629999876022339
6669.8564841681,1353449.0,-0.003590000094845891,0.004999999888241291,-0.0072200000286102295,-1.1319999694824219
6669.857483940023,1353450.0,-0.002469999948516488,-0.003809999907389283,0.001180000021122396,-1.0440000295639038
6669.858483711945,1353451.0,-0.0003600000054575503,0.003719999920576811,-0.007180000189691782,-1.0240000486373901
6669.859483483868,1353452.0,0.0008999999845400453,0.004360000137239695,-0.0015899999998509884,-1.1139999628067017
6669.86048325579,1353453.0,0.0012600000482052565,0.005270000081509352,0.0028200000524520874,-1.065000057220459
6669.861483027713,1353454.0,0.0018899999558925629,0.002630000002682209,0.0036299999337643385,-0.9309999942779541
6669.862482799636,1353455.0,0.0030499999411404133,-0.000910000002477318,-0.000910000002477318,-1.0010000467300415
6669.863482571559,1353456.0,0.007009999826550484,0.0024500000290572643,-0.005450000055134296,-1.0440000295639038
6669.8644823434815,1353457.0,0.008179999887943268,-0.00018000000272877514,-0.003719999920576811,-0.8849999904632568
6669.865482115404,1353458.0,0.007910000160336494,-0.000910000002477318,-0.0059899999760091305,-0.9190000295639038
6669.866481887327,1353459.0,0.008799999952316284,0.000910000002477318,-0.0022700000554323196,-0.9950000047683716
6669.86748165925,1353460.0,0.009879999794065952,-0.0025400000158697367,0.0016299999551847577,-1.0160000324249268
6669.868481431173,1353461.0,0.010060000233352184,-0.005539999809116125,-0.000539999979082495,-0.8539999723434448
6669.869481203095,1353462.0,0.010329999960958958,0.008220000192523003,-0.003809999907389283,-0.9340000152587891
6669.870480975018,1353463.0,0.009879999794065952,-0.003220000071451068,0.0027199999894946814,-0.8330000042915344
6669.8714807469405,1353464.0,0.007819999940693378,-0.0030900000128895044,0.003269999986514449,-0.7570000290870667
6669.872480518863,1353465.0,0.003370000049471855,0.000910000002477318,0.0059899999760091305,-0.8069999814033508
6669.873480290787,1353466.0,0.0002699999895412475,0.0031799999997019768,-0.00044999999227002263,-0.781000018119812
6669.874480062709,1353467.0,-0.0008099999977275729,0.004000000189989805,-0.0036299999337643385,-0.8790000081062317
6669.875479834632,1353468.0,0.000539999979082495,-0.000859999970998615,-0.0020000000949949026,-0.6899999976158142
6669.876479606554,1353469.0,0.002469999948516488,-0.007180000189691782,0.00018000000272877514,-0.8479999899864197
6669.877479378477,1353470.0,0.0034600000362843275,0.002360000042244792,4.999999873689376e-05,-0.7139999866485596
6669.8784791504,1353471.0,0.0034099998883903027,0.001449999981559813,0.003590000094845891,-0.7080000042915344
6669.879478922323,1353472.0,0.0037700000684708357,0.0029100000392645597,0.004629999864846468,-0.8090000152587891
6669.8804786942455,1353473.0,0.005210000090301037,0.0019099999917671084,-0.0025400000158697367,-0.8180000185966492
6669.881478466168,1353474.0,0.006829999852925539,-0.0027199999894946814,-0.002360000042244792,-0.6740000247955322
6669.882478238091,1353475.0,0.007639999967068434,-0.005810000002384186,0.0013200000394135714,-0.7680000066757202
6669.883478010014,1353476.0,0.006560000125318766,0.0016299999551847577,-0.000910000002477318,-0.7480000257492065
6669.884477781937,1353477.0,0.004939999897032976,0.00031999999191612005,0.0045900000259280205,-0.7419999837875366
6669.885477553859,1353478.0,0.0031399999279528856,-0.0016299999551847577,0.004809999838471413,-0.6159999966621399
6669.886477325782,1353479.0,0.0035500000230968,0.0020000000949949026,-0.004040000028908253,-0.6769999861717224
6669.8874770977045,1353480.0,0.004490000195801258,-0.004900000058114529,-0.003000000026077032,-0.6809999942779541
6669.888476869628,1353481.0,0.004939999897032976,-0.004540000110864639,-0.0008200000156648457,-0.5189999938011169
6669.889476641551,1353482.0,0.005840000230818987,-0.005179999861866236,-0.009259999729692936,-0.48500001430511475
6669.890476413473,1353483.0,0.007910000160336494,-0.001449999981559813,0.001820000004954636,-0.531000018119812
6669.891476185396,1353484.0,0.0088900001719594,-0.004629999864846468,-0.001180000021122396,-0.640999972820282
6669.892475957318,1353485.0,0.009159999899566174,-0.000539999979082495,-0.005770000163465738,-0.6039999723434448
6669.893475729241,1353486.0,0.009159999899566174,-0.005270000081509352,0.002859999891370535,-0.43299999833106995
6669.894475501164,1353487.0,0.00773000018671155,0.005090000107884407,0.001500000013038516,-0.5950000286102295
6669.895475273087,1353488.0,0.006149999797344208,0.0006399999838322401,-0.0016299999551847577,-0.5649999976158142
6669.8964750450095,1353489.0,0.004269999917596579,0.0063599999994039536,-0.007449999917298555,-0.4819999933242798
6669.897474816932,1353490.0,0.0011699999449774623,0.003909999970346689,-0.00494999997317791,-0.3449999988079071
6669.898474588855,1353491.0,-0.0004900000058114529,-0.010350000113248825,0.0033599999733269215,-0.49900001287460327
6669.899474360778,1353492.0,0.0,0.001820000004954636,0.0007699999841861427,-0.38499999046325684
6669.900474132701,1353493.0,0.0016199999954551458,-0.0015899999998509884,-0.003539999946951866,-0.35899999737739563
6669.901473904623,1353494.0,0.0016199999954551458,0.005090000107884407,0.005179999861866236,-0.3310000002384186
6669.902473676546,1353495.0,0.0023399998899549246,-0.003590000094845891,0.0030900000128895044,-0.30799999833106995
6669.9034734484685,1353496.0,0.0023399998899549246,-0.0003600000054575503,-0.0005000000237487257,-0.3230000138282776
6669.904473220392,1353497.0,0.00215999991632998,0.003449999960139394,-0.0029100000392645597,-0.2460000067949295
6669.905472992315,1353498.0,0.002520000096410513,-0.0051299999468028545,0.001449999981559813,-0.2590000033378601
6669.906472764237,1353499.0,0.002959999954327941,-0.002319999970495701,-0.0033199999015778303,-0.24300000071525574
6669.90747253616,1353500.0,0.0035500000230968,0.0003600000054575503,0.00571999978274107,-0.2199999988079071
6669.908472308082,1353501.0,0.005929999984800816,-0.002630000002682209,-0.0015399999683722854,-0.3720000088214874
6669.909472080006,1353502.0,0.007860000245273113,-0.005270000081509352,0.001449999981559813,-0.28700000047683716
6669.910471851928,1353503.0,0.008089999668300152,-0.005179999861866236,0.000539999979082495,-0.15600000321865082
6669.911471623851,1353504.0,0.005969999823719263,-0.0083600003272295,0.001449999981559813,-0.20100000500679016
6669.9124713957735,1353505.0,0.004310000222176313,0.0029100000392645597,-0.0010900000343099236,-0.13600000739097595
6669.913471167696,1353506.0,0.0034099998883903027,-0.00418000016361475,-0.009630000218749046,-0.28700000047683716
6669.914470939619,1353507.0,0.001979999942705035,0.00203999993391335,-0.003449999960139394,-0.13699999451637268
6669.915470711542,1353508.0,0.002520000096410513,-0.0027199999894946814,-9.000000136438757e-05,-0.12800000607967377
6669.916470483465,1353509.0,0.004490000195801258,-0.003909999970346689,0.004900000058114529,-0.12099999934434891
6669.917470255387,1353510.0,0.00610999995842576,-0.002360000042244792,-0.000539999979082495,-0.11400000005960464
6669.91847002731,1353511.0,0.007410000078380108,0.005090000107884407,-0.004089999943971634,-0.027000000700354576
6669.9194697992325,1353512.0,0.007369999773800373,0.0012700000079348683,-0.005630000028759241,-0.20800000429153442
6669.920469571156,1353513.0,0.007910000160336494,-0.0020000000949949026,-0.005270000081509352,-0.061000000685453415
6669.921469343079,1353514.0,0.007819999940693378,0.001820000004954636,0.0016299999551847577,-0.07199999690055847
6669.922469115001,1353515.0,0.007910000160336494,-0.003719999920576811,0.0027199999894946814,-0.14300000667572021
6669.923468886924,1353516.0,0.00795000046491623,0.0016299999551847577,0.0006399999838322401,0.010999999940395355
6669.924468658846,1353517.0,0.00773000018671155,-0.001820000004954636,-0.0003600000054575503,-0.12200000137090683
6669.925468430769,1353518.0,0.007009999826550484,0.00535999983549118,0.004220000002533197,-0.10100000351667404
6669.926468202692,1353519.0,0.007639999967068434,0.003269999986514449,0.002360000042244792,0.0020000000949949026
6669.927467974615,1353520.0,0.008089999668300152,0.0016299999551847577,-0.0027199999894946814,0.06700000166893005
6669.9284677465375,1353521.0,0.007230000104755163,-0.0029100000392645597,-0.0021800000686198473,0.06300000101327896
6669.92946751846,1353522.0,0.005929999984800816,-0.003809999907389283,-0.005270000081509352,-0.0430000014603138
6669.930467290383,1353523.0,0.005080000031739473,0.0017300000181421638,-0.009259999729692936,0.10499999672174454
6669.931467062306,1353524.0,0.004720000084489584,-0.006949999835342169,0.0003600000054575503,0.06400000303983688
6669.932466834229,1353525.0,0.005929999984800816,0.004000000189989805,-0.0006799999973736703,0.023000000044703484
6669.933466606151,1353526.0,0.0064199999906122684,0.002409999957308173,0.002360000042244792,0.06700000166893005
6669.934466378074,1353527.0,0.005570000037550926,0.0028200000524520874,0.007540000136941671,0.14000000059604645
6669.9354661499965,1353528.0,0.003909999970346689,-0.0010900000343099236,-0.007079999893903732,0.1889999955892563
6669.93646592192,1353529.0,0.00279000005684793,0.0028200000524520874,-0.004000000189989805,0.1940000057220459
6669.937465693843,1353530.0,0.0028800000436604023,-0.003809999907389283,-0.0014100000262260437,0.21799999475479126
6669.938465465765,1353531.0,0.0031399999279528856,0.002090000081807375,0.003909999970346689,0.10400000214576721
6669.939465237688,1353532.0,0.0030499999411404133,-0.0011399999493733048,0.0033599999733269215,0.10700000077486038
6669.94046500961,1353533.0,0.0027000000700354576,-0.004000000189989805,-0.001820000004954636,0.14300000667572021
6669.941464781534,1353534.0,0.002959999954327941,-0.004809999838471413,-0.003719999920576811,0.13699999451637268
6669.942464553456,1353535.0,0.0034099998883903027,0.000910000002477318,0.0030900000128895044,0.15600000321865082
6669.943464325379,1353536.0,0.003229999914765358,0.002859999891370535,-0.004540000110864639,0.22100000083446503
6669.9444640973015,1353537.0,0.001979999942705035,0.0002699999895412475,-0.00031999999191612005,0.31700000166893005
6669.945463869224,1353538.0,0.0018899999558925629,-0.002090000081807375,-0.000910000002477318,0.36800000071525574
6669.946463641147,1353539.0,0.002959999954327941,0.0,-0.00044999999227002263,0.22599999606609344
6669.94746341307,1353540.0,0.003949999809265137,-0.0064500002190470695,-0.005179999861866236,0.3720000088214874
6669.948463184993,1353541.0,0.005659999791532755,0.0021299999207258224,-0.00913000013679266,0.3720000088214874
6669.949462956915,1353542.0,0.00773000018671155,-0.002090000081807375,-0.001820000004954636,0.2750000059604645
6669.950462728838,1353543.0,0.010060000233352184,0.003449999960139394,-0.0017300000181421638,0.43799999356269836
6669.9514625007605,1353544.0,0.010599999688565731,0.0010400000028312206,-0.004360000137239695,0.3659999966621399
6669.952462272684,1353545.0,0.0142000000923872,-0.006990000139921904,-0.004000000189989805,0.4519999921321869
6669.953462044607,1353546.0,0.012400000356137753,0.003809999907389283,0.005630000028759241,0.5370000004768372
6669.954461816529,1353547.0,0.010239999741315842,-0.003909999970346689,0.001449999981559813,0.3490000069141388
6669.955461588452,1353548.0,0.009159999899566174,0.002950000111013651,0.0007699999841861427,0.48500001430511475
6669.956461360374,1353549.0,0.00930000003427267,-0.002360000042244792,-0.000539999979082495,0.5220000147819519
6669.957461132297,1353550.0,0.010239999741315842,-0.0007300000288523734,0.003269999986514449,0.5099999904632568
6669.95846090422,1353551.0,0.009970000013709068,0.0030900000128895044,0.002950000111013651,0.5170000195503235
6669.959460676143,1353552.0,0.009879999794065952,0.0016299999551847577,-0.006630000192672014,0.6290000081062317
