LSL_Time,PLUX_P1_nSeq,PLUX_P1_ECG0,PLUX_P1_EMG1,PLUX_P1_EMG2,PLUX_P1_RESPIRATION3
6804.624445165093,1487097.0,-0.016620000824332237,0.00880999956279993,-0.0051299999468028545,0.09700000286102295
6804.625444937308,1487098.0,-0.01181000005453825,0.002859999891370535,-0.000859999970998615,0.1044199988245964
6804.626444709524,1487099.0,-0.007139999885112047,0.0022700000554323196,0.003269999986514449,0.09956000000238419
6804.627444481738,1487100.0,0.003010000102221966,0.00795000046491623,0.005179999861866236,0.10721000283956528
6804.628444253954,1487101.0,0.014019999653100967,0.005309999920427799,-0.0045900000259280205,0.09993000328540802
6804.629444026169,1487102.0,0.019899999722838402,-0.001180000021122396,-0.001180000021122396,0.10102999955415726
6804.6304437983845,1487103.0,0.019859999418258667,-0.002360000042244792,-0.0008200000156648457,0.10853999853134155
6804.6314435706,1487104.0,0.019540000706911087,-0.0018599999602884054,-0.002409999957308173,0.1035899966955185
6804.632443342814,1487105.0,0.018149999901652336,-0.006219999864697456,-0.0033599999733269215,0.11078000068664551
6804.63344311503,1487106.0,0.0147299999371171,-0.008860000409185886,-0.0024500000290572643,0.10967999696731567
6804.634442887245,1487107.0,0.00925000011920929,-0.0029100000392645597,-0.0010400000028312206,0.10542000085115433
6804.635442659461,1487108.0,0.0034099998883903027,-0.00571999978274107,-0.002589999930933118,0.1142600029706955
6804.636442431676,1487109.0,-0.0026100000832229853,0.0012700000079348683,0.00031999999191612005,0.1116499975323677
6804.637442203892,1487110.0,-0.007139999885112047,0.00795000046491623,0.0022700000554323196,0.10812000185251236
6804.638441976106,1487111.0,-0.007459999993443489,0.004089999943971634,0.00018000000272877514,0.11603999882936478
6804.639441748322,1487112.0,-0.0027000000700354576,0.00803999975323677,0.00014000000373926014,0.10936000198125839
6804.640441520537,1487113.0,0.004129999782890081,0.0016799999866634607,0.0052200001664459705,0.11475999653339386
6804.6414412927525,1487114.0,0.009069999679923058,-0.006769999861717224,-0.005630000028759241,0.11750999838113785
6804.642441064968,1487115.0,0.013299999758601189,-0.007670000195503235,-0.002630000002682209,0.1132500022649765
6804.643440837182,1487116.0,0.01221999991685152,-0.001500000013038516,0.003860000055283308,0.12056999653577805
6804.644440609398,1487117.0,0.010599999688565731,0.0045900000259280205,-0.0014100000262260437,0.1190200001001358
6804.645440381613,1487118.0,0.00839999970048666,-0.0002699999895412475,-0.0027699999045580626,0.11494000256061554
6804.646440153829,1487119.0,0.003100000089034438,0.0010400000028312206,0.00031999999191612005,0.12304999679327011
6804.647439926044,1487120.0,0.0006300000241026282,0.002859999891370535,0.0021299999207258224,0.1165900006890297
6804.64843969826,1487121.0,0.0052999998442828655,0.004089999943971634,0.004269999917596579,0.12185999751091003
6804.649439470474,1487122.0,0.013389999978244305,0.010040000081062317,-0.0006399999838322401,0.125560000538826
6804.65043924269,1487123.0,0.011900000274181366,0.004679999779909849,0.0027699999045580626,0.11952000111341476
6804.651439014905,1487124.0,0.007590000052005053,-0.0002300000051036477,-0.004269999917596579,0.12862999737262726
6804.65243878712,1487125.0,0.0025599999353289604,-0.004360000137239695,-0.006219999864697456,0.12025000154972076
6804.653438559336,1487126.0,-0.007550000213086605,-0.002630000002682209,-0.002630000002682209,0.1301400065422058
6804.65443833155,1487127.0,-0.0175199992954731,-0.010219999589025974,-0.000859999970998615,0.1282700002193451
6804.655438103766,1487128.0,-0.024080000817775726,-0.01066999975591898,-0.002589999930933118,0.12598000466823578
6804.656437875981,1487129.0,-0.027130000293254852,-0.004129999782890081,-0.004089999943971634,0.1306000053882599
6804.657437648197,1487130.0,-0.027130000293254852,-0.004310000222176313,-0.00014000000373926014,0.12845000624656677
6804.658437420412,1487131.0,-0.024800000712275505,-0.0018599999602884054,0.003949999809265137,0.13485999405384064
6804.659437192627,1487132.0,-0.02071000076830387,0.003590000094845891,-0.0021299999207258224,0.1287200003862381
6804.660436964842,1487133.0,-0.01549999974668026,0.0044999998062849045,-0.003000000026077032,0.1377899944782257
6804.661436737058,1487134.0,-0.010060000233352184,0.002589999930933118,0.003949999809265137,0.13005000352859497
6804.662436509273,1487135.0,-0.006289999932050705,0.004629999864846468,0.0037700000684708357,0.13499000668525696
6804.663436281488,1487136.0,-0.003229999914765358,0.0037700000684708357,-0.0052200001664459705,0.13861000537872314
6804.664436053703,1487137.0,-0.001979999942705035,0.0019499999471008778,0.00031999999191612005,0.13458000123500824
6804.665435825918,1487138.0,-0.0020699999295175076,-0.0028200000524520874,0.001769999973475933,0.14305000007152557
6804.666435598134,1487139.0,-0.0009399999980814755,0.0021299999207258224,0.00031999999191612005,0.13508999347686768
6804.667435370349,1487140.0,0.002520000096410513,0.001769999973475933,-0.0033599999733269215,0.14350999891757965
6804.668435142565,1487141.0,0.006060000043362379,0.005770000163465738,0.0024999999441206455,0.1438799947500229
6804.66943491478,1487142.0,0.007410000078380108,0.003719999920576811,0.0015899999998509884,0.1453399956226349
6804.670434686995,1487143.0,0.00547999981790781,-0.00267999991774559,-0.0031799999997019768,0.1399800032377243
6804.67143445921,1487144.0,-0.0012100000167265534,-0.0076299998909235,0.00014000000373926014,0.14955000579357147
6804.6724342314255,1487145.0,-0.007910000160336494,-0.005489999894052744,0.002859999891370535,0.1434600055217743
6804.673434003641,1487146.0,-0.014550000429153442,-0.008080000057816505,-0.0007300000288523734,0.1506499946117401
6804.674433775856,1487147.0,-0.019589999690651894,-0.003449999960139394,-0.004089999943971634,0.14639000594615936
6804.675433548071,1487148.0,-0.02151999995112419,-0.0045900000259280205,-0.00041000000783242285,0.1517000049352646
6804.676433320286,1487149.0,-0.022190000861883163,-0.004809999838471413,0.004220000002533197,0.15178999304771423
6804.677433092502,1487150.0,-0.022190000861883163,0.014310000464320183,-0.005950000137090683,0.1482200026512146
6804.678432864717,1487151.0,-0.019139999523758888,0.015490000136196613,-0.00044999999227002263,0.15741999447345734
6804.679432636933,1487152.0,-0.01679999940097332,0.01576000079512596,-0.000590000010561198,0.1500999927520752
6804.680432409148,1487153.0,-0.014550000429153442,0.007770000025629997,0.00031999999191612005,0.1604900062084198
6804.681432181363,1487154.0,-0.010599999688565731,-0.001230000052601099,0.0010000000474974513,0.15444999933242798
6804.682431953578,1487155.0,-0.00646999990567565,0.002090000081807375,0.0013599999947473407,0.16314999759197235
6804.6834317257935,1487156.0,-0.0018400000408291817,-0.0027199999894946814,-0.002319999970495701,0.1564200073480606
6804.684431498009,1487157.0,0.00018000000272877514,-0.002589999930933118,0.0024999999441206455,0.16373999416828156
6804.685431270224,1487158.0,0.0006300000241026282,0.006130000110715628,0.003269999986514449,0.15911999344825745
6804.686431042439,1487159.0,0.0017500000540167093,0.003449999960139394,-0.0013200000394135714,0.1643799990415573
6804.687430814654,1487160.0,0.00646999990567565,-0.004449999891221523,0.001230000052601099,0.16730999946594238
6804.68843058687,1487161.0,0.014019999653100967,-0.007079999893903732,0.003220000071451068,0.16072000563144684
6804.689430359085,1487162.0,0.021740000694990158,0.0013200000394135714,0.0021299999207258224,0.17143000662326813
6804.690430131301,1487163.0,0.024979999288916588,0.004410000052303076,-0.0018599999602884054,0.16359999775886536
6804.691429903516,1487164.0,0.022460000589489937,0.00031999999191612005,-0.004040000028908253,0.17212000489234924
6804.692429675731,1487165.0,0.016850000247359276,-0.000590000010561198,0.000910000002477318,0.167820006608963
6804.693429447946,1487166.0,0.007410000078380108,-0.006810000166296959,-0.004220000002533197,0.17427000403404236
6804.6944292201615,1487167.0,-0.0008999999845400453,-0.00839999970048666,-0.002630000002682209,0.17372000217437744
6804.695428992377,1487168.0,-0.006649999879300594,-0.007449999917298555,0.002859999891370535,0.17476999759674072
6804.696428764592,1487169.0,-0.013659999705851078,-0.00798999983817339,-0.0021800000686198473,0.17812000215053558
6804.697428536807,1487170.0,-0.02043999917805195,0.00031999999191612005,-0.0006399999838322401,0.17096999287605286
6804.698428309022,1487171.0,-0.022690000012516975,-0.00014000000373926014,0.00031999999191612005,0.18268999457359314
6804.699428081238,1487172.0,-0.021700000390410423,-0.000539999979082495,0.00031999999191612005,0.1769700050354004
6804.700427853453,1487173.0,-0.01940999925136566,0.006130000110715628,-0.0019099999917671084,0.18196000158786774
6804.701427625669,1487174.0,-0.016979999840259552,0.005040000192821026,0.003809999907389283,0.17829999327659607
6804.702427397884,1487175.0,-0.01384000014513731,0.007670000195503235,0.0010400000028312206,0.18558000028133392
6804.703427170099,1487176.0,-0.011049999855458736,0.0010400000028312206,-0.0018599999602884054,0.1824599951505661
6804.704426942314,1487177.0,-0.009159999899566174,0.0013599999947473407,-0.003590000094845891,0.1903800070285797
6804.7054267145295,1487178.0,-0.007819999940693378,0.00203999993391335,0.0021299999207258224,0.18782000243663788
6804.706426486745,1487179.0,-3.9999998989515007e-05,0.003000000026077032,0.002360000042244792,0.1848900020122528
6804.70742625896,1487180.0,0.014550000429153442,0.006630000192672014,-0.0024500000290572643,0.19454999268054962
6804.708426031175,1487181.0,0.023310000076889992,0.0031799999997019768,0.0018599999602884054,0.18398000299930573
6804.70942580339,1487182.0,0.02606000006198883,0.0016799999866634607,0.002859999891370535,0.19208000600337982
6804.710425575606,1487183.0,0.022460000589489937,-4.999999873689376e-05,-0.002589999930933118,0.19610999524593353
6804.711425347821,1487184.0,0.018239999189972878,-0.0013200000394135714,-0.0027699999045580626,0.18860000371932983
6804.712425120037,1487185.0,0.011500000022351742,-0.008630000054836273,0.00031999999191612005,0.19762000441551208
6804.713424892252,1487186.0,-0.0035000001080334187,-0.0051299999468028545,-0.0028200000524520874,0.19857999682426453
6804.714424664467,1487187.0,-0.019859999418258667,-0.006949999835342169,-0.0071299998089671135,0.1962900012731552
6804.715424436682,1487188.0,-0.02978000044822693,-0.0071299998089671135,0.0016799999866634607,0.20329000055789948
6804.7164242088975,1487189.0,-0.03130999952554703,-0.000539999979082495,0.0002300000051036477,0.19449999928474426
6804.717423981113,1487190.0,-0.02776000089943409,-0.002360000042244792,-0.0020000000949949026,0.20316000282764435
6804.718423753328,1487191.0,-0.022099999710917473,-0.003220000071451068,-0.002589999930933118,0.2054000049829483
6804.719423525543,1487192.0,-0.01891000010073185,-0.0036800000816583633,0.004999999888241291,0.20118999481201172
6804.720423297758,1487193.0,-0.01671000011265278,4.999999873689376e-05,0.00031999999191612005,0.21065999567508698
6804.721423069974,1487194.0,-0.014379999600350857,0.0016799999866634607,-0.001500000013038516,0.20759999752044678
6804.722422842189,1487195.0,-0.013930000364780426,0.004679999779909849,-0.0016799999866634607,0.20420999825000763
6804.723422614405,1487196.0,-0.01343000028282404,0.0035000001080334187,-0.0016799999866634607,0.2064100056886673
6804.724422386619,1487197.0,-0.011769999749958515,0.006539999973028898,-0.0006399999838322401,0.21565000712871552
6804.725422158835,1487198.0,-0.00773000018671155,0.003719999920576811,-0.000910000002477318,0.21231000125408173
6804.72642193105,1487199.0,-0.003590000094845891,0.0024500000290572643,0.006219999864697456,0.21419000625610352
6804.7274217032655,1487200.0,0.0016199999954551458,0.005040000192821026,-0.0002699999895412475,0.217849999666214
6804.728421475481,1487201.0,0.006690000183880329,-0.0010000000474974513,9.000000136438757e-05,0.20892000198364258
6804.729421247695,1487202.0,0.011640000157058239,0.008630000054836273,0.004679999779909849,0.2192700058221817
6804.730421019911,1487203.0,0.011049999855458736,0.011169999837875366,-0.0027699999045580626,0.22078000009059906
6804.731420792126,1487204.0,0.007189999800175428,0.010850000195205212,-0.0022700000554323196,0.21821999549865723
6804.732420564342,1487205.0,-0.0006300000241026282,-0.0022299999836832285,-0.001820000004954636,0.22544999420642853
6804.733420336557,1487206.0,-0.01348000019788742,-0.0045900000259280205,-0.0010900000343099236,0.21528999507427216
6804.734420108773,1487207.0,-0.024569999426603317,-0.010809999890625477,-9.000000136438757e-05,0.2273699939250946
6804.735419880987,1487208.0,-0.02776000089943409,-0.013120000250637531,-0.0012700000079348683,0.22452999651432037
6804.736419653203,1487209.0,-0.02817000076174736,-0.007720000110566616,-0.0019099999917671084,0.2244900017976761
6804.737419425418,1487210.0,-0.02928999997675419,-0.004999999888241291,-0.0008200000156648457,0.23015999794006348
6804.738419197633,1487211.0,-0.03109000064432621,-0.010259999893605709,-0.0016299999551847577,0.22883999347686768
6804.739418969849,1487212.0,-0.03215999901294708,-0.009170000441372395,0.0009500000160187483,0.22472000122070312
6804.740418742063,1487213.0,-0.033149998635053635,-0.0035000001080334187,0.005489999894052744,0.2331800013780594
6804.741418514279,1487214.0,-0.03181000053882599,0.006130000110715628,-0.0016799999866634607,0.23428000509738922
6804.742418286494,1487215.0,-0.03127000108361244,0.007309999782592058,-0.0009500000160187483,0.22860999405384064
6804.74341805871,1487216.0,-0.033240001648664474,0.0011399999493733048,0.002090000081807375,0.2376299947500229
6804.744417830925,1487217.0,-0.03612000122666359,0.003909999970346689,0.00031999999191612005,0.2376299947500229
6804.745417603141,1487218.0,-0.03711000084877014,0.002319999970495701,-0.0025400000158697367,0.23446999490261078
6804.746417375355,1487219.0,-0.03198999911546707,0.004769999999552965,-0.001500000013038516,0.24347999691963196
6804.747417147571,1487220.0,-0.021609999239444733,0.006039999891072512,-0.0016799999866634607,0.24018999934196472
6804.748416919786,1487221.0,-0.011680000461637974,0.00880999956279993,-0.005489999894052744,0.23707999289035797
6804.749416692001,1487222.0,-0.0002699999895412475,0.00795000046491623,0.0008200000156648457,0.24494999647140503
6804.750416464217,1487223.0,0.008089999668300152,-0.0013599999947473407,0.00014000000373926014,0.24338999390602112
6804.751416236431,1487224.0,0.006829999852925539,-0.0051299999468028545,-0.003449999960139394,0.24201999604701996
6804.752416008647,1487225.0,0.0007200000109151006,0.003590000094845891,-0.003449999960139394,0.24833999574184418
6804.753415780862,1487226.0,-0.009519999846816063,-4.999999873689376e-05,0.00203999993391335,0.2403700053691864
6804.754415553078,1487227.0,-0.01940999925136566,-0.003719999920576811,-0.003949999809265137,0.2505800127983093
6804.755415325293,1487228.0,-0.027939999476075172,-0.002589999930933118,0.0030400000978261232,0.24956999719142914
6804.756415097509,1487229.0,-0.03499000146985054,-0.003949999809265137,-0.00044999999227002263,0.2478799968957901
6804.757414869723,1487230.0,-0.03971000015735626,-0.006219999864697456,0.0010400000028312206,0.2528199851512909
6804.7584146419385,1487231.0,-0.04052000120282173,0.003590000094845891,0.0033599999733269215,0.2546499967575073
6804.759414414154,1487232.0,-0.03562000021338463,0.009759999811649323,-0.003719999920576811,0.24508999288082123
6804.760414186369,1487233.0,-0.031129999086260796,-9.000000136438757e-05,0.0017300000181421638,0.2594600021839142
6804.761413958585,1487234.0,-0.027400000020861626,-0.007770000025629997,0.0072200000286102295,0.25227001309394836
6804.762413730799,1487235.0,-0.02353999949991703,-0.002950000111013651,4.999999873689376e-05,0.25940999388694763
6804.763413503015,1487236.0,-0.01931999996304512,-0.0009500000160187483,-0.005489999894052744,0.2559399902820587
6804.76441327523,1487237.0,-0.014910000376403332,-0.0013200000394135714,0.00031999999191612005,0.2581300139427185
6804.765413047446,1487238.0,-0.011680000461637974,0.008270000107586384,-0.00041000000783242285,0.26399001479148865
6804.766412819661,1487239.0,-0.010239999741315842,0.009580000303685665,-0.004860000219196081,0.25227001309394836
6804.767412591877,1487240.0,-0.006779999937862158,0.011130000464618206,-0.0015399999683722854,0.2672399878501892
6804.768412364091,1487241.0,-0.00279000005684793,0.007770000025629997,0.0007699999841861427,0.25400999188423157
6804.7694121363065,1487242.0,0.0013899999903514981,0.00031999999191612005,-0.0018599999602884054,0.2698499858379364
6804.770411908522,1487243.0,0.0016199999954551458,-0.005950000137090683,0.002859999891370535,0.26010000705718994
6804.771411680737,1487244.0,-0.00107999995816499,-0.005590000189840794,0.0010400000028312206,0.2698499858379364
6804.772411452953,1487245.0,-0.0047599999234080315,-0.006990000139921904,-0.002630000002682209,0.26568999886512756
6804.773411225167,1487246.0,-0.008980000391602516,-0.00267999991774559,-0.0027699999045580626,0.2680700123310089
6804.774410997383,1487247.0,-0.01508999988436699,-0.002589999930933118,0.0017300000181421638,0.27425000071525574
6804.775410769598,1487248.0,-0.020980000495910645,-0.004220000002533197,0.002589999930933118,0.26833999156951904
6804.776410541814,1487249.0,-0.02785000018775463,0.0015399999683722854,-0.0005000000237487257,0.2720000147819519
6804.777410314029,1487250.0,-0.03432000055909157,0.003220000071451068,-0.004000000189989805,0.2770400047302246
6804.778410086245,1487251.0,-0.03593999892473221,0.004679999779909849,-0.001500000013038516,0.2658199965953827
6804.779409858459,1487252.0,-0.03517000004649162,0.003000000026077032,0.003590000094845891,0.27695000171661377
6804.7804096306745,1487253.0,-0.030640000477433205,0.002589999930933118,0.0018599999602884054,0.2744799852371216
6804.78140940289,1487254.0,-0.0218299999833107,-0.00018000000272877514,0.005040000192821026,0.2750700116157532
6804.782409175105,1487255.0,-0.013880000449717045,-0.001230000052601099,-0.004360000137239695,0.276309996843338
6804.783408947321,1487256.0,-0.009479999542236328,-0.0027699999045580626,-0.002090000081807375,0.28033000230789185
6804.784408719535,1487257.0,-0.005210000090301037,-0.003860000055283308,0.00031999999191612005,0.2733300030231476
6804.785408491751,1487258.0,-0.0012100000167265534,-0.001180000021122396,0.0021299999207258224,0.28376999497413635
6804.786408263966,1487259.0,0.005119999870657921,0.0016299999551847577,-0.002859999891370535,0.2697100043296814
6804.787408036182,1487260.0,0.011950000189244747,0.0035000001080334187,-0.004360000137239695,0.2825799882411957
6804.788407808397,1487261.0,0.014150000177323818,0.00031999999191612005,0.00031999999191612005,0.28422999382019043
6804.789407580612,1487262.0,0.012079999782145023,0.0031799999997019768,0.0030400000978261232,0.27781999111175537
6804.790407352827,1487263.0,0.008270000107586384,0.0021299999207258224,-0.001769999973475933,0.288349986076355
6804.7914071250425,1487264.0,0.0017999999690800905,-0.004449999891221523,0.00031999999191612005,0.2825300097465515
6804.792406897258,1487265.0,-0.004490000195801258,-0.005489999894052744,0.0031799999997019768,0.28391000628471375
6804.793406669473,1487266.0,-0.011009999550879002,-0.005950000137090683,0.00267999991774559,0.2898100018501282
6804.794406441688,1487267.0,-0.016440000385046005,-0.0045900000259280205,-0.000859999970998615,0.2857399880886078
6804.795406213903,1487268.0,-0.020749999210238457,-0.003449999960139394,-0.004540000110864639,0.2868799865245819
6804.796405986119,1487269.0,-0.022690000012516975,-0.006579999811947346,0.000910000002477318,0.29072999954223633
6804.797405758334,1487270.0,-0.019589999690651894,-0.002589999930933118,0.0022299999836832285,0.27932998538017273
6804.79840553055,1487271.0,-0.014379999600350857,0.006680000107735395,-0.001180000021122396,0.2936600148677826
6804.799405302765,1487272.0,-0.011409999802708626,0.001449999981559813,-0.002950000111013651,0.28925999999046326
6804.80040507498,1487273.0,-0.01092000026255846,0.006810000166296959,-0.003909999970346689,0.2932400107383728
6804.801404847195,1487274.0,-0.010470000095665455,0.006039999891072512,0.0015899999998509884,0.2910900115966797
6804.8024046194105,1487275.0,-0.010780000127851963,0.001180000021122396,0.003949999809265137,0.2903600037097931
6804.803404391626,1487276.0,-0.008940000087022781,-0.0016299999551847577,-0.0007699999841861427,0.2965399920940399
6804.804404163841,1487277.0,-0.004490000195801258,0.00031999999191612005,-0.005489999894052744,0.2939299941062927
6804.805403936056,1487278.0,-0.0014400000218302011,-0.0002300000051036477,0.0013200000394135714,0.284960001707077
6804.806403708271,1487279.0,0.0003100000030826777,0.00031999999191612005,-0.0022299999836832285,0.29328998923301697
6804.807403480487,1487280.0,0.006649999879300594,0.005400000140070915,-0.001769999973475933,0.30098000168800354
6804.808403252702,1487281.0,0.0129399998113513,0.006130000110715628,-0.0002699999895412475,0.2948499917984009
6804.809403024918,1487282.0,0.014379999600350857,0.011169999837875366,-0.0005000000237487257,0.29548999667167664
6804.810402797133,1487283.0,0.011769999749958515,0.008129999972879887,0.0007699999841861427,0.3020800054073334
6804.811402569348,1487284.0,0.0071000000461936,0.003719999920576811,-0.00041000000783242285,0.29767999053001404
6804.812402341563,1487285.0,0.0016199999954551458,-0.0036299999337643385,-0.004410000052303076,0.2991499900817871
6804.8134021137785,1487286.0,-0.003370000049471855,-0.00203999993391335,-0.0028200000524520874,0.3045499920845032
6804.814401885994,1487287.0,-0.00965999998152256,-0.00749000022187829,-0.004040000028908253,0.29877999424934387
6804.815401658209,1487288.0,-0.019050000235438347,-0.002409999957308173,-0.0007699999841861427,0.3006100058555603
6804.816401430424,1487289.0,-0.029740000143647194,0.0007300000288523734,0.004220000002533197,0.3036800026893616
6804.817401202639,1487290.0,-0.03773999959230423,-0.00203999993391335,-0.0021299999207258224,0.30024999380111694
6804.818400974855,1487291.0,-0.04317000135779381,-0.002360000042244792,-0.002589999930933118,0.30445998907089233
6804.81940074707,1487292.0,-0.045910000801086426,0.0027699999045580626,-0.004360000137239695,0.30243998765945435
6804.820400519286,1487293.0,-0.04645000025629997,-0.0006799999973736703,0.0010400000028312206,0.3084399998188019
6804.821400291501,1487294.0,-0.04851999878883362,-0.004999999888241291,0.0022700000554323196,0.3036800026893616
6804.822400063716,1487295.0,-0.04879000037908554,-0.0030900000128895044,-0.0013200000394135714,0.3065600097179413
6804.823399835931,1487296.0,-0.046720001846551895,-0.005489999894052744,-0.004089999943971634,0.30487000942230225
6804.824399608146,1487297.0,-0.0436599999666214,-0.009949999861419201,0.00031999999191612005,0.30500999093055725
6804.825399380362,1487298.0,-0.04383999854326248,-0.0010400000028312206,0.002409999957308173,0.3091300129890442
6804.826399152577,1487299.0,-0.044920001178979874,0.0059899999760091305,0.0019099999917671084,0.2987399995326996
6804.827398924792,1487300.0,-0.041510000824928284,0.005400000140070915,0.0022700000554323196,0.3108699917793274
6804.828398697007,1487301.0,-0.037379998713731766,0.003949999809265137,0.0022299999836832285,0.3098599910736084
6804.829398469223,1487302.0,-0.03458999842405319,0.006680000107735395,-0.0009500000160187483,0.3079400062561035
6804.830398241438,1487303.0,-0.03378000110387802,0.0021299999207258224,-0.0031300000846385956,0.3135699927806854
6804.831398013654,1487304.0,-0.035349998623132706,-0.004089999943971634,-0.0006399999838322401,0.30024999380111694
6804.832397785869,1487305.0,-0.03863000124692917,0.0016799999866634607,-0.002589999930933118,0.31068000197410583
6804.833397558084,1487306.0,-0.044610001146793365,-0.002589999930933118,-0.004769999999552965,0.3127000033855438
6804.834397330299,1487307.0,-0.05355000123381615,-0.003860000055283308,-0.004809999838471413,0.30904000997543335
6804.835397102514,1487308.0,-0.06235000118613243,-0.0027699999045580626,0.0027699999045580626,0.3168199956417084
6804.83639687473,1487309.0,-0.06819000095129013,-0.0035000001080334187,0.003809999907389283,0.3130199909210205
6804.837396646945,1487310.0,-0.06954000145196915,-0.006089999806135893,0.004129999782890081,0.30715999007225037
6804.83839641916,1487311.0,-0.0662200003862381,0.008580000139772892,0.0045900000259280205,0.3149000108242035
6804.839396191375,1487312.0,-0.06109999865293503,0.012489999644458294,-0.004040000028908253,0.3173699975013733
6804.840395963591,1487313.0,-0.054990001022815704,0.01257999986410141,-0.001820000004954636,0.31325000524520874
6804.841395735806,1487314.0,-0.05012999847531319,0.008670000359416008,0.0006399999838322401,0.3130599856376648
6804.842395508022,1487315.0,-0.04726000130176544,0.005950000137090683,-0.0015899999998509884,0.3196600079536438
6804.843395280237,1487316.0,-0.04941999912261963,0.00031999999191612005,0.001769999973475933,0.3196600079536438
6804.844395052452,1487317.0,-0.05201999843120575,0.002090000081807375,0.0002699999895412475,0.31558001041412354
6804.845394824667,1487318.0,-0.04977000132203102,-0.004040000028908253,-0.003860000055283308,0.31801000237464905
6804.846394596882,1487319.0,-0.04196000099182129,-0.005679999943822622,-0.002409999957308173,0.31525999307632446
6804.847394369098,1487320.0,-0.03206999972462654,-0.006219999864697456,0.0010400000028312206,0.32030001282691956
6804.848394141313,1487321.0,-0.023000000044703484,0.00031999999191612005,0.00031999999191612005,0.316540002822876
6804.849393913528,1487322.0,-0.015589999966323376,-0.0002300000051036477,0.0035000001080334187,0.3225899934768677
6804.850393685743,1487323.0,-0.011859999969601631,4.999999873689376e-05,0.0024999999441206455,0.31672999262809753
6804.851393457959,1487324.0,-0.01051000040024519,4.999999873689376e-05,-0.0019099999917671084,0.31929001212120056
6804.852393230174,1487325.0,-0.011859999969601631,-0.0005000000237487257,-0.005630000028759241,0.32102999091148376
6804.85339300239,1487326.0,-0.019050000235438347,-0.00494999997317791,-0.002319999970495701,0.3184700012207031
6804.854392774604,1487327.0,-0.026680000126361847,-0.004449999891221523,-0.0033199999015778303,0.3205699920654297
6804.8553925468195,1487328.0,-0.03117999993264675,-0.005489999894052744,-0.0010900000343099236,0.3217200040817261
6804.856392319035,1487329.0,-0.03413999825716019,-0.005489999894052744,0.00267999991774559,0.3196600079536438
6804.85739209125,1487330.0,-0.0370200015604496,-0.002859999891370535,-0.0022299999836832285,0.32436999678611755
6804.858391863466,1487331.0,-0.034860000014305115,-0.004040000028908253,-0.0011399999493733048,0.31132999062538147
6804.85939163568,1487332.0,-0.030549999326467514,0.00031999999191612005,-0.004449999891221523,0.3211199939250946
6804.860391407896,1487333.0,-0.02606000006198883,0.008630000054836273,-0.0011399999493733048,0.3258799910545349
6804.861391180111,1487334.0,-0.02143000066280365,0.00494999997317791,-0.002589999930933118,0.3221699893474579
6804.862390952327,1487335.0,-0.0175199992954731,0.005179999861866236,0.00031999999191612005,0.31009000539779663
6804.863390724542,1487336.0,-0.016349999234080315,-0.0005000000237487257,-0.006719999946653843,0.3233200013637543
6804.864390496758,1487337.0,-0.014910000376403332,-0.000539999979082495,0.0027199999894946814,0.32016000151634216
6804.865390268972,1487338.0,-0.013159999623894691,-0.003539999946951866,0.006130000110715628,0.32346001267433167
6804.8663900411875,1487339.0,-0.0088900001719594,-0.0022700000554323196,-0.00031999999191612005,0.3196600079536438
6804.867389813403,1487340.0,-0.003590000094845891,0.007400000002235174,-0.00203999993391335,0.3231399953365326
6804.868389585618,1487341.0,-0.00215999991632998,0.010259999893605709,-9.000000136438757e-05,0.32076001167297363
6804.869389357834,1487342.0,0.0003100000030826777,0.0015899999998509884,-0.0002300000051036477,0.3240100145339966
6804.870389130048,1487343.0,0.00215999991632998,0.0024999999441206455,0.004220000002533197,0.31975001096725464
6804.871388902264,1487344.0,0.00547999981790781,0.001769999973475933,-0.0028200000524520874,0.3201099932193756
6804.872388674479,1487345.0,0.009030000306665897,-0.00418000016361475,-0.0028200000524520874,0.32422998547554016
6804.873388446695,1487346.0,0.008270000107586384,-0.0045900000259280205,-0.0025400000158697367,0.32001999020576477
6804.87438821891,1487347.0,0.003229999914765358,-0.009669999592006207,0.00031999999191612005,0.32016000151634216
6804.8753879911255,1487348.0,-0.0025599999353289604,-0.006949999835342169,0.001769999973475933,0.32624998688697815
6804.87638776334,1487349.0,-0.0071000000461936,-0.0030400000978261232,-0.0007300000288523734,0.32062000036239624
6804.8773875355555,1487350.0,-0.009390000253915787,0.0010400000028312206,-0.005489999894052744,0.32642999291419983
6804.878387307771,1487351.0,-0.0071000000461936,-0.00044999999227002263,0.0027199999894946814,0.30976998805999756
6804.879387079986,1487352.0,-0.004089999943971634,0.007079999893903732,-9.000000136438757e-05,0.32532998919487
6804.880386852202,1487353.0,-0.0028800000436604023,0.009720000438392162,-4.999999873689376e-05,0.3192000091075897
6804.881386624416,1487354.0,-0.0037700000684708357,0.00267999991774559,0.0018599999602884054,0.31942999362945557
6804.882386396632,1487355.0,-0.0023799999617040157,0.004679999779909849,-0.002090000081807375,0.3246900141239166
6804.883386168847,1487356.0,0.0034099998883903027,0.002319999970495701,0.0010000000474974513,0.3196600079536438
6804.884385941063,1487357.0,0.01051000040024519,-0.0036299999337643385,-0.001820000004954636,0.31902000308036804
6804.885385713278,1487358.0,0.017069999128580093,-0.004769999999552965,0.004410000052303076,0.32519999146461487
6804.8863854854935,1487359.0,0.024890000000596046,-0.0018599999602884054,-0.0016299999551847577,0.31929001212120056
6804.887385257708,1487360.0,0.034949999302625656,-0.00031999999191612005,0.00031999999191612005,0.3247799873352051
6804.8883850299235,1487361.0,0.042319998145103455,-0.001500000013038516,0.004220000002533197,0.3179599940776825
6804.889384802139,1487362.0,0.04554999992251396,-0.004449999891221523,-0.002589999930933118,0.3242799937725067
6804.890384574354,1487363.0,0.04383999854326248,0.0022299999836832285,0.0014100000262260437,0.3097200095653534
6804.89138434657,1487364.0,0.038270000368356705,0.0031799999997019768,-0.0016299999551847577,0.3233200013637543
6804.892384118784,1487365.0,0.03162999823689461,-0.0029100000392645597,-0.0007699999841861427,0.31782999634742737
6804.893383891,1487366.0,0.023000000044703484,0.006130000110715628,0.00031999999191612005,0.31746000051498413
6804.894383663215,1487367.0,0.013659999705851078,0.0059899999760091305,0.0022299999836832285,0.3218500018119812
6804.895383435431,1487368.0,0.005840000230818987,-0.004999999888241291,-0.00041000000783242285,0.31672999262809753
6804.896383207646,1487369.0,0.0016199999954551458,0.009309999644756317,-0.005489999894052744,0.31668001413345337
6804.8973829798615,1487370.0,0.00018000000272877514,0.0033599999733269215,-0.0045900000259280205,0.3206599950790405
6804.898382752076,1487371.0,0.0012600000482052565,-0.0002699999895412475,-0.002630000002682209,0.3170900046825409
6804.8993825242915,1487372.0,0.003280000062659383,-0.004410000052303076,0.0016799999866634607,0.3065600097179413
6804.900382296507,1487373.0,0.005350000225007534,-0.008539999835193157,0.002409999957308173,0.3199799954891205
6804.901382068722,1487374.0,0.007910000160336494,-0.00044999999227002263,0.002630000002682209,0.31613001227378845
6804.902381840938,1487375.0,0.010780000127851963,0.002859999891370535,-0.0011399999493733048,0.3056899905204773
6804.903381613152,1487376.0,0.014469999819993973,0.0021299999207258224,-0.0010400000028312206,0.31700000166893005
6804.904381385368,1487377.0,0.01720999926328659,-0.009850000031292439,-0.001500000013038516,0.32001999020576477
6804.905381157583,1487378.0,0.016529999673366547,-0.009309999644756317,-0.0013200000394135714,0.3082999885082245
6804.906380929799,1487379.0,0.017969999462366104,-0.0015399999683722854,-0.0012700000079348683,0.3151699900627136
6804.907380702014,1487380.0,0.0218299999833107,0.010130000300705433,-0.0011399999493733048,0.3193399906158447
6804.9083804742295,1487381.0,0.028030000627040863,0.013030000030994415,0.007540000136941671,0.3103199899196625
6804.909380246444,1487382.0,0.0340999998152256,0.010579999536275864,-0.0011399999493733048,0.31571999192237854
6804.910380018659,1487383.0,0.03598000109195709,0.007579999975860119,0.0012700000079348683,0.3118300139904022
6804.911379790875,1487384.0,0.03418999910354614,0.006130000110715628,-0.0007699999841861427,0.31325000524520874
6804.91237956309,1487385.0,0.028929999098181725,-0.0015899999998509884,0.0002300000051036477,0.31599000096321106
6804.913379335306,1487386.0,0.018459999933838844,-0.00686000008136034,-0.0031300000846385956,0.30167001485824585
6804.91437910752,1487387.0,0.007189999800175428,-0.0051299999468028545,-0.0036800000816583633,0.3143500089645386
6804.915378879736,1487388.0,-0.0026499999221414328,-0.004679999779909849,-0.0034099998883903027,0.3170900046825409
6804.916378651951,1487389.0,-0.01131999958306551,-0.00749000022187829,-0.001180000021122396,0.3108200132846832
6804.917378424167,1487390.0,-0.01689000055193901,-0.002090000081807375,-0.00014000000373926014,0.3104099929332733
6804.918378196382,1487391.0,-0.019680000841617584,-0.00018000000272877514,-0.000590000010561198,0.3147999942302704
6804.919377968597,1487392.0,-0.024080000817775726,-0.00044999999227002263,0.004310000222176313,0.3059200048446655
6804.920377740812,1487393.0,-0.02947000041604042,0.0010000000474974513,-0.002589999930933118,0.31439000368118286
6804.921377513027,1487394.0,-0.036660000681877136,0.0017300000181421638,-0.0021800000686198473,0.30024999380111694
6804.922377285243,1487395.0,-0.048020001500844955,-0.0021800000686198473,-0.0009500000160187483,0.3147999942302704
6804.923377057458,1487396.0,-0.06015000119805336,-0.0022299999836832285,-0.0024999999441206455,0.3040499985218048
6804.924376829673,1487397.0,-0.0700799971818924,-0.00494999997317791,0.00031999999191612005,0.3119199872016907
6804.925376601888,1487398.0,-0.0812700018286705,-0.00018000000272877514,-0.0016799999866634607,0.30417999625205994
6804.926376374104,1487399.0,-0.09320999681949615,0.00031999999191612005,0.005900000222027302,0.3108200132846832
6804.927376146319,1487400.0,-0.10108000040054321,-0.0033199999015778303,0.0013200000394135714,0.30674999952316284
6804.928375918535,1487401.0,-0.10843999683856964,0.0036800000816583633,-0.0002699999895412475,0.31009000539779663
6804.92937569075,1487402.0,-0.11625999957323074,0.00803999975323677,-0.000590000010561198,0.305649995803833
6804.930375462965,1487403.0,-0.1278499960899353,0.011529999785125256,-0.0011399999493733048,0.3088099956512451
6804.93137523518,1487404.0,-0.14191000163555145,0.016119999811053276,0.0013599999947473407,0.3061999976634979
6804.932375007395,1487405.0,-0.15602000057697296,0.006490000057965517,-0.0019099999917671084,0.3095400035381317
6804.933374779611,1487406.0,-0.16931000351905823,0.0002300000051036477,-0.003539999946951866,0.3001999855041504
6804.934374551826,1487407.0,-0.17919999361038208,-0.005489999894052744,-0.004540000110864639,0.31136998534202576
6804.935374324041,1487408.0,-0.18570999801158905,-0.010809999890625477,-0.001230000052601099,0.2965399920940399
6804.936374096256,1487409.0,-0.18850000202655792,-0.005489999894052744,0.0027699999045580626,0.31009000539779663
6804.937373868472,1487410.0,-0.18805000185966492,-0.007720000110566616,0.004720000084489584,0.30167001485824585
6804.938373640687,1487411.0,-0.18400000035762787,0.003220000071451068,0.0025400000158697367,0.3078500032424927
6804.939373412903,1487412.0,-0.17726999521255493,-0.0007699999841861427,-0.001820000004954636,0.3023099899291992
6804.940373185118,1487413.0,-0.16469000279903412,-0.0031300000846385956,0.00018000000272877514,0.3091300129890442
6804.9413729573325,1487414.0,-0.1485999971628189,0.00014000000373926014,0.002589999930933118,0.3047800064086914
6804.942372729548,1487415.0,-0.13117000460624695,0.004679999779909849,-0.00014000000373926014,0.3059200048446655
6804.943372501763,1487416.0,-0.1141899973154068,0.00031999999191612005,-0.0016799999866634607,0.3026300072669983
6804.944372273979,1487417.0,-0.09455999732017517,0.007579999975860119,0.00031999999191612005,0.3088499903678894
6804.945372046194,1487418.0,-0.07412000000476837,0.0015899999998509884,0.0021800000686198473,0.3034999966621399
6804.946371818409,1487419.0,-0.05355000123381615,0.002859999891370535,0.0010400000028312206,0.3013499975204468
6804.947371590624,1487420.0,-0.024709999561309814,0.006719999946653843,0.003909999970346689,0.3084399998188019
6804.94837136284,1487421.0,0.007550000213086605,0.007770000025629997,0.00795000046491623,0.3022199869155884
6804.949371135055,1487422.0,0.045010000467300415,0.003719999920576811,-0.00018000000272877514,0.30199000239372253
6804.950370907271,1487423.0,0.08410000056028366,0.0037700000684708357,0.00031999999191612005,0.3070699870586395
6804.951370679486,1487424.0,0.12291000038385391,0.0027199999894946814,0.001230000052601099,0.3035399913787842
6804.9523704517005,1487425.0,0.15390999615192413,0.0045900000259280205,-0.0027699999045580626,0.30098000168800354
6804.953370223916,1487426.0,0.17520000040531158,0.0010400000028312206,-0.0036299999337643385,0.3046000003814697
6804.954369996131,1487427.0,0.18432000279426575,-0.005489999894052744,-0.002950000111013651,0.2947100102901459
6804.955369768347,1487428.0,0.18606999516487122,-0.003949999809265137,-9.000000136438757e-05,0.3063400089740753
6804.956369540562,1487429.0,0.1910099983215332,-0.007540000136941671,0.004129999782890081,0.30313000082969666
6804.957369312777,1487430.0,0.20196999609470367,-0.0045900000259280205,-0.0006399999838322401,0.2979600131511688
6804.958369084992,1487431.0,0.22390000522136688,-0.006680000107735395,-0.00031999999191612005,0.3040899932384491
6804.959368857208,1487432.0,0.25332000851631165,-0.0016799999866634607,0.0008200000156648457,0.3072099983692169
6804.960368629423,1487433.0,0.2786099910736084,-0.0002300000051036477,-0.002589999930933118,0.30066001415252686
6804.9613684016385,1487434.0,0.29451000690460205,0.0009500000160187483,0.003719999920576811,0.30024999380111694
6804.962368173854,1487435.0,0.30834999680519104,0.00014000000373926014,-0.005489999894052744,0.30487000942230225
6804.9633679460685,1487436.0,0.32227998971939087,0.0002699999895412475,0.00031999999191612005,0.29328998923301697
6804.964367718284,1487437.0,0.3336000144481659,-0.0006399999838322401,0.0013200000394135714,0.3070699870586395
6804.965367490499,1487438.0,0.33351001143455505,-0.000910000002477318,-0.008630000054836273,0.30079999566078186
6804.966367262715,1487439.0,0.3211100101470947,0.0072200000286102295,-0.0011399999493733048,0.30028998851776123
6804.96736703493,1487440.0,0.30636999011039734,0.006490000057965517,-0.000910000002477318,0.3040499985218048
6804.968366807145,1487441.0,0.2944200038909912,0.007670000195503235,-0.0027199999894946814,0.29965001344680786
6804.96936657936,1487442.0,0.2902899980545044,0.00014000000373926014,-9.000000136438757e-05,0.30171000957489014
6804.970366351576,1487443.0,0.2838200032711029,-0.002319999970495701,0.00031999999191612005,0.30344998836517334
6804.971366123791,1487444.0,0.27331000566482544,-0.006949999835342169,-0.0022299999836832285,0.3008899986743927
6804.9723658960065,1487445.0,0.25946998596191406,-0.007899999618530273,-0.0035000001080334187,0.3020800054073334
6804.973365668222,1487446.0,0.24977000057697296,-0.004040000028908253,-0.006579999811947346,0.3004299998283386
6804.9743654404365,1487447.0,0.246629998087883,0.00031999999191612005,-0.0031799999997019768,0.3039099872112274
6804.975365212652,1487448.0,0.2404700070619583,9.000000136438757e-05,-0.001500000013038516,0.3012999892234802
6804.976364984867,1487449.0,0.22165000438690186,0.003809999907389283,-0.0013200000394135714,0.29910001158714294
6804.977364757083,1487450.0,0.19806000590324402,0.002630000002682209,0.002630000002682209,0.30382001399993896
6804.978364529298,1487451.0,0.17722000181674957,0.006399999838322401,-0.0015899999998509884,0.3000600039958954
6804.979364301513,1487452.0,0.1609099954366684,0.0019499999471008778,-4.999999873689376e-05,0.30500999093055725
6804.980364073728,1487453.0,0.14762000739574432,0.001769999973475933,-0.002090000081807375,0.2924700081348419
6804.981363845944,1487454.0,0.13188999891281128,0.0002300000051036477,0.0025400000158697367,0.3049600124359131
6804.982363618159,1487455.0,0.11258000135421753,-0.003860000055283308,-4.999999873689376e-05,0.2997399866580963
6804.9833633903745,1487456.0,0.09307999908924103,-0.007449999917298555,-0.005489999894052744,0.30098000168800354
6804.984363162589,1487457.0,0.07339999824762344,0.008170000277459621,-0.003000000026077032,0.30257999897003174
6804.9853629348045,1487458.0,0.057590000331401825,0.004679999779909849,-9.000000136438757e-05,0.2990100085735321
6804.98636270702,1487459.0,0.04433999955654144,0.0010000000474974513,0.003909999970346689,0.3048200011253357
6804.987362479235,1487460.0,0.037689998745918274,0.00031999999191612005,0.00031999999191612005,0.3020299971103668
6804.988362251451,1487461.0,0.03127000108361244,0.003949999809265137,0.0033599999733269215,0.2984200119972229
6804.989362023665,1487462.0,0.02425999939441681,0.005900000222027302,0.00203999993391335,0.30500999093055725
6804.990361795881,1487463.0,0.017249999567866325,-0.001180000021122396,-0.003909999970346689,0.3008899986743927
6804.991361568096,1487464.0,0.007910000160336494,-0.006680000107735395,0.0044999998062849045,0.290910005569458
6804.992361340312,1487465.0,-0.0008099999977275729,-0.015030000358819962,0.003909999970346689,0.2980499863624573
6804.993361112527,1487466.0,-0.007819999940693378,-0.01566999964416027,-0.000539999979082495,0.30500999093055725
6804.9943608847425,1487467.0,-0.01671000011265278,-0.00749000022187829,0.0037700000684708357,0.2991499900817871
6804.995360656957,1487468.0,-0.024170000106096268,-0.002589999930933118,0.0006799999973736703,0.2991499900817871
6804.9963604291725,1487469.0,-0.03260999917984009,0.004900000058114529,-0.001230000052601099,0.3027600049972534
6804.997360201388,1487470.0,-0.03971000015735626,0.005179999861866236,-0.003860000055283308,0.2912299931049347
6804.998359973603,1487471.0,-0.042319998145103455,0.005900000222027302,-0.004040000028908253,0.3028999865055084
6804.999359745819,1487472.0,-0.044520001858472824,0.006399999838322401,-0.0015899999998509884,0.30024999380111694
6805.000359518033,1487473.0,-0.04600000008940697,0.006490000057965517,0.003909999970346689,0.29708999395370483
6805.001359290249,1487474.0,-0.0451899990439415,0.006719999946653843,-0.0022299999836832285,0.30500999093055725
6805.002359062464,1487475.0,-0.04438000172376633,0.003220000071451068,0.00031999999191612005,0.3023500144481659
6805.00335883468,1487476.0,-0.0451899990439415,-0.003909999970346689,0.0011399999493733048,0.2903600037097931
6805.004358606895,1487477.0,-0.044610001146793365,-0.003719999920576811,-0.0027199999894946814,0.30098000168800354
6805.0053583791105,1487478.0,-0.04326000064611435,0.0,-0.0018599999602884054,0.30309000611305237
6805.006358151325,1487479.0,-0.03953000158071518,0.0071299998089671135,0.0002699999895412475,0.28953999280929565
6805.00735792354,1487480.0,-0.03387000039219856,0.005450000055134296,0.0024500000290572643,0.30024999380111694
6805.008357695756,1487481.0,-0.029109999537467957,0.007860000245273113,0.0,0.302949994802475
6805.009357467971,1487482.0,-0.02474999986588955,0.0045900000259280205,-0.002589999930933118,0.29708999395370483
6805.010357240187,1487483.0,-0.021609999239444733,0.005900000222027302,-0.0015899999998509884,0.3061099946498871
6805.011357012401,1487484.0,-0.019589999690651894,0.00031999999191612005,-0.0022700000554323196,0.299699991941452
6805.012356784617,1487485.0,-0.021379999816417694,-0.004040000028908253,9.000000136438757e-05,0.3014799952507019
6805.013356556832,1487486.0,-0.029020000249147415,-0.0034099998883903027,-0.0002300000051036477,0.3035399913787842
6805.014356329048,1487487.0,-0.04061000049114227,-0.005489999894052744,-0.0031300000846385956,0.29328998923301697
6805.015356101263,1487488.0,-0.05099000036716461,-0.006219999864697456,-0.002950000111013651,0.30327001214027405
6805.0163558734785,1487489.0,-0.06074000149965286,-0.0063599999994039536,0.0009500000160187483,0.30331000685691833
6805.017355645693,1487490.0,-0.06541000306606293,-0.0030400000978261232,0.005090000107884407,0.30066001415252686
6805.018355417908,1487491.0,-0.06351999938488007,0.00031999999191612005,0.0002699999895412475,0.3070699870586395
6805.019355190124,1487492.0,-0.057909999042749405,0.004129999782890081,-0.0031799999997019768,0.3008899986743927
6805.020354962339,1487493.0,-0.054179999977350235,0.004679999779909849,0.00014000000373926014,0.3037700057029724
6805.021354734555,1487494.0,-0.04967999830842018,0.0036299999337643385,0.003220000071451068,0.30500999093055725
6805.022354506769,1487495.0,-0.04569000005722046,0.0011399999493733048,-0.0031799999997019768,0.29767999053001404
6805.023354278985,1487496.0,-0.0442500002682209,0.002950000111013651,-0.0011399999493733048,0.3079400062561035
6805.0243540512,1487497.0,-0.04383999854326248,0.005309999920427799,0.0033599999733269215,0.29387998580932617
6805.025353823416,1487498.0,-0.043310001492500305,-0.0020000000949949026,0.005309999920427799,0.3075700104236603
6805.026353595631,1487499.0,-0.03765000030398369,-0.002950000111013651,-0.0013599999947473407,0.3034999966621399
6805.027353367846,1487500.0,-0.028119999915361404,-0.002589999930933118,-0.0016799999866634607,0.3024899959564209
6805.028353140061,1487501.0,-0.020980000495910645,-0.0014100000262260437,0.003909999970346689,0.3072499930858612
6805.029352912276,1487502.0,-0.015540000051259995,0.003220000071451068,0.00494999997317791,0.2991499900817871
6805.030352684492,1487503.0,-0.013340000063180923,0.0027199999894946814,0.000910000002477318,0.3061099946498871
6805.031352456707,1487504.0,-0.018239999189972878,0.001820000004954636,-0.004860000219196081,0.3070699870586395
6805.032352228923,1487505.0,-0.02273000031709671,0.0024999999441206455,-0.0037700000684708357,0.2947100102901459
6805.033352001137,1487506.0,-0.028209999203681946,-0.0021800000686198473,-0.0011399999493733048,0.30976998805999756
6805.034351773353,1487507.0,-0.0340999998152256,9.000000136438757e-05,0.002859999891370535,0.3040499985218048
6805.035351545568,1487508.0,-0.04213999956846237,-0.006719999946653843,0.00571999978274107,0.3058300018310547
6805.036351317784,1487509.0,-0.05031000077724457,-0.005679999943822622,-0.003719999920576811,0.30976998805999756
6805.037351089999,1487510.0,-0.05480999872088432,0.00031999999191612005,-0.0037700000684708357,0.298550009727478
6805.038350862214,1487511.0,-0.055969998240470886,-0.0005000000237487257,-0.00418000016361475,0.3082999885082245
6805.039350634429,1487512.0,-0.054269999265670776,-0.005630000028759241,0.003449999960139394,0.3100000023841858
6805.040350406644,1487513.0,-0.049059998244047165,0.00031999999191612005,0.0021299999207258224,0.3036800026893616
6805.04135017886,1487514.0,-0.04258999973535538,-0.000859999970998615,-0.003000000026077032,0.3091700077056885
6805.042349951075,1487515.0,-0.03593999892473221,0.001769999973475933,-0.0018599999602884054,0.30820998549461365
6805.043349723291,1487516.0,-0.0301900003105402,0.0008200000156648457,0.0010000000474974513,0.30601999163627625
6805.044349495505,1487517.0,-0.0276699997484684,-0.0011399999493733048,0.005859999917447567,0.312610000371933
6805.045349267721,1487518.0,-0.02694999985396862,0.008270000107586384,-0.004449999891221523,0.3012999892234802
6805.046349039936,1487519.0,-0.024569999426603317,0.005539999809116125,-0.002589999930933118,0.3108699917793274
6805.0473488121515,1487520.0,-0.015949999913573265,0.006680000107735395,0.00031999999191612005,0.3085300028324127
6805.048348584367,1487521.0,-0.0035000001080334187,0.013810000382363796,0.0006799999973736703,0.3079800009727478
6805.0493483565815,1487522.0,0.004670000169426203,0.004679999779909849,0.004629999864846468,0.31352001428604126
6805.050348128797,1487523.0,0.005750000011175871,0.00031999999191612005,-0.0021299999207258224,0.3014799952507019
6805.051347901012,1487524.0,0.0037700000684708357,0.00031999999191612005,-0.0010400000028312206,0.31178000569343567
6805.052347673228,1487525.0,-0.0029200001154094934,-0.00014000000373926014,-0.0036800000816583633,0.3131999969482422
6805.053347445443,1487526.0,-0.016170000657439232,-0.0019499999471008778,-0.0027699999045580626,0.30138999223709106
6805.054347217658,1487527.0,-0.027629999443888664,-0.005309999920427799,-0.0011399999493733048,0.31292998790740967
6805.055346989873,1487528.0,-0.03359999880194664,0.00031999999191612005,0.0019099999917671084,0.30889999866485596
6805.056346762089,1487529.0,-0.031449999660253525,-0.0013200000394135714,-0.004809999838471413,0.3119699954986572
6805.057346534304,1487530.0,-0.02865999937057495,-0.005900000222027302,-0.00041000000783242285,0.3127399981021881
6805.0583463065195,1487531.0,-0.028209999203681946,-0.0009500000160187483,0.0014100000262260437,0.3119699954986572
6805.059346078735,1487532.0,-0.027580000460147858,-4.999999873689376e-05,0.0002699999895412475,0.31672999262809753
6805.0603458509495,1487533.0,-0.02686000056564808,-0.002589999930933118,-0.003860000055283308,0.3012999892234802
6805.061345623165,1487534.0,-0.02515999972820282,-0.0007300000288523734,0.0013200000394135714,0.31746000051498413
6805.06234539538,1487535.0,-0.022099999710917473,0.001769999973475933,0.0009500000160187483,0.3123300075531006
6805.063345167596,1487536.0,-0.017470000311732292,0.0,0.003809999907389283,0.31380000710487366
6805.064344939811,1487537.0,-0.01343000028282404,-0.0051299999468028545,-0.0030400000978261232,0.3196600079536438
6805.065344712026,1487538.0,-0.00875999964773655,-0.0002300000051036477,0.002630000002682209,0.3077999949455261
6805.066344484241,1487539.0,-0.0017999999690800905,0.003000000026077032,0.004769999999552965,0.31804999709129333
6805.067344256457,1487540.0,0.005119999870657921,0.003949999809265137,-0.0044999998062849045,0.31942999362945557
6805.068344028672,1487541.0,0.010830000042915344,0.006680000107735395,-0.0015399999683722854,0.306659996509552
6805.0693438008875,1487542.0,0.014469999819993973,0.004310000222176313,-0.0007699999841861427,0.3196600079536438
6805.070343573103,1487543.0,0.014820000156760216,-0.0015399999683722854,-0.0011399999493733048,0.3181900084018707
6805.0713433453175,1487544.0,0.014019999653100967,-0.0033599999733269215,-0.0021800000686198473,0.31727999448776245
6805.072343117533,1487545.0,0.016489999368786812,-0.006949999835342169,0.0016799999866634607,0.32346001267433167
6805.073342889748,1487546.0,0.015270000323653221,-0.011309999972581863,0.0010400000028312206,0.31049999594688416
6805.074342661964,1487547.0,0.0088900001719594,-0.008580000139772892,-0.0033199999015778303,0.3239099979400635
6805.075342434179,1487548.0,-0.00018000000272877514,-0.005859999917447567,-0.0011399999493733048,0.31905999779701233
6805.076342206394,1487549.0,-0.009429999627172947,-0.0036800000816583633,0.0016799999866634607,0.32207998633384705
6805.077341978609,1487550.0,-0.014999999664723873,0.001769999973475933,0.00014000000373926014,0.32422998547554016
6805.078341750825,1487551.0,-0.014639999717473984,0.005679999943822622,-0.0024500000290572643,0.3221299946308136
6805.07934152304,1487552.0,-0.007189999800175428,0.0076299998909235,-0.0007699999841861427,0.3284499943256378
6805.0803412952555,1487553.0,0.0023399998899549246,0.0037700000684708357,0.004679999779909849,0.31310999393463135
6805.081341067471,1487554.0,0.007230000104755163,0.005179999861866236,-0.002950000111013651,0.3284499943256378
6805.0823408396855,1487555.0,0.006829999852925539,0.009039999917149544,-0.0031300000846385956,0.3241899907588959
6805.083340611901,1487556.0,0.0007600000244565308,0.013399999588727951,-0.00203999993391335,0.32986000180244446
6805.084340384116,1487557.0,-0.0070500001311302185,0.0045900000259280205,0.0013200000394135714,0.3233200013637543
6805.085340156332,1487558.0,-0.014550000429153442,-0.000859999970998615,-0.000859999970998615,0.33105000853538513
6805.086339928547,1487559.0,-0.014059999957680702,0.003220000071451068,-0.0017300000181421638,0.33160001039505005
6805.087339700762,1487560.0,-0.007550000213086605,0.005489999894052744,-0.0013599999947473407,0.31856000423431396
6805.088339472977,1487561.0,-0.0025599999353289604,0.00267999991774559,0.00031999999191612005,0.33577001094818115
6805.089339245193,1487562.0,0.0030499999411404133,-0.007400000002235174,-0.004040000028908253,0.33101001381874084
6805.090339017408,1487563.0,0.007910000160336494,-0.00953999999910593,-4.999999873689376e-05,0.33417001366615295
6805.0913387896235,1487564.0,0.01051000040024519,-0.014120000414550304,0.0010400000028312206,0.3377400040626526
6805.092338561839,1487565.0,0.008940000087022781,-0.010579999536275864,0.004040000028908253,0.3248699903488159
6805.093338334053,1487566.0,0.006870000157505274,-0.004410000052303076,-0.004809999838471413,0.3425000011920929
6805.094338106269,1487567.0,0.0026100000832229853,0.0013200000394135714,-0.005539999809116125,0.33421000838279724
6805.095337878484,1487568.0,-0.004399999976158142,0.003719999920576811,-0.0009500000160187483,0.3409000039100647
6805.0963376507,1487569.0,-0.010110000148415565,0.0009500000160187483,0.005590000189840794,0.3401600122451782
6805.097337422915,1487570.0,-0.010780000127851963,0.0030400000978261232,-0.004310000222176313,0.3401600122451782
6805.09833719513,1487571.0,-0.007910000160336494,0.0016799999866634607,-0.004129999782890081,0.3483999967575073
6805.099336967345,1487572.0,-0.004490000195801258,-0.005489999894052744,-0.0016799999866634607,0.34240999817848206
6805.100336739561,1487573.0,0.0007200000109151006,-0.0010400000028312206,0.00267999991774559,0.34470000863075256
6805.101336511776,1487574.0,0.00107999995816499,0.004769999999552965,0.004310000222176313,0.3518800139427185
6805.1023362839915,1487575.0,-0.0005799999926239252,0.00031999999191612005,-0.001500000013038516,0.34529000520706177
6805.103336056207,1487576.0,-0.006020000204443932,0.00031999999191612005,-0.0033199999015778303,0.3533500134944916
6805.104335828421,1487577.0,-0.0142000000923872,0.004129999782890081,-0.0011399999493733048,0.3386099934577942
6805.105335600637,1487578.0,-0.019050000235438347,0.00031999999191612005,0.0022299999836832285,0.3572399914264679
6805.106335372852,1487579.0,-0.015990000218153,0.00031999999191612005,0.006130000110715628,0.35326001048088074
6805.107335145068,1487580.0,-0.010060000233352184,0.006949999835342169,-0.0020000000949949026,0.35701000690460205
6805.108334917283,1487581.0,-0.007009999826550484,0.006949999835342169,-0.0018599999602884054,0.3595699965953827
6805.109334689498,1487582.0,-0.0014799999771639705,0.0036800000816583633,0.00031999999191612005,0.35846999287605286
6805.110334461713,1487583.0,0.005210000090301037,0.000859999970998615,-0.0009500000160187483,0.3635999858379364
6805.111334233929,1487584.0,0.003819999983534217,-0.0034099998883903027,-0.003220000071451068,0.3504199981689453
6805.112334006144,1487585.0,-0.002520000096410513,-0.008630000054836273,-0.004220000002533197,0.369049996137619
6805.113333778359,1487586.0,-0.008270000107586384,-0.00803999975323677,-0.00031999999191612005,0.36456000804901123
6805.114333550574,1487587.0,-0.009700000286102295,-0.005539999809116125,0.002589999930933118,0.3664900064468384
6805.115333322789,1487588.0,-0.011099999770522118,0.00031999999191612005,-0.00044999999227002263,0.3723900020122528
6805.116333095005,1487589.0,-0.012760000303387642,-0.001820000004954636,-0.0011399999493733048,0.36945998668670654
6805.11733286722,1487590.0,-0.010689999908208847,-0.0016299999551847577,0.0021800000686198473,0.375
6805.118332639436,1487591.0,-0.006149999797344208,0.002589999930933118,0.0002699999895412475,0.37669000029563904
6805.11933241165,1487592.0,-0.0024300001095980406,0.004220000002533197,-0.00494999997317791,0.3725300133228302
6805.120332183866,1487593.0,-0.003010000102221966,0.003220000071451068,-0.0011399999493733048,0.3839699923992157
6805.121331956081,1487594.0,-0.011009999550879002,0.005270000081509352,-0.001500000013038516,0.36800000071525574
6805.122331728297,1487595.0,-0.023269999772310257,-0.005679999943822622,0.0022700000554323196,0.3890100121498108
6805.123331500512,1487596.0,-0.03720000013709068,-0.0019099999917671084,0.001500000013038516,0.3833799958229065
6805.124331272727,1487597.0,-0.045820001512765884,-0.00875999964773655,0.005090000107884407,0.38964998722076416
6805.125331044942,1487598.0,-0.04473999887704849,-0.00880999956279993,0.0010400000028312206,0.39142999053001404
6805.126330817157,1487599.0,-0.039980001747608185,0.00535999983549118,-0.0007699999841861427,0.39083999395370483
6805.127330589373,1487600.0,-0.03468000143766403,0.010759999975562096,-0.002319999970495701,0.3953700065612793
6805.128330361588,1487601.0,-0.02785000018775463,0.007579999975860119,0.0016799999866634607,0.4008600115776062
6805.129330133804,1487602.0,-0.020570000633597374,0.010350000113248825,0.0024999999441206455,0.3976599872112274
6805.130329906018,1487603.0,-0.019589999690651894,0.00880999956279993,-0.006949999835342169,0.4069499969482422
6805.131329678234,1487604.0,-0.019139999523758888,-9.000000136438757e-05,0.0007699999841861427,0.4009599983692169
6805.132329450449,1487605.0,-0.01769999973475933,0.002859999891370535,-0.0019099999917671084,0.40790998935699463
6805.1333292226645,1487606.0,-0.021700000390410423,-0.0008200000156648457,0.003539999946951866,0.4089699983596802
6805.13432899488,1487607.0,-0.030319999903440475,-0.004629999864846468,-0.0033599999733269215,0.4095200002193451
6805.135328767095,1487608.0,-0.036660000681877136,-0.001769999973475933,-0.0027199999894946814,0.4192200005054474
6805.13632853931,1487609.0,-0.03844999894499779,-0.0006399999838322401,0.002319999970495701,0.4156000018119812
6805.137328311525,1487610.0,-0.03683999925851822,-0.003949999809265137,0.0015899999998509884,0.42214998602867126
6805.138328083741,1487611.0,-0.03773999959230423,-0.0052200001664459705,4.999999873689376e-05,0.42361000180244446
6805.139327855956,1487612.0,-0.04349000006914139,-0.0011399999493733048,0.006490000057965517,0.4189000129699707
6805.140327628172,1487613.0,-0.05012999847531319,-0.001769999973475933,-0.000910000002477318,0.43244999647140503
6805.141327400386,1487614.0,-0.05031000077724457,0.0009500000160187483,0.0013200000394135714,0.42897000908851624
6805.142327172602,1487615.0,-0.045010000467300415,0.008310000412166119,-0.007720000110566616,0.4365200102329254
6805.143326944817,1487616.0,-0.03711000084877014,0.005309999920427799,-0.002589999930933118,0.43487998843193054
6805.1443267170325,1487617.0,-0.027310000732541084,0.001769999973475933,0.00031999999191612005,0.4390000104904175
6805.145326489248,1487618.0,-0.0218299999833107,-0.0013200000394135714,-0.001500000013038516,0.4440299868583679
6805.146326261463,1487619.0,-0.0142000000923872,0.0019499999471008778,0.0030400000978261232,0.43830999732017517
6805.147326033678,1487620.0,-0.010599999688565731,0.003000000026077032,-0.003539999946951866,0.4533199965953827
6805.148325805893,1487621.0,-0.011370000429451466,0.002859999891370535,0.002630000002682209,0.4547399878501892
6805.149325578109,1487622.0,-0.01181000005453825,0.003590000094845891,0.002589999930933118,0.4533199965953827
6805.150325350324,1487623.0,-0.009789999574422836,0.0010400000028312206,-0.0006799999973736703,0.4437600076198578
6805.15132512254,1487624.0,-0.005210000090301037,-0.005489999894052744,0.00267999991774559,0.4619799852371216
6805.152324894754,1487625.0,-0.0033199999015778303,0.0036299999337643385,0.0019099999917671084,0.46535998582839966
6805.15332466697,1487626.0,-0.014109999872744083,-0.004449999891221523,-0.00267999991774559,0.4643099904060364
6805.154324439185,1487627.0,-0.030910000205039978,0.0015899999998509884,-0.002859999891370535,0.47113001346588135
6805.1553242114005,1487628.0,-0.045239999890327454,-0.003449999960139394,0.0016799999866634607,0.47374001145362854
6805.156323983616,1487629.0,-0.05345999822020531,-0.003719999920576811,-0.0017300000181421638,0.47530001401901245
6805.157323755831,1487630.0,-0.056379999965429306,-0.004410000052303076,-0.0022299999836832285,0.48541000485420227
6805.158323528046,1487631.0,-0.057679999619722366,0.0017300000181421638,-0.0015399999683722854,0.47672000527381897
6805.159323300261,1487632.0,-0.06055999919772148,0.00418000016361475,-0.000539999979082495,0.48917001485824585
6805.160323072477,1487633.0,-0.06145000085234642,0.003000000026077032,-0.0017300000181421638,0.4854600131511688
6805.161322844692,1487634.0,-0.05812999978661537,-0.0009500000160187483,0.00031999999191612005,0.4983699917793274
6805.162322616908,1487635.0,-0.05480999872088432,-0.003860000055283308,-0.00203999993391335,0.4954400062561035
6805.163322389122,1487636.0,-0.052650000900030136,0.00018000000272877514,-0.002589999930933118,0.49759000539779663
6805.164322161338,1487637.0,-0.046810001134872437,0.0010400000028312206,0.00031999999191612005,0.506879985332489
6805.165321933553,1487638.0,-0.03782999888062477,-0.001180000021122396,0.005950000137090683,0.4937399923801422
6805.1663217057685,1487639.0,-0.02686000056564808,0.00031999999191612005,-0.0007699999841861427,0.5122799873352051
6805.167321477984,1487640.0,-0.017969999462366104,0.0031799999997019768,-0.002859999891370535,0.5131999850273132
6805.168321250199,1487641.0,-0.014290000312030315,0.006769999861717224,-0.00031999999191612005,0.5142499804496765
6805.169321022414,1487642.0,-0.012310000136494637,0.004220000002533197,-0.00041000000783242285,0.5232700109481812
6805.170320794629,1487643.0,-0.00547999981790781,9.000000136438757e-05,-0.002630000002682209,0.5217999815940857
6805.171320566845,1487644.0,0.0012600000482052565,-0.0029100000392645597,-0.0010400000028312206,0.5273399949073792
6805.17232033906,1487645.0,0.001979999942705035,-0.002950000111013651,0.0021299999207258224,0.5295000076293945
6805.173320111276,1487646.0,-0.0027000000700354576,0.00014000000373926014,-0.0022299999836832285,0.5311400294303894
6805.17431988349,1487647.0,-0.009069999679923058,-0.00803999975323677,-0.002589999930933118,0.5389299988746643
6805.175319655706,1487648.0,-0.015809999778866768,-0.00686000008136034,0.003949999809265137,0.5273900032043457
6805.176319427921,1487649.0,-0.02425999939441681,-0.006539999973028898,0.0022299999836832285,0.5464299917221069
6805.1773192001365,1487650.0,-0.03305999934673309,-0.004900000058114529,-0.0007699999841861427,0.5463399887084961
6805.178318972352,1487651.0,-0.03872000053524971,0.00031999999191612005,0.0019099999917671084,0.5476199984550476
6805.179318744566,1487652.0,-0.04100999981164932,0.0019499999471008778,-0.000910000002477318,0.555079996585846
6805.180318516782,1487653.0,-0.036479998379945755,-0.002319999970495701,-0.0017300000181421638,0.5452399849891663
6805.181318288997,1487654.0,-0.028119999915361404,0.003719999920576811,-0.005489999894052744,0.5628200173377991
6805.182318061213,1487655.0,-0.022690000012516975,0.007860000245273113,0.0017300000181421638,0.5628200173377991
6805.183317833428,1487656.0,-0.02151999995112419,0.004089999943971634,0.0019499999471008778,0.5697799921035767
6805.184317605644,1487657.0,-0.01923000067472458,0.0002699999895412475,0.0024500000290572643,0.5626400113105774
6805.185317377858,1487658.0,-0.013930000364780426,-0.004040000028908253,0.000910000002477318,0.5760999917984009
6805.186317150074,1487659.0,-0.0022499999031424522,0.009990000165998936,-0.00041000000783242285,0.574999988079071
6805.187316922289,1487660.0,0.0129399998113513,0.017669999971985817,-0.002630000002682209,0.5817300081253052
6805.1883166945045,1487661.0,0.022280000150203705,0.004629999864846468,0.000859999970998615,0.5831900238990784
6805.18931646672,1487662.0,0.026590000838041306,0.0030400000978261232,-0.002589999930933118,0.5876799821853638
6805.190316238934,1487663.0,0.025469999760389328,-0.004360000137239695,0.00203999993391335,0.5939900279045105
6805.19131601115,1487664.0,0.019770000129938126,0.00031999999191612005,-0.0015399999683722854,0.5837399959564209
6805.192315783365,1487665.0,0.008270000107586384,0.0024500000290572643,-0.0008200000156648457,0.599810004234314
6805.193315555581,1487666.0,-0.011769999749958515,0.00031999999191612005,-0.003809999907389283,0.6031000018119812
6805.194315327796,1487667.0,-0.034860000014305115,-0.0036800000816583633,-0.0027699999045580626,0.6038399934768677
6805.195315100011,1487668.0,-0.053950000554323196,-0.00571999978274107,-0.002589999930933118,0.6089199781417847
6805.196314872226,1487669.0,-0.05835000053048134,-0.003809999907389283,0.002859999891370535,0.6140000224113464
6805.197314644442,1487670.0,-0.0528700016438961,-0.003220000071451068,0.0002300000051036477,0.608780026435852
6805.198314416657,1487671.0,-0.047029998153448105,-0.004269999917596579,-0.0021800000686198473,0.6220999956130981
6805.199314188872,1487672.0,-0.04383999854326248,-0.006219999864697456,0.002630000002682209,0.6211900115013123
6805.200313961088,1487673.0,-0.042089998722076416,-0.004410000052303076,0.004220000002533197,0.6263999938964844
6805.201313733302,1487674.0,-0.03943999856710434,-0.006310000084340572,-0.0007699999841861427,0.6308900117874146
6805.202313505518,1487675.0,-0.03943999856710434,0.00203999993391335,-0.000539999979082495,0.6270899772644043
6805.203313277733,1487676.0,-0.04357999935746193,0.002090000081807375,0.00031999999191612005,0.6389899849891663
6805.204313049949,1487677.0,-0.04600000008940697,0.0013200000394135714,0.0019499999471008778,0.6384000182151794
6805.205312822164,1487678.0,-0.0413299985229969,0.0037700000684708357,0.00031999999191612005,0.6463199853897095
6805.206312594379,1487679.0,-0.029829999431967735,0.0019099999917671084,-0.004000000189989805,0.6466400027275085
6805.207312366594,1487680.0,-0.01940999925136566,0.008129999972879887,0.00031999999191612005,0.6484699845314026
6805.20831213881,1487681.0,-0.018959999084472656,0.003220000071451068,0.00031999999191612005,0.6556500196456909
6805.209311911025,1487682.0,-0.021880000829696655,0.00267999991774559,0.0010400000028312206,0.6552900075912476
6805.21031168324,1487683.0,-0.023000000044703484,0.002859999891370535,-0.004040000028908253,0.6624299883842468
6805.211311455456,1487684.0,-0.023900000378489494,0.0010000000474974513,-0.006399999838322401,0.6649900078773499
6805.21231122767,1487685.0,-0.0258799996227026,-0.0033199999015778303,-0.001449999981559813,0.6642600297927856
6805.213310999886,1487686.0,-0.025520000606775284,-0.0033599999733269215,-0.001500000013038516,0.6733700037002563
6805.214310772101,1487687.0,-0.023669999092817307,-0.007309999782592058,-0.002630000002682209,0.6726800203323364
6805.215310544317,1487688.0,-0.019950000569224358,-0.01066999975591898,-0.00267999991774559,0.6800100207328796
6805.216310316532,1487689.0,-0.017880000174045563,-0.0024999999441206455,0.0027199999894946814,0.6811100244522095
6805.217310088747,1487690.0,-0.016620000824332237,0.004679999779909849,0.0031799999997019768,0.6813799738883972
6805.218309860962,1487691.0,-0.013659999705851078,0.0024999999441206455,0.0010000000474974513,0.6905400156974792
6805.2193096331775,1487692.0,-0.008940000087022781,0.003909999970346689,-0.002589999930933118,0.6887999773025513
6805.220309405393,1487693.0,-0.006289999932050705,-0.001230000052601099,0.0010400000028312206,0.6950700283050537
6805.221309177608,1487694.0,-0.004129999782890081,0.0021299999207258224,0.001769999973475933,0.698639988899231
6805.222308949824,1487695.0,0.003949999809265137,-0.0035000001080334187,-0.0011399999493733048,0.692870020866394
6805.223308722038,1487696.0,0.011859999969601631,-0.0027699999045580626,-0.0006399999838322401,0.707889974117279
6805.224308494254,1487697.0,0.012670000083744526,0.006680000107735395,0.0,0.7061499953269958
6805.225308266469,1487698.0,0.01221999991685152,0.009949999861419201,0.00203999993391335,0.7099900245666504
6805.226308038685,1487699.0,0.01607999950647354,0.006130000110715628,-0.0007699999841861427,0.7155299782752991
6805.2273078109,1487700.0,0.021290000528097153,0.006490000057965517,-0.0027699999045580626,0.7106800079345703
6805.228307583115,1487701.0,0.02281999960541725,0.012310000136494637,-0.0015899999998509884,0.723770022392273
6805.22930735533,1487702.0,0.020800000056624413,0.009170000441372395,0.004040000028908253,0.7217599749565125
6805.2303071275455,1487703.0,0.01761000044643879,0.003949999809265137,0.001769999973475933,0.7307299971580505
6805.231306899761,1487704.0,0.0129399998113513,0.0010000000474974513,0.0,0.7290800213813782
6805.232306671976,1487705.0,0.004360000137239695,-0.006719999946653843,-0.0010000000474974513,0.7338399887084961
6805.233306444192,1487706.0,-0.008630000054836273,-0.007360000163316727,-0.006630000192672014,0.737500011920929
6805.234306216406,1487707.0,-0.017249999567866325,-0.003909999970346689,-0.0013200000394135714,0.739329993724823
6805.235305988622,1487708.0,-0.020840000361204147,-0.009039999917149544,0.002319999970495701,0.7444599866867065
6805.236305760837,1487709.0,-0.03127000108361244,-0.005859999917447567,-0.0012700000079348683,0.7449600100517273
6805.237305533053,1487710.0,-0.04097000136971474,-0.004769999999552965,-0.0009500000160187483,0.7516499757766724
6805.238305305268,1487711.0,-0.03962000086903572,-0.003220000071451068,-0.0005000000237487257,0.7503200173377991
6805.239305077483,1487712.0,-0.0340999998152256,-0.0007699999841861427,-0.0013599999947473407,0.7584699988365173
6805.240304849698,1487713.0,-0.030820000916719437,0.0030900000128895044,0.0035000001080334187,0.7597500085830688
6805.2413046219135,1487714.0,-0.029069999232888222,0.0019499999471008778,0.004769999999552965,0.7580100297927856
6805.242304394129,1487715.0,-0.027939999476075172,0.00267999991774559,-0.0017300000181421638,0.7667099833488464
6805.243304166344,1487716.0,-0.02928999997675419,0.005400000140070915,-0.002630000002682209,0.7663000226020813
6805.244303938559,1487717.0,-0.02515999972820282,-0.0015399999683722854,-0.003809999907389283,0.7724300026893616
6805.245303710774,1487718.0,-0.017559999600052834,0.00031999999191612005,-0.0027699999045580626,0.7752199769020081
6805.24630348299,1487719.0,-0.007459999993443489,0.00031999999191612005,0.00031999999191612005,0.7761800289154053
6805.247303255205,1487720.0,0.005570000037550926,0.00031999999191612005,0.0022299999836832285,0.783050000667572
6805.248303027421,1487721.0,0.013570000417530537,0.0024999999441206455,-0.0002300000051036477,0.7820900082588196
6805.249302799636,1487722.0,0.016440000385046005,0.0021299999207258224,0.0009500000160187483,0.7897800207138062
6805.250302571851,1487723.0,0.013299999758601189,-0.002090000081807375,0.0002300000051036477,0.7869399785995483
6805.251302344066,1487724.0,0.0053900000639259815,0.00031999999191612005,-0.0009500000160187483,0.7951400279998779
6805.2523021162815,1487725.0,-0.0012100000167265534,0.0025400000158697367,-0.002319999970495701,0.7939000129699707
6805.253301888497,1487726.0,-0.009879999794065952,0.003949999809265137,0.00031999999191612005,0.8017299771308899
6805.254301660712,1487727.0,-0.01761000044643879,-0.0008200000156648457,-0.0033199999015778303,0.7990300059318542
6805.255301432927,1487728.0,-0.017340000718832016,-0.000859999970998615,-0.007579999975860119,0.8073999881744385
6805.256301205142,1487729.0,-0.011189999990165234,-0.004410000052303076,-0.0016799999866634607,0.8064900040626526
6805.257300977358,1487730.0,-0.006560000125318766,-0.005539999809116125,0.0030400000978261232,0.8082699775695801
6805.258300749573,1487731.0,-0.003229999914765358,-0.00913000013679266,0.0029100000392645597,0.8155099749565125
6805.259300521789,1487732.0,0.0014799999771639705,-0.0007699999841861427,0.003719999920576811,0.8133999705314636
6805.260300294003,1487733.0,0.0047599999234080315,0.0024999999441206455,-0.0019499999471008778,0.8198099732398987
6805.261300066219,1487734.0,0.0052999998442828655,0.001500000013038516,-0.0011399999493733048,0.8223699927330017
6805.262299838434,1487735.0,0.0017999999690800905,0.0014100000262260437,0.003220000071451068,0.8224599957466125
6805.2632996106495,1487736.0,-0.0003100000030826777,-0.003809999907389283,-0.0019099999917671084,0.8290600180625916
6805.264299382865,1487737.0,0.0028800000436604023,-0.0027699999045580626,0.0016799999866634607,0.814769983291626
6805.26529915508,1487738.0,0.005750000011175871,0.005539999809116125,-0.0036299999337643385,0.836329996585846
6805.266298927295,1487739.0,0.009879999794065952,0.0071299998089671135,-0.0009500000160187483,0.8376200199127197
6805.26729869951,1487740.0,0.0142000000923872,0.00494999997317791,0.0024500000290572643,0.8374800086021423
6805.268298471726,1487741.0,0.016170000657439232,0.009990000165998936,-0.00031999999191612005,0.8404099941253662
6805.269298243941,1487742.0,0.019859999418258667,0.009759999811649323,0.0019499999471008778,0.8476399779319763
6805.270298016157,1487743.0,0.021199999377131462,0.002630000002682209,-0.0010900000343099236,0.8492000102996826
6805.271297788371,1487744.0,0.023310000076889992,0.0027699999045580626,-0.0012700000079348683,0.8482800126075745
6805.272297560587,1487745.0,0.025429999455809593,0.00267999991774559,-0.0012700000079348683,0.8499299883842468
6805.273297332802,1487746.0,0.016979999840259552,-0.000539999979082495,0.0016799999866634607,0.85930997133255
6805.2742971050175,1487747.0,0.006649999879300594,-0.003909999970346689,-0.003539999946951866,0.8576200008392334
6805.275296877233,1487748.0,0.0033199999015778303,-0.0036800000816583633,0.00031999999191612005,0.8649899959564209
6805.276296649448,1487749.0,0.004579999949783087,-0.011309999972581863,-0.004410000052303076,0.8662700057029724
6805.277296421663,1487750.0,0.007550000213086605,-0.004769999999552965,-0.0016299999551847577,0.864579975605011
6805.278296193878,1487751.0,0.006829999852925539,-0.0028200000524520874,0.0018599999602884054,0.8724499940872192
6805.279295966094,1487752.0,-0.0014400000218302011,-0.003719999920576811,0.004040000028908253,0.8725900053977966
6805.280295738309,1487753.0,-0.009069999679923058,-0.003590000094845891,0.0002699999895412475,0.873960018157959
6805.281295510525,1487754.0,-0.004939999897032976,-0.0071299998089671135,4.999999873689376e-05,0.880649983882904
6805.282295282739,1487755.0,0.007819999940693378,-0.007670000195503235,-0.0008200000156648457,0.8779399991035461
6805.283295054955,1487756.0,0.01909000054001808,-0.007269999943673611,-0.0030400000978261232,0.8850899934768677
6805.28429482717,1487757.0,0.023760000243782997,0.003909999970346689,0.001769999973475933,0.8848599791526794
6805.285294599385,1487758.0,0.02676999941468239,0.005040000192821026,0.003539999946951866,0.8924999833106995
6805.286294371601,1487759.0,0.027580000460147858,0.007670000195503235,0.0010400000028312206,0.8897600173950195
6805.287294143816,1487760.0,0.026100000366568565,0.01071999967098236,-0.0018599999602884054,0.8965299725532532
6805.288293916031,1487761.0,0.026499999687075615,0.005590000189840794,-0.000910000002477318,0.8967999815940857
6805.289293688246,1487762.0,0.028929999098181725,0.004449999891221523,-0.000910000002477318,0.9004700183868408
6805.290293460462,1487763.0,0.03558000177145004,0.0036800000816583633,0.0013200000394135714,0.9055899977684021
6805.291293232677,1487764.0,0.03799999877810478,-0.0027199999894946814,-0.0013599999947473407,0.888979971408844
6805.292293004893,1487765.0,0.03454999998211861,-0.00875999964773655,-0.00494999997317791,0.9114500284194946
6805.293292777107,1487766.0,0.027310000732541084,-0.007899999618530273,0.00031999999191612005,0.9098100066184998
6805.294292549323,1487767.0,0.02443999983370304,0.0016299999551847577,0.00031999999191612005,0.915120005607605
6805.295292321538,1487768.0,0.020840000361204147,0.001230000052601099,0.004679999779909849,0.9157999753952026
6805.296292093753,1487769.0,0.009879999794065952,-0.0027199999894946814,-0.0019099999917671084,0.9185900092124939
6805.297291865969,1487770.0,0.001979999942705035,-0.004999999888241291,0.00031999999191612005,0.9239500164985657
6805.298291638184,1487771.0,0.0036800000816583633,-0.0006399999838322401,0.0017300000181421638,0.9231699705123901
6805.299291410399,1487772.0,0.009159999899566174,0.007579999975860119,0.0014100000262260437,0.9287999868392944
6805.300291182614,1487773.0,0.010420000180602074,0.011939999647438526,-0.006949999835342169,0.9315900206565857
6805.30129095483,1487774.0,0.008799999952316284,0.007720000110566616,0.0035000001080334187,0.9249600172042847
6805.302290727045,1487775.0,0.0027000000700354576,0.00686000008136034,0.006039999891072512,0.9376800060272217
6805.303290499261,1487776.0,-0.00107999995816499,0.0013200000394135714,-0.003449999960139394,0.9374499917030334
6805.304290271475,1487777.0,-0.00044999999227002263,-0.00494999997317791,-0.0022299999836832285,0.9378200173377991
6805.305290043691,1487778.0,0.002520000096410513,-0.004809999838471413,0.001769999973475933,0.9450100064277649
6805.306289815906,1487779.0,0.010420000180602074,-0.0037700000684708357,-0.0006399999838322401,0.943310022354126
6805.307289588121,1487780.0,0.020479999482631683,-0.002090000081807375,-0.0002300000051036477,0.9502699971199036
6805.308289360337,1487781.0,0.027130000293254852,-0.0030400000978261232,0.004360000137239695,0.9516000151634216
6805.309289132551,1487782.0,0.030910000205039978,0.0034099998883903027,-0.002319999970495701,0.9511899948120117
6805.310288904767,1487783.0,0.02857000008225441,0.01104000024497509,-0.007720000110566616,0.9590100049972534
6805.311288676982,1487784.0,0.023900000378489494,0.009990000165998936,-0.0010400000028312206,0.9566299915313721
6805.312288449198,1487785.0,0.023809999227523804,0.0035000001080334187,0.004999999888241291,0.9612600207328796
6805.313288221413,1487786.0,0.023579999804496765,-0.004000000189989805,9.000000136438757e-05,0.9660199880599976
6805.314287993629,1487787.0,0.021379999816417694,-0.007180000189691782,-0.0035000001080334187,0.9523299932479858
6805.315287765843,1487788.0,0.02143000066280365,-0.009759999811649323,-0.00031999999191612005,0.9715999960899353
6805.3162875380585,1487789.0,0.021649999544024467,-0.003719999920576811,0.0009500000160187483,0.9700499773025513
6805.317287310274,1487790.0,0.017069999128580093,-0.005489999894052744,0.00031999999191612005,0.9718800187110901
6805.318287082489,1487791.0,0.012849999591708183,-0.0021299999207258224,-0.006039999891072512,0.9775999784469604
6805.319286854705,1487792.0,0.008670000359416008,0.004679999779909849,-0.0019099999917671084,0.9770100116729736
6805.320286626919,1487793.0,0.0028800000436604023,0.004310000222176313,-0.002090000081807375,0.984279990196228
6805.321286399135,1487794.0,-0.0020699999295175076,0.0013200000394135714,0.00494999997317791,0.9822700023651123
6805.32228617135,1487795.0,-0.0028800000436604023,0.0010000000474974513,0.0016799999866634607,0.9876300096511841
6805.323285943566,1487796.0,0.0012600000482052565,0.0030400000978261232,0.0024500000290572643,0.9905499815940857
6805.324285715781,1487797.0,0.007550000213086605,-0.0011399999493733048,-0.004809999838471413,0.9788399934768677
6805.325285487996,1487798.0,0.004629999864846468,-0.002630000002682209,-0.002630000002682209,0.9960500001907349
6805.326285260211,1487799.0,-0.0013500000350177288,0.00267999991774559,0.0031300000846385956,0.9964100122451782
6805.3272850324265,1487800.0,0.0010300000431016088,0.005400000140070915,0.0014100000262260437,0.9989799857139587
6805.328284804642,1487801.0,0.013120000250637531,0.0072200000286102295,-0.0012700000079348683,1.000440001487732
6805.329284576857,1487802.0,0.023269999772310257,0.001500000013038516,0.0015399999683722854,1.0044699907302856
6805.330284349073,1487803.0,0.027990000322461128,-0.0059899999760091305,0.00014000000373926014,1.0037399530410767
6805.331284121287,1487804.0,0.029200000688433647,-0.004809999838471413,0.0030900000128895044,1.0103299617767334
6805.332283893503,1487805.0,0.02928999997675419,-0.00571999978274107,-0.004269999917596579,1.0074900388717651
6805.333283665718,1487806.0,0.028119999915361404,-0.0033599999733269215,-0.0018599999602884054,1.013260006904602
6805.334283437934,1487807.0,0.024800000712275505,-0.005539999809116125,-0.00041000000783242285,1.016010046005249
6805.335283210149,1487808.0,0.02111000008881092,-0.005179999861866236,0.0002699999895412475,1.0169199705123901
6805.336282982364,1487809.0,0.014379999600350857,0.007269999943673611,-0.006680000107735395,1.0187100172042847
6805.337282754579,1487810.0,0.007369999773800373,0.01066999975591898,-0.000539999979082495,1.0184799432754517
6805.3382825267945,1487811.0,0.006200000178068876,0.013399999588727951,-0.003269999986514449,1.0242899656295776
6805.33928229901,1487812.0,0.009929999709129333,0.0017300000181421638,0.0030900000128895044,1.0231499671936035
6805.340282071225,1487813.0,0.015270000323653221,0.003590000094845891,0.004269999917596579,1.0257099866867065
6805.341281843441,1487814.0,0.018689999356865883,0.004860000219196081,-0.0028200000524520874,1.0312000513076782
6805.342281615655,1487815.0,0.02263999916613102,-0.00041000000783242285,-0.002950000111013651,1.0290100574493408
6805.343281387871,1487816.0,0.02865999937057495,-0.0027699999045580626,-0.002589999930933118,1.0344500541687012
6805.344281160086,1487817.0,0.03149000182747841,-0.004040000028908253,0.007400000002235174,1.0326199531555176
6805.345280932302,1487818.0,0.03477000072598457,-0.01066999975591898,0.003539999946951866,1.0371099710464478
6805.346280704517,1487819.0,0.04123999923467636,-0.0011399999493733048,-0.002090000081807375,1.0403599739074707
6805.347280476732,1487820.0,0.04986000061035156,0.005770000163465738,0.001769999973475933,1.0374300479888916
6805.348280248947,1487821.0,0.05623999983072281,0.0011399999493733048,0.0025400000158697367,1.0429199934005737
6805.3492800211625,1487822.0,0.05632999911904335,0.009809999726712704,0.0014100000262260437,1.042099952697754
6805.350279793378,1487823.0,0.05345999822020531,0.007540000136941671,0.0016799999866634607,1.0449399948120117
6805.351279565593,1487824.0,0.05364000052213669,0.005770000163465738,-0.005489999894052744,1.049149990081787
6805.352279337809,1487825.0,0.05277999863028526,0.00031999999191612005,-0.004769999999552965,1.0462199449539185
6805.353279110023,1487826.0,0.04506000131368637,-0.008949999697506428,-0.002409999957308173,1.0525799989700317
6805.354278882239,1487827.0,0.03347000107169151,-0.006310000084340572,-0.0006399999838322401,1.0513900518417358
6805.355278654454,1487828.0,0.02363000065088272,-0.011850000359117985,0.0024500000290572643,1.051900029182434
6805.35627842667,1487829.0,0.019770000129938126,-0.010759999975562096,-0.002589999930933118,1.0566600561141968
6805.357278198885,1487830.0,0.020659999921917915,-0.005539999809116125,0.00031999999191612005,1.039080023765564
6805.3582779711,1487831.0,0.022910000756382942,-0.004040000028908253,0.0013200000394135714,1.0585299730300903
6805.359277743315,1487832.0,0.020659999921917915,0.0011399999493733048,9.000000136438757e-05,1.0590399503707886
6805.3602775155305,1487833.0,0.01769999973475933,0.002409999957308173,0.003220000071451068,1.0572099685668945
6805.361277287746,1487834.0,0.014059999957680702,0.007670000195503235,-0.004040000028908253,1.063249945640564
6805.362277059961,1487835.0,0.0142000000923872,0.006130000110715628,0.00018000000272877514,1.0604100227355957
6805.363276832177,1487836.0,0.01940999925136566,0.006130000110715628,0.0010000000474974513,1.0652600526809692
6805.364276604391,1487837.0,0.02515999972820282,-0.004040000028908253,-0.001500000013038516,1.0616899728775024
6805.365276376607,1487838.0,0.02785000018775463,-0.0014100000262260437,0.003220000071451068,1.067829966545105
6805.366276148822,1487839.0,0.024620000272989273,0.00031999999191612005,-0.0017300000181421638,1.0647599697113037
6805.367275921038,1487840.0,0.02273000031709671,0.003590000094845891,0.0008200000156648457,1.069659948348999
6805.368275693253,1487841.0,0.023989999666810036,0.007400000002235174,0.00031999999191612005,1.0537699460983276
6805.369275465468,1487842.0,0.029650000855326653,0.00535999983549118,-0.001500000013038516,1.0712100267410278
6805.370275237683,1487843.0,0.0301900003105402,-0.0002699999895412475,-0.0011399999493733048,1.0714900493621826
6805.371275009898,1487844.0,0.023180000483989716,0.004900000058114529,-0.004040000028908253,1.0695600509643555
6805.372274782114,1487845.0,0.02092999964952469,0.0012700000079348683,-0.0009500000160187483,1.0746899843215942
6805.373274554329,1487846.0,0.02012999914586544,0.0024999999441206455,0.00031999999191612005,1.070889949798584
6805.374274326544,1487847.0,0.014379999600350857,-0.001180000021122396,0.0029100000392645597,1.0777100324630737
6805.375274098759,1487848.0,0.007369999773800373,-0.005630000028759241,-0.0051299999468028545,1.0751999616622925
6805.376273870975,1487849.0,-0.000539999979082495,-0.00494999997317791,-0.00044999999227002263,1.0753300189971924
6805.37727364319,1487850.0,-0.007139999885112047,0.001769999973475933,0.001180000021122396,1.0784499645233154
6805.378273415406,1487851.0,-0.005840000230818987,-0.005489999894052744,0.002360000042244792,1.0755200386047363
6805.379273187621,1487852.0,0.00018000000272877514,-0.006219999864697456,0.0021800000686198473,1.080090045928955
6805.380272959836,1487853.0,0.005929999984800816,-0.00686000008136034,-0.003220000071451068,1.0755200386047363
6805.381272732051,1487854.0,0.0142000000923872,-0.011309999972581863,-0.00044999999227002263,1.0832099914550781
6805.382272504266,1487855.0,0.023719999939203262,-0.010350000113248825,0.005040000192821026,1.0811899900436401
6805.383272276482,1487856.0,0.0282600000500679,0.006039999891072512,0.00267999991774559,1.0810099840164185
6805.384272048697,1487857.0,0.028710000216960907,0.008860000409185886,-0.0015899999998509884,1.0855400562286377
6805.385271820912,1487858.0,0.027580000460147858,0.004679999779909849,-0.0019499999471008778,1.0766099691390991
6805.386271593127,1487859.0,0.03229999914765358,0.007579999975860119,-0.002589999930933118,1.085860013961792
6805.387271365343,1487860.0,0.039799999445676804,0.011490000411868095,-0.0007699999841861427,1.0832099914550781
6805.388271137558,1487861.0,0.046939998865127563,0.001449999981559813,-0.002090000081807375,1.0853999853134155
6805.389270909774,1487862.0,0.05201999843120575,9.000000136438757e-05,-0.0020000000949949026,1.0883300304412842
6805.390270681988,1487863.0,0.0530100017786026,-0.0005000000237487257,-0.004269999917596579,1.0842100381851196
6805.391270454204,1487864.0,0.04698999971151352,0.00031999999191612005,0.003809999907389283,1.0901199579238892
6805.392270226419,1487865.0,0.03799999877810478,-0.0016799999866634607,0.0014100000262260437,1.0784499645233154
6805.393269998634,1487866.0,0.03127000108361244,-0.004410000052303076,-0.0013599999947473407,1.0890699625015259
6805.39426977085,1487867.0,0.024979999288916588,0.00031999999191612005,-0.005040000192821026,1.0861400365829468
6805.395269543065,1487868.0,0.01621999964118004,0.003269999986514449,0.00031999999191612005,1.0901600122451782
6805.39626931528,1487869.0,0.008630000054836273,-0.004900000058114529,-0.00041000000783242285,1.088379979133606
6805.397269087495,1487870.0,0.004670000169426203,-0.005859999917447567,0.000910000002477318,1.0886499881744385
6805.398268859711,1487871.0,0.004579999949783087,0.0024999999441206455,0.0016799999866634607,1.0920000076293945
6805.399268631926,1487872.0,0.005210000090301037,-0.00044999999227002263,0.001230000052601099,1.087689995765686
6805.400268404142,1487873.0,0.010470000095665455,0.0010900000343099236,-0.0012700000079348683,1.091130018234253
6805.401268176356,1487874.0,0.023000000044703484,0.002859999891370535,-0.004860000219196081,1.0910300016403198
6805.4022679485715,1487875.0,0.034949999302625656,0.004679999779909849,0.0010400000028312206,1.089609980583191
6805.403267720787,1487876.0,0.039980001747608185,0.004310000222176313,0.00018000000272877514,1.0927300453186035
6805.404267493002,1487877.0,0.039400000125169754,-0.00041000000783242285,0.0051299999468028545,1.0901600122451782
6805.405267265218,1487878.0,0.03558000177145004,0.004129999782890081,-0.003719999920576811,1.0901600122451782
6805.406267037433,1487879.0,0.030820000916719437,-0.0011399999493733048,-0.004629999864846468,1.0930900573730469
6805.407266809648,1487880.0,0.02848000079393387,0.0021299999207258224,-0.0009500000160187483,1.086590051651001
6805.408266581863,1487881.0,0.02425999939441681,0.005810000002384186,-0.00031999999191612005,1.0905300378799438
6805.409266354079,1487882.0,0.01940999925136566,0.0045900000259280205,-0.0007300000288523734,1.0930900573730469
6805.410266126294,1487883.0,0.021199999377131462,-0.0007699999841861427,-0.004129999782890081,1.0822900533676147
6805.41126589851,1487884.0,0.020479999482631683,-0.0031300000846385956,-0.00041000000783242285,1.091629981994629
6805.412265670724,1487885.0,0.016170000657439232,-0.001180000021122396,0.00031999999191612005,1.0920000076293945
6805.4132654429395,1487886.0,0.010239999741315842,-0.0013200000394135714,0.002360000042244792,1.0872299671173096
6805.414265215155,1487887.0,0.0035000001080334187,-0.009080000221729279,0.0014100000262260437,1.0920000076293945
6805.41526498737,1487888.0,-0.003590000094845891,-0.008220000192523003,-0.001500000013038516,1.089020013809204
6805.416264759586,1487889.0,-0.006560000125318766,-0.00203999993391335,-0.004360000137239695,1.088420033454895
6805.417264531801,1487890.0,-0.007819999940693378,0.0030400000978261232,0.0015399999683722854,1.0912599563598633
6805.418264304016,1487891.0,-0.0033199999015778303,0.008489999920129776,0.004809999838471413,1.0866899490356445
6805.419264076231,1487892.0,0.007369999773800373,0.008670000359416008,-0.000910000002477318,1.09089994430542
6805.420263848447,1487893.0,0.013659999705851078,0.005040000192821026,0.0022299999836832285,1.083940029144287
6805.421263620662,1487894.0,0.013030000030994415,0.0024999999441206455,-0.00267999991774559,1.0872299671173096
6805.4222633928775,1487895.0,0.012760000303387642,-0.0035000001080334187,-0.000859999970998615,1.0880099534988403
6805.423263165092,1487896.0,0.013120000250637531,-0.00014000000373926014,-0.0013200000394135714,1.083340048789978
6805.4242629373075,1487897.0,0.01351999957114458,-0.00014000000373926014,-0.003809999907389283,1.0871000289916992
6805.425262709523,1487898.0,0.011950000189244747,-0.0028200000524520874,-0.0052200001664459705,1.0849000215530396
6805.426262481738,1487899.0,0.013659999705851078,0.0013200000394135714,-0.000590000010561198,1.081380009651184
6805.427262253954,1487900.0,0.021379999816417694,0.008170000277459621,-0.0007300000288523734,1.0843000411987305
6805.428262026169,1487901.0,0.03139999881386757,0.0029100000392645597,0.003590000094845891,1.0835700035095215
6805.429261798384,1487902.0,0.04083000123500824,0.0010400000028312206,-0.0019099999917671084,1.0719900131225586
6805.430261570599,1487903.0,0.04946000128984451,-0.000859999970998615,-0.0002300000051036477,1.082610011100769
6805.431261342815,1487904.0,0.05291999876499176,-0.0024500000290572643,0.0019499999471008778,1.0806900262832642
6805.43226111503,1487905.0,0.04958999902009964,0.0014100000262260437,-0.002319999970495701,1.0773500204086304
6805.4332608872455,1487906.0,0.04187000170350075,-0.002950000111013651,-0.0062699997797608376,1.0804100036621094
6805.43426065946,1487907.0,0.033649999648332596,-0.004310000222176313,0.001769999973475933,1.075469970703125
6805.4352604316755,1487908.0,0.025520000606775284,-0.007449999917298555,-0.004629999864846468,1.0784499645233154
6805.436260203891,1487909.0,0.01384000014513731,-0.0051299999468028545,0.0018599999602884054,1.0738699436187744
6805.437259976106,1487910.0,0.0053900000639259815,0.0012700000079348683,-0.0015399999683722854,1.0768400430679321
6805.438259748322,1487911.0,0.004269999917596579,-0.00203999993391335,-0.000590000010561198,1.0723600387573242
6805.439259520536,1487912.0,0.007770000025629997,0.00014000000373926014,-0.001230000052601099,1.0734599828720093
6805.440259292752,1487913.0,0.010599999688565731,-0.00041000000783242285,0.004449999891221523,1.0707099437713623
6805.441259064967,1487914.0,0.013930000364780426,-0.0011399999493733048,-0.0015899999998509884,1.0689200162887573
6805.442258837183,1487915.0,0.018869999796152115,0.004769999999552965,0.00031999999191612005,1.071619987487793
6805.443258609398,1487916.0,0.02394000068306923,0.0012700000079348683,0.002589999930933118,1.0635700225830078
6805.4442583816135,1487917.0,0.02807999961078167,0.0014100000262260437,0.00031999999191612005,1.0676900148391724
6805.445258153828,1487918.0,0.027489999309182167,-0.002319999970495701,-0.0019499999471008778,1.0652600526809692
6805.4462579260435,1487919.0,0.026680000126361847,0.00018000000272877514,-0.0016799999866634607,1.0623300075531006
6805.447257698259,1487920.0,0.030549999326467514,0.00949000008404255,-0.00041000000783242285,1.064710021018982
6805.448257470474,1487921.0,0.034860000014305115,0.0030400000978261232,0.001230000052601099,1.0592700242996216
6805.44925724269,1487922.0,0.03953000158071518,0.010990000329911709,0.0012700000079348683,1.0619699954986572
6805.450257014904,1487923.0,0.043310001492500305,0.014120000414550304,-0.005859999917447567,1.0592199563980103
6805.45125678712,1487924.0,0.045099999755620956,-0.000910000002477318,-0.003590000094845891,1.0539100170135498
6805.452256559335,1487925.0,0.05048999935388565,-0.0044999998062849045,-0.0006399999838322401,1.057800054550171
6805.453256331551,1487926.0,0.057190001010894775,-0.004720000084489584,-9.000000136438757e-05,1.0528099536895752
6805.454256103766,1487927.0,0.05412999913096428,-0.011850000359117985,0.0013599999947473407,1.054550051689148
6805.455255875981,1487928.0,0.04447000101208687,-0.010759999975562096,-0.0022700000554323196,1.0508899688720703
6805.456255648196,1487929.0,0.03652000054717064,-0.004269999917596579,-0.00014000000373926014,1.0479099750518799
6805.4572554204115,1487930.0,0.0325700007379055,-0.008129999972879887,0.0024999999441206455,1.0501999855041504
6805.458255192627,1487931.0,0.034460000693798065,-0.00014000000373926014,0.0033199999015778303,1.0341299772262573
6805.459254964842,1487932.0,0.03765000030398369,0.0052200001664459705,-0.002589999930933118,1.0472300052642822
6805.460254737058,1487933.0,0.0393499992787838,0.002090000081807375,0.0015899999998509884,1.0431499481201172
6805.461254509272,1487934.0,0.039400000125169754,0.00535999983549118,0.00031999999191612005,1.03957998752594
6805.462254281488,1487935.0,0.0350399985909462,0.014619999565184116,-0.0013599999947473407,1.0418200492858887
6805.463254053703,1487936.0,0.03369000181555748,0.009170000441372395,-0.00494999997317791,1.0257099866867065
6805.464253825919,1487937.0,0.0325700007379055,0.005590000189840794,-0.0015899999998509884,1.03889000415802
6805.465253598134,1487938.0,0.027580000460147858,-0.0030900000128895044,0.003220000071451068,1.0331300497055054
6805.466253370349,1487939.0,0.023809999227523804,0.005590000189840794,0.003719999920576811,1.0332200527191162
6805.467253142564,1487940.0,0.02201000042259693,0.009309999644756317,-0.0010900000343099236,1.0331699848175049
6805.468252914779,1487941.0,0.02102000080049038,0.006130000110715628,-0.0011399999493733048,1.0268100500106812
6805.469252686995,1487942.0,0.025790000334382057,0.0009500000160187483,-0.0007699999841861427,1.0306099653244019
6805.47025245921,1487943.0,0.032430000603199005,-0.013489999808371067,9.000000136438757e-05,1.0244300365447998
6805.471252231426,1487944.0,0.03305999934673309,-0.013220000080764294,0.0024500000290572643,1.0231499671936035
6805.47225200364,1487945.0,0.028389999642968178,-0.008580000139772892,-0.001769999973475933,1.0238800048828125
6805.473251775856,1487946.0,0.023269999772310257,-0.007400000002235174,-0.0033599999733269215,1.0186599493026733
6805.474251548071,1487947.0,0.014379999600350857,-0.00749000022187829,-0.003539999946951866,1.0182499885559082
6805.475251320287,1487948.0,0.002520000096410513,-0.011850000359117985,0.0018599999602884054,1.0191199779510498
6805.476251092502,1487949.0,-0.003860000055283308,-0.013399999588727951,0.004310000222176313,0.9980599880218506
6805.477250864717,1487950.0,-0.0052999998442828655,0.00203999993391335,-0.003449999960139394,1.0149999856948853
6805.478250636932,1487951.0,-0.002520000096410513,0.009170000441372395,-0.0031300000846385956,1.0081299543380737
6805.479250409147,1487952.0,0.004129999782890081,0.005270000081509352,-0.002589999930933118,1.0081299543380737
6805.480250181363,1487953.0,0.009340000338852406,0.002859999891370535,0.00203999993391335,1.0094599723815918
6805.481249953578,1487954.0,0.016349999234080315,0.0051299999468028545,-0.002090000081807375,0.9887199997901917
6805.482249725794,1487955.0,0.021609999239444733,0.001769999973475933,-0.001449999981559813,1.0020400285720825
6805.483249498008,1487956.0,0.0218299999833107,0.001500000013038516,0.0019499999471008778,1.002269983291626
6805.484249270224,1487957.0,0.02151999995112419,0.001230000052601099,0.00014000000373926014,0.9988899827003479
6805.485249042439,1487958.0,0.02525000087916851,0.003539999946951866,-0.00044999999227002263,0.9932600259780884
6805.486248814655,1487959.0,0.029600000008940697,0.001500000013038516,0.0030900000128895044,0.9958199858665466
6805.48724858687,1487960.0,0.03297000005841255,0.006990000139921904,0.002589999930933118,0.9890900254249573
6805.4882483590845,1487961.0,0.03413999825716019,0.012489999644458294,-0.002589999930933118,0.989359974861145
6805.4892481313,1487962.0,0.03248000144958496,0.008580000139772892,-0.003809999907389283,0.9884899854660034
6805.490247903515,1487963.0,0.026410000398755074,-0.0002300000051036477,0.0013599999947473407,0.9737100005149841
6805.491247675731,1487964.0,0.02071000076830387,-0.00018000000272877514,0.002090000081807375,0.9847000241279602
6805.492247447946,1487965.0,0.015629999339580536,-0.0016299999551847577,0.001449999981559813,0.9781000018119812
6805.493247220162,1487966.0,0.009700000286102295,-0.0036800000816583633,-0.005679999943822622,0.9776899814605713
6805.494246992376,1487967.0,0.005929999984800816,-0.0021299999207258224,-0.0029100000392645597,0.9775500297546387
6805.495246764592,1487968.0,0.006560000125318766,-0.0021299999207258224,0.001500000013038516,0.9713299870491028
6805.496246536807,1487969.0,0.008940000087022781,-0.007860000245273113,-0.0033199999015778303,0.9717900156974792
6805.497246309023,1487970.0,0.009390000253915787,-0.0036800000816583633,-0.004769999999552965,0.9715099930763245
6805.498246081238,1487971.0,0.00773000018671155,-0.0006399999838322401,0.0013200000394135714,0.9641900062561035
6805.4992458534525,1487972.0,0.007009999826550484,-0.0011399999493733048,0.002319999970495701,0.9663800001144409
6805.500245625668,1487973.0,0.009519999846816063,0.0013200000394135714,-0.000910000002477318,0.9605299830436707
6805.501245397883,1487974.0,0.015230000019073486,0.005679999943822622,-0.0011399999493733048,0.9594299793243408
6805.502245170099,1487975.0,0.020479999482631683,-0.0011399999493733048,-0.0014100000262260437,0.9593799710273743
6805.503244942314,1487976.0,0.02443999983370304,-0.001449999981559813,0.003590000094845891,0.954069972038269
6805.504244714529,1487977.0,0.02686000056564808,0.003719999920576811,0.0021800000686198473,0.9513700008392334
6805.505244486744,1487978.0,0.02443999983370304,0.003220000071451068,0.0028200000524520874,0.953249990940094
6805.50624425896,1487979.0,0.022369999438524246,0.003539999946951866,-0.000590000010561198,0.9451000094413757
6805.507244031175,1487980.0,0.023310000076889992,0.00031999999191612005,-0.0034099998883903027,0.9444100260734558
6805.5082438033905,1487981.0,0.027310000732541084,0.0031799999997019768,-0.000590000010561198,0.9412999749183655
6805.509243575606,1487982.0,0.03127000108361244,0.00203999993391335,9.000000136438757e-05,0.9436799883842468
6805.5102433478205,1487983.0,0.029920000582933426,-0.0013200000394135714,-0.0051299999468028545,0.9359400272369385
6805.511243120036,1487984.0,0.023900000378489494,-0.0018599999602884054,-0.0025400000158697367,0.9370899796485901
6805.512242892251,1487985.0,0.017389999702572823,-0.005950000137090683,0.00031999999191612005,0.9341599941253662
6805.513242664467,1487986.0,0.006560000125318766,-0.00803999975323677,9.000000136438757e-05,0.9299899935722351
6805.514242436682,1487987.0,-0.004310000222176313,-0.004860000219196081,-0.007040000054985285,0.9288899898529053
6805.515242208897,1487988.0,-0.009519999846816063,-0.0051299999468028545,-0.001820000004954636,0.9272000193595886
6805.516241981112,1487989.0,-0.009879999794065952,-0.003949999809265137,0.001769999973475933,0.9246399998664856
6805.517241753328,1487990.0,-0.006829999852925539,-0.0020000000949949026,0.00267999991774559,0.9187800288200378
6805.518241525543,1487991.0,0.0008500000112690032,0.0,0.004629999864846468,0.9202399849891663
6805.5192412977585,1487992.0,0.00547999981790781,0.006810000166296959,-0.0036800000816583633,0.9143800139427185
6805.520241069973,1487993.0,0.007009999826550484,0.003809999907389283,-0.0021800000686198473,0.9132800102233887
6805.5212408421885,1487994.0,0.008489999920129776,0.007180000189691782,0.0030900000128895044,0.9143800139427185
6805.522240614404,1487995.0,0.011989999562501907,0.006130000110715628,0.006039999891072512,0.8994100093841553
6805.523240386619,1487996.0,0.012760000303387642,0.002319999970495701,0.00031999999191612005,0.9103500247001648
6805.524240158835,1487997.0,0.008980000391602516,0.00031999999191612005,-0.0017300000181421638,0.9026600122451782
6805.52523993105,1487998.0,0.004399999976158142,0.004809999838471413,0.0006799999973736703,0.9006999731063843
6805.526239703265,1487999.0,0.0017999999690800905,0.004220000002533197,0.0006799999973736703,0.9008299708366394
6805.52723947548,1488000.0,0.0048500001430511475,0.0022700000554323196,-0.0019099999917671084,0.8860499858856201
6805.528239247696,1488001.0,0.011859999969601631,0.00018000000272877514,0.004679999779909849,0.8967999815940857
6805.529239019911,1488002.0,0.018239999189972878,0.0037700000684708357,0.005040000192821026,0.8893899917602539
6805.5302387921265,1488003.0,0.02022000029683113,-0.0034099998883903027,-0.006680000107735395,0.8909500241279602
6805.531238564341,1488004.0,0.019050000235438347,-0.002589999930933118,-0.00494999997317791,0.8848999738693237
6805.5322383365565,1488005.0,0.018689999356865883,-0.004040000028908253,-0.0002699999895412475,0.8834800124168396
6805.533238108772,1488006.0,0.016979999840259552,-0.00839999970048666,0.00031999999191612005,0.8825200200080872
6805.534237880987,1488007.0,0.014550000429153442,-0.011350000277161598,-0.0029100000392645597,0.8675100207328796
6805.535237653203,1488008.0,0.009700000286102295,-0.007309999782592058,-0.004040000028908253,0.8788099884986877
6805.536237425418,1488009.0,0.00215999991632998,-0.004410000052303076,-0.0014100000262260437,0.8709400296211243
6805.537237197633,1488010.0,-0.005439999978989363,0.00018000000272877514,0.004129999782890081,0.8657699823379517
6805.538236969848,1488011.0,-0.011099999770522118,0.0027699999045580626,-0.002630000002682209,0.8695200085639954
6805.539236742064,1488012.0,-0.012489999644458294,-0.0036800000816583633,0.0019499999471008778,0.8664100170135498
6805.540236514279,1488013.0,-0.009700000286102295,0.004310000222176313,0.0025400000158697367,0.8605499863624573
6805.5412362864945,1488014.0,-0.006289999932050705,0.00795000046491623,-0.0012700000079348683,0.8616499900817871
6805.542236058709,1488015.0,-0.001979999942705035,0.01744000054895878,-0.000859999970998615,0.8554199934005737
6805.5432358309245,1488016.0,0.0028800000436604023,0.006990000139921904,-0.001500000013038516,0.854420006275177
6805.54423560314,1488017.0,0.0020699999295175076,0.007449999917298555,0.00031999999191612005,0.8528599739074707
6805.545235375355,1488018.0,-0.0031900000758469105,-0.000539999979082495,0.00031999999191612005,0.847000002861023
6805.546235147571,1488019.0,-0.003949999809265137,0.001820000004954636,0.001769999973475933,0.8440700173377991
6805.547234919786,1488020.0,0.0016199999954551458,0.0027699999045580626,-0.0013200000394135714,0.8450800180435181
6805.548234692001,1488021.0,0.008270000107586384,0.0027699999045580626,-0.0015399999683722854,0.8234300017356873
6805.549234464216,1488022.0,0.015629999339580536,0.003220000071451068,0.006539999973028898,0.8407700061798096
6805.550234236432,1488023.0,0.02191999927163124,-0.0007300000288523734,-0.0033199999015778303,0.8334500193595886
6805.551234008647,1488024.0,0.021250000223517418,-0.000590000010561198,-0.000910000002477318,0.8348699808120728
6805.5522337808625,1488025.0,0.018239999189972878,-0.006579999811947346,0.001500000013038516,0.8283200263977051
6805.553233553077,1488026.0,0.01181000005453825,-0.003539999946951866,-0.006719999946653843,0.8259400129318237
6805.554233325292,1488027.0,0.001979999942705035,-0.009850000031292439,-0.001230000052601099,0.8242999911308289
6805.555233097508,1488028.0,-0.005119999870657921,-0.004040000028908253,0.0007699999841861427,0.8190799951553345
6805.556232869723,1488029.0,-0.005169999785721302,-0.008129999972879887,-0.0017300000181421638,0.8195300102233887
6805.557232641939,1488030.0,-0.003590000094845891,-0.003220000071451068,0.0028200000524520874,0.8101999759674072
6805.558232414154,1488031.0,-0.0023799999617040157,0.00031999999191612005,-0.0008200000156648457,0.8156899809837341
6805.559232186369,1488032.0,-0.005659999791532755,-0.0033199999015778303,-0.0031799999997019768,0.807449996471405
6805.560231958584,1488033.0,-0.009390000253915787,0.0016799999866634607,0.0016799999866634607,0.8088200092315674
6805.5612317308,1488034.0,-0.011719999834895134,-0.0020000000949949026,-0.0013200000394135714,0.8019599914550781
6805.562231503015,1488035.0,-0.01217000000178814,0.0064500002190470695,0.00031999999191612005,0.8030099868774414
6805.5632312752305,1488036.0,-0.011140000075101852,0.00839999970048666,0.00031999999191612005,0.7963700294494629
6805.564231047445,1488037.0,-0.011680000461637974,0.003539999946951866,-9.000000136438757e-05,0.7972000241279602
6805.56523081966,1488038.0,-0.012760000303387642,0.001769999973475933,0.0037700000684708357,0.7905600070953369
6805.566230591876,1488039.0,-0.007009999826550484,-0.00571999978274107,0.005400000140070915,0.7884100079536438
6805.567230364091,1488040.0,0.004579999949783087,9.000000136438757e-05,-0.00014000000373926014,0.789870023727417
6805.568230136307,1488041.0,0.016130000352859497,0.005770000163465738,-0.0021800000686198473,0.7813599705696106
6805.569229908521,1488042.0,0.02071000076830387,0.008670000359416008,-0.006949999835342169,0.7821800112724304
6805.570229680737,1488043.0,0.0175199992954731,0.00949000008404255,-0.0063599999994039536,0.777649998664856
6805.571229452952,1488044.0,0.01051000040024519,0.0022299999836832285,-0.0013200000394135714,0.7737600207328796
6805.572229225168,1488045.0,0.0008099999977275729,-0.010350000113248825,0.004129999782890081,0.7759100198745728
6805.573228997383,1488046.0,-0.010599999688565731,-0.011850000359117985,-0.0019499999471008778,0.768809974193573
6805.574228769598,1488047.0,-0.020479999482631683,-0.005859999917447567,-0.0031300000846385956,0.7689499855041504
6805.575228541813,1488048.0,-0.026590000838041306,-0.0012700000079348683,0.0033199999015778303,0.7613099813461304
6805.576228314028,1488049.0,-0.02928999997675419,-0.0013599999947473407,0.004449999891221523,0.7631400227546692
6805.577228086244,1488050.0,-0.030910000205039978,-0.006579999811947346,-0.0024500000290572643,0.7561799883842468
6805.578227858459,1488051.0,-0.029239999130368233,-0.007770000025629997,0.00014000000373926014,0.7579200267791748
6805.579227630675,1488052.0,-0.025919999927282333,-0.0051299999468028545,0.004629999864846468,0.7554500102996826
6805.580227402889,1488053.0,-0.023310000076889992,0.00014000000373926014,-0.004679999779909849,0.7500900030136108
6805.581227175105,1488054.0,-0.02012999914586544,0.017260000109672546,-0.004769999999552965,0.7516899704933167
6805.58222694732,1488055.0,-0.019680000841617584,0.011939999647438526,-0.002859999891370535,0.7436800003051758
6805.583226719536,1488056.0,-0.014379999600350857,0.003949999809265137,0.001230000052601099,0.7432299852371216
6805.584226491751,1488057.0,-0.008630000054836273,0.003590000094845891,0.0024999999441206455,0.7442799806594849
6805.5852262639655,1488058.0,-0.008089999668300152,0.003220000071451068,0.0015899999998509884,0.7351199984550476
6805.586226036181,1488059.0,-0.01095999963581562,-0.00031999999191612005,-0.002950000111013651,0.7351700067520142
6805.587225808396,1488060.0,-0.011859999969601631,-0.0022299999836832285,0.00031999999191612005,0.7364000082015991
6805.588225580612,1488061.0,-0.009970000013709068,0.006130000110715628,-0.0021299999207258224,0.7315999865531921
6805.589225352827,1488062.0,-0.00547999981790781,0.0019099999917671084,0.001769999973475933,0.7279800176620483
6805.590225125043,1488063.0,-0.003100000089034438,-0.001500000013038516,0.0009500000160187483,0.7296299934387207
6805.591224897257,1488064.0,-0.0017999999690800905,0.0016799999866634607,-0.0015399999683722854,0.7054600119590759
6805.592224669473,1488065.0,-0.0028800000436604023,-0.004629999864846468,-0.0010000000474974513,0.7239099740982056
6805.593224441688,1488066.0,-0.008449999615550041,-0.003860000055283308,-0.004809999838471413,0.721019983291626
6805.5942242139035,1488067.0,-0.016939999535679817,-0.007899999618530273,-0.0008200000156648457,0.7151600122451782
6805.595223986119,1488068.0,-0.029829999431967735,-0.004679999779909849,0.0030900000128895044,0.7170000076293945
6805.5962237583335,1488069.0,-0.03971000015735626,-0.005950000137090683,-0.003449999960139394,0.7139300107955933
6805.597223530549,1488070.0,-0.041510000824928284,-0.0051299999468028545,-0.000859999970998615,0.7089800238609314
6805.598223302764,1488071.0,-0.039980001747608185,-0.003449999960139394,-0.001230000052601099,0.7106299996376038
6805.59922307498,1488072.0,-0.03880999982357025,-0.002589999930933118,0.00031999999191612005,0.7085700035095215
6805.600222847195,1488073.0,-0.03423000127077103,0.001230000052601099,0.0010900000343099236,0.695389986038208
6805.601222619411,1488074.0,-0.025699999183416367,0.006039999891072512,0.003860000055283308,0.7019799947738647
6805.602222391625,1488075.0,-0.0185100007802248,0.0008200000156648457,-0.0017300000181421638,0.7034500241279602
6805.603222163841,1488076.0,-0.012760000303387642,0.0035000001080334187,-0.0010000000474974513,0.6873300075531006
6805.604221936056,1488077.0,-0.008089999668300152,0.01066999975591898,-0.005539999809116125,0.698140025138855
6805.6052217082715,1488078.0,-0.0008999999845400453,0.0072200000286102295,0.0015899999998509884,0.6963499784469604
6805.606221480487,1488079.0,0.005969999823719263,0.002950000111013651,0.0019499999471008778,0.6759799718856812
6805.6072212527015,1488080.0,0.00547999981790781,-0.0017300000181421638,0.0002300000051036477,0.6915900111198425
6805.608221024917,1488081.0,0.0012600000482052565,0.0014100000262260437,0.001769999973475933,0.6910899877548218
6805.609220797132,1488082.0,-0.0023399998899549246,0.0027699999045580626,-0.003809999907389283,0.6800100207328796
6805.610220569348,1488083.0,-0.006779999937862158,0.0007300000288523734,-0.0019099999917671084,0.6846299767494202
6805.611220341563,1488084.0,-0.009030000306665897,-0.002630000002682209,-0.00018000000272877514,0.6849499940872192
6805.612220113779,1488085.0,-0.008270000107586384,-0.0009500000160187483,0.00031999999191612005,0.6637099981307983
6805.613219885993,1488086.0,-0.011680000461637974,-0.002950000111013651,0.0012700000079348683,0.6800100207328796
6805.614219658209,1488087.0,-0.021469999104738235,-0.002589999930933118,-0.0018599999602884054,0.6759799718856812
6805.615219430424,1488088.0,-0.03027999959886074,-0.00031999999191612005,-0.002589999930933118,0.6741499900817871
6805.6162192026395,1488089.0,-0.033959999680519104,0.0014100000262260437,0.000859999970998615,0.677079975605011
6805.617218974855,1488090.0,-0.03612000122666359,0.002319999970495701,0.001820000004954636,0.6675599813461304
6805.6182187470695,1488091.0,-0.03683999925851822,-0.0022299999836832285,0.003539999946951866,0.6692000031471252
6805.619218519285,1488092.0,-0.03598000109195709,0.0015899999998509884,-0.0019099999917671084,0.6712200045585632
6805.6202182915,1488093.0,-0.03468000143766403,0.00031999999191612005,-0.00418000016361475,0.6543300151824951
6805.621218063716,1488094.0,-0.029510000720620155,0.005040000192821026,-0.00418000016361475,0.6652200222015381
6805.622217835931,1488095.0,-0.022509999573230743,-0.002409999957308173,-0.0013599999947473407,0.66389000415802
6805.623217608147,1488096.0,-0.01761000044643879,-0.003860000055283308,0.0036299999337643385,0.6600000262260437
6805.624217380361,1488097.0,-0.01384000014513731,-0.003590000094845891,-0.0012700000079348683,0.6603699922561646
6805.625217152577,1488098.0,-0.012350000441074371,-0.000910000002477318,-0.00203999993391335,0.6543700098991394
6805.626216924792,1488099.0,-0.007009999826550484,0.003949999809265137,0.00014000000373926014,0.655239999294281
6805.6272166970075,1488100.0,0.004809999838471413,0.0012700000079348683,0.0030900000128895044,0.6561599969863892
6805.628216469223,1488101.0,0.016130000352859497,0.0012700000079348683,-0.004040000028908253,0.6419199705123901
6805.6292162414375,1488102.0,0.023310000076889992,0.007809999864548445,0.0,0.6507099866867065
6805.630216013653,1488103.0,0.023310000076889992,0.002859999891370535,0.0002699999895412475,0.6501200199127197
6805.631215785868,1488104.0,0.018689999356865883,0.00031999999191612005,0.0010400000028312206,0.6454499959945679
6805.632215558084,1488105.0,0.010239999741315842,-0.0037700000684708357,-0.003719999920576811,0.647599995136261
6805.633215330299,1488106.0,-0.003370000049471855,-0.006539999973028898,-0.0027699999045580626,0.6410099864006042
6805.634215102514,1488107.0,-0.0185100007802248,-0.00044999999227002263,-0.0016799999866634607,0.6408200263977051
6805.635214874729,1488108.0,-0.029740000143647194,-0.0027699999045580626,0.0013599999947473407,0.6422899961471558
6805.636214646945,1488109.0,-0.03723999857902527,-0.00949000008404255,0.0031300000846385956,0.641510009765625
6805.63721441916,1488110.0,-0.03773999959230423,-0.009039999917149544,0.004040000028908253,0.6362500190734863
6805.6382141913755,1488111.0,-0.03499000146985054,-0.0011399999493733048,-0.0011399999493733048,0.6353800296783447
6805.639213963591,1488112.0,-0.03220999985933304,-0.000539999979082495,-9.000000136438757e-05,0.6352400183677673
6805.640213735805,1488113.0,-0.02897999994456768,0.00535999983549118,-0.004040000028908253,0.6356499791145325
6805.641213508021,1488114.0,-0.024890000000596046,0.004310000222176313,-0.0021299999207258224,0.6243900060653687
6805.642213280236,1488115.0,-0.01981000043451786,0.008860000409185886,0.000859999970998615,0.6315799951553345
6805.643213052452,1488116.0,-0.015720000490546227,0.0071299998089671135,-0.0022700000554323196,0.6236100196838379
6805.644212824667,1488117.0,-0.01384000014513731,0.004679999779909849,0.006130000110715628,0.6287400126457214
6805.645212596882,1488118.0,-0.01092000026255846,0.00031999999191612005,-0.0022299999836832285,0.6223300099372864
6805.646212369097,1488119.0,-0.006560000125318766,0.0014100000262260437,-0.002589999930933118,0.625760018825531
6805.647212141313,1488120.0,0.0014400000218302011,0.004089999943971634,-0.00203999993391335,0.61913001537323
6805.648211913528,1488121.0,0.008539999835193157,0.00031999999191612005,0.001769999973475933,0.6226500272750854
6805.6492116857435,1488122.0,0.016170000657439232,-0.005489999894052744,0.0,0.6192200183868408
6805.650211457958,1488123.0,0.019680000841617584,0.002360000042244792,-0.003000000026077032,0.6183900237083435
6805.651211230173,1488124.0,0.017389999702572823,0.005040000192821026,0.001449999981559813,0.6159700155258179
6805.652211002389,1488125.0,0.010239999741315842,-0.0021299999207258224,0.00031999999191612005,0.6151400208473206
6805.653210774604,1488126.0,-0.00107999995816499,-0.0006399999838322401,0.00031999999191612005,0.6162899732589722
6805.65421054682,1488127.0,-0.014019999653100967,-0.006039999891072512,0.0014100000262260437,0.6129900217056274
6805.655210319035,1488128.0,-0.025429999455809593,-0.00418000016361475,0.0018599999602884054,0.6119800209999084
6805.65621009125,1488129.0,-0.03472999855875969,0.0016299999551847577,0.001769999973475933,0.6097000241279602
6805.657209863465,1488130.0,-0.03863000124692917,0.00031999999191612005,0.0024999999441206455,0.6122099757194519
6805.658209635681,1488131.0,-0.03602999821305275,0.0012700000079348683,0.0008200000156648457,0.5979800224304199
6805.659209407896,1488132.0,-0.031220000237226486,-0.0008200000156648457,-0.0019499999471008778,0.6086900234222412
6805.660209180111,1488133.0,-0.02525000087916851,-0.0011399999493733048,-0.004129999782890081,0.6056699752807617
6805.661208952326,1488134.0,-0.02515999972820282,-0.001500000013038516,-0.006130000110715628,0.5946800112724304
6805.662208724541,1488135.0,-0.02515999972820282,-0.006769999861717224,-0.0019099999917671084,0.602649986743927
6805.663208496757,1488136.0,-0.019770000129938126,-0.006219999864697456,-0.0009500000160187483,0.6038399934768677
6805.664208268972,1488137.0,-0.012129999697208405,-0.010490000247955322,0.004040000028908253,0.5997599959373474
6805.665208041188,1488138.0,-0.004040000028908253,-0.003449999960139394,-0.001769999973475933,0.5921199917793274
6805.666207813403,1488139.0,0.00547999981790781,0.003220000071451068,0.00031999999191612005,0.5971999764442444
6805.667207585618,1488140.0,0.015540000051259995,0.007400000002235174,0.001230000052601099,0.599399983882904
6805.668207357833,1488141.0,0.02263999916613102,0.00686000008136034,0.0012700000079348683,0.596560001373291
6805.669207130049,1488142.0,0.02363000065088272,0.0022299999836832285,0.002859999891370535,0.5870400071144104
6805.670206902264,1488143.0,0.018239999189972878,0.003949999809265137,0.0010400000028312206,0.5921199917793274
6805.671206674479,1488144.0,0.012529999949038029,0.01143999956548214,0.00203999993391335,0.5930299758911133
6805.672206446694,1488145.0,0.01131999958306551,0.007079999893903732,-9.000000136438757e-05,0.5938599705696106
6805.673206218909,1488146.0,0.008179999887943268,0.0007699999841861427,-0.0005000000237487257,0.5862600207328796
6805.674205991125,1488147.0,-0.0018400000408291817,-0.005950000137090683,0.0010400000028312206,0.5862600207328796
6805.67520576334,1488148.0,-0.013120000250637531,-0.004449999891221523,-0.003949999809265137,0.5895100235939026
6805.676205535556,1488149.0,-0.019770000129938126,-0.0021800000686198473,-0.002950000111013651,0.5802199840545654
6805.677205307771,1488150.0,-0.023900000378489494,0.001820000004954636,-0.0018599999602884054,0.5857099890708923
6805.678205079986,1488151.0,-0.021379999816417694,0.0016799999866634607,-4.999999873689376e-05,0.5705100297927856
6805.679204852201,1488152.0,-0.015990000218153,-0.002859999891370535,-0.004310000222176313,0.5830100178718567
6805.680204624417,1488153.0,-0.011859999969601631,-0.008949999697506428,-0.0013599999947473407,0.5811300277709961
6805.681204396632,1488154.0,-0.008129999972879887,-0.011760000139474869,0.004220000002533197,0.5752699971199036
6805.682204168847,1488155.0,0.00018000000272877514,-0.0030900000128895044,0.007079999893903732,0.5800300240516663
6805.683203941062,1488156.0,0.003909999970346689,0.00953999999910593,-0.0010400000028312206,0.5638300180435181
6805.684203713277,1488157.0,0.003100000089034438,0.003909999970346689,0.00031999999191612005,0.5785700082778931
6805.685203485493,1488158.0,0.003229999914765358,-0.00203999993391335,0.0022299999836832285,0.5730699896812439
6805.686203257708,1488159.0,0.0083600003272295,0.00686000008136034,0.0008200000156648457,0.5724800229072571
6805.687203029924,1488160.0,0.018060000613331795,0.015030000358819962,-0.000539999979082495,0.5723000168800354
6805.688202802139,1488161.0,0.028389999642968178,0.011939999647438526,-0.0051299999468028545,0.5649700164794922
6805.689202574354,1488162.0,0.03612000122666359,0.01071999967098236,-0.002409999957308173,0.5704200267791748
6805.690202346569,1488163.0,0.038359999656677246,0.005450000055134296,0.0022700000554323196,0.5642899870872498
6805.6912021187845,1488164.0,0.03773999959230423,0.00031999999191612005,0.00014000000373926014,0.5668500065803528
