LSL_Time,PLUX_P2_nSeq,PLUX_P2_ECG0,PLUX_P2_EMG1,PLUX_P2_EMG2,PLUX_P2_RIP3
6804.623739811049,1488247.0,-0.014379999600350857,-0.0003600000054575503,0.00418000016361475,-4.877999782562256
6804.624739582971,1488248.0,-0.012489999644458294,0.003269999986514449,0.002360000042244792,-4.874000072479248
6804.625739354894,1488249.0,-0.01217000000178814,0.000539999979082495,-0.005810000002384186,-4.864999771118164
6804.626739126817,1488250.0,-0.010239999741315842,0.000539999979082495,0.0013599999947473407,-4.85099983215332
6804.62773889874,1488251.0,-0.008630000054836273,-0.006810000166296959,-0.0024999999441206455,-4.861000061035156
6804.628738670663,1488252.0,-0.00795000046491623,-0.0030900000128895044,-0.0006399999838322401,-4.913000106811523
6804.629738442585,1488253.0,-0.007369999773800373,0.0024500000290572643,-0.006089999806135893,-4.8520002365112305
6804.630738214508,1488254.0,-0.006560000125318766,-0.005450000055134296,-0.0002699999895412475,-4.84499979019165
6804.63173798643,1488255.0,-0.005030000116676092,-0.005810000002384186,-0.001180000021122396,-4.840000152587891
6804.632737758354,1488256.0,-0.0037700000684708357,0.007449999917298555,0.0031799999997019768,-4.840000152587891
6804.633737530276,1488257.0,-0.0053900000639259815,0.006039999891072512,-0.000539999979082495,-4.824999809265137
6804.634737302199,1488258.0,-0.006560000125318766,0.003449999960139394,-0.0012700000079348683,-4.876999855041504
6804.635737074122,1488259.0,-0.007910000160336494,-0.005859999917447567,0.006130000110715628,-4.824999809265137
6804.636736846044,1488260.0,-0.009970000013709068,-0.006219999864697456,0.0059899999760091305,-4.822999954223633
6804.637736617968,1488261.0,-0.012310000136494637,0.0024500000290572643,-0.006719999946653843,-4.788000106811523
6804.63873638989,1488262.0,-0.01671000011265278,-0.004269999917596579,-0.005810000002384186,-4.892000198364258
6804.639736161813,1488263.0,-0.022460000589489937,-0.0063599999994039536,-0.01107999961823225,-4.830999851226807
6804.640735933735,1488264.0,-0.02353999949991703,-0.004540000110864639,-0.007079999893903732,-4.815999984741211
6804.641735705658,1488265.0,-0.021199999377131462,0.0027199999894946814,-0.002630000002682209,-4.790999889373779
6804.642735477581,1488266.0,-0.018149999901652336,0.0021299999207258224,0.002360000042244792,-4.828000068664551
6804.643735249504,1488267.0,-0.016170000657439232,-0.005630000028759241,-0.00571999978274107,-4.855000019073486
6804.644735021427,1488268.0,-0.017069999128580093,-0.0013599999947473407,-0.0083600003272295,-4.796000003814697
6804.645734793349,1488269.0,-0.016349999234080315,0.0014100000262260437,0.000539999979082495,-4.84499979019165
6804.646734565272,1488270.0,-0.014019999653100967,0.001180000021122396,0.004269999917596579,-4.796999931335449
6804.647734337194,1488271.0,-0.012040000408887863,-0.004809999838471413,0.00535999983549118,-4.8460001945495605
6804.648734109118,1488272.0,-0.01095999963581562,0.002360000042244792,0.0016299999551847577,-4.818999767303467
6804.64973388104,1488273.0,-0.010420000180602074,0.001180000021122396,-0.0024500000290572643,-4.788000106811523
6804.650733652963,1488274.0,-0.010110000148415565,0.001769999973475933,0.000910000002477318,-4.840000152587891
6804.651733424886,1488275.0,-0.0101500004529953,0.0036800000816583633,-9.000000136438757e-05,-4.75
6804.652733196808,1488276.0,-0.009879999794065952,0.0027199999894946814,-0.003909999970346689,-4.7729997634887695
6804.653732968731,1488277.0,-0.008630000054836273,-0.004410000052303076,0.0025400000158697367,-4.755000114440918
6804.654732740654,1488278.0,-0.010420000180602074,-0.0013200000394135714,-0.0027199999894946814,-4.85099983215332
6804.655732512577,1488279.0,-0.011230000294744968,0.004410000052303076,-0.0028200000524520874,-4.828000068664551
6804.656732284499,1488280.0,-0.01131999958306551,0.0011399999493733048,-0.004269999917596579,-4.742000102996826
6804.657732056422,1488281.0,-0.011049999855458736,0.005270000081509352,0.005450000055134296,-4.747000217437744
6804.658731828345,1488282.0,-0.009879999794065952,0.004449999891221523,0.000910000002477318,-4.7870001792907715
6804.659731600268,1488283.0,-0.008799999952316284,-0.0013599999947473407,0.0027199999894946814,-4.744999885559082
6804.660731372191,1488284.0,-0.007679999805986881,-0.0006799999973736703,-0.003909999970346689,-4.758999824523926
6804.661731144113,1488285.0,-0.006649999879300594,0.0016299999551847577,-0.0018599999602884054,-4.7179999351501465
6804.662730916036,1488286.0,-0.005710000172257423,-0.0015399999683722854,-0.005539999809116125,-4.755000114440918
6804.663730687958,1488287.0,-0.005929999984800816,-0.0024500000290572643,-0.004999999888241291,-4.789999961853027
6804.664730459882,1488288.0,-0.008799999952316284,0.004269999917596579,-0.00041000000783242285,-4.699999809265137
6804.665730231804,1488289.0,-0.01257999986410141,-0.005040000192821026,0.004900000058114529,-4.715000152587891
6804.666730003727,1488290.0,-0.01348000019788742,-0.0015399999683722854,-0.005539999809116125,-4.769999980926514
6804.66772977565,1488291.0,-0.013249999843537807,-0.006089999806135893,0.0,-4.72599983215332
6804.668729547572,1488292.0,-0.012489999644458294,-0.0052200001664459705,0.0024500000290572643,-4.776000022888184
6804.669729319496,1488293.0,-0.012760000303387642,-0.007720000110566616,-0.006899999920278788,-4.73799991607666
6804.670729091418,1488294.0,-0.012760000303387642,0.002360000042244792,-0.0030900000128895044,-4.711999893188477
6804.671728863341,1488295.0,-0.01384000014513731,-0.005179999861866236,-0.0076299998909235,-4.7270002365112305
6804.672728635263,1488296.0,-0.012849999591708183,0.00044999999227002263,-0.0020000000949949026,-4.705999851226807
6804.673728407186,1488297.0,-0.0129399998113513,-0.0062699997797608376,0.002360000042244792,-4.75
6804.674728179109,1488298.0,-0.01051000040024519,-0.005400000140070915,0.003000000026077032,-4.669000148773193
6804.675727951032,1488299.0,-0.010599999688565731,-0.002859999891370535,-0.000539999979082495,-4.705999851226807
6804.676727722955,1488300.0,-0.01131999958306551,0.0029100000392645597,-0.0027199999894946814,-4.6539998054504395
6804.677727494877,1488301.0,-0.0101500004529953,-0.004449999891221523,-0.0020000000949949026,-4.730000019073486
6804.6787272668,1488302.0,-0.011140000075101852,-0.004310000222176313,-0.004410000052303076,-4.757999897003174
6804.679727038722,1488303.0,-0.01181000005453825,-0.005900000222027302,0.000910000002477318,-4.664999961853027
6804.680726810646,1488304.0,-0.01095999963581562,-0.001180000021122396,0.003269999986514449,-4.677999973297119
6804.681726582568,1488305.0,-0.009700000286102295,-0.0007300000288523734,0.0007300000288523734,-4.742000102996826
6804.682726354491,1488306.0,-0.009340000338852406,0.000910000002477318,0.0008200000156648457,-4.665999889373779
6804.683726126414,1488307.0,-0.0083600003272295,0.004629999864846468,-0.005590000189840794,-4.677999973297119
6804.684725898336,1488308.0,-0.005929999984800816,-0.004089999943971634,-0.005630000028759241,-4.632999897003174
6804.685725670259,1488309.0,-0.004129999782890081,0.005270000081509352,-0.002090000081807375,-4.7129998207092285
6804.686725442182,1488310.0,-0.00215999991632998,0.0019099999917671084,0.002360000042244792,-4.709000110626221
6804.687725214105,1488311.0,-0.0023399998899549246,0.00418000016361475,-0.0022700000554323196,-4.619999885559082
6804.688724986027,1488312.0,-0.0027000000700354576,-0.007720000110566616,0.003539999946951866,-4.669000148773193
6804.68972475795,1488313.0,-0.0035000001080334187,-0.0031799999997019768,-0.003000000026077032,-4.709000110626221
6804.690724529873,1488314.0,-0.0071000000461936,0.001180000021122396,-0.006539999973028898,-4.730000019073486
6804.691724301796,1488315.0,-0.012670000083744526,0.000539999979082495,0.0030900000128895044,-4.607999801635742
6804.692724073719,1488316.0,-0.016529999673366547,0.0006799999973736703,0.0030900000128895044,-4.644999980926514
6804.693723845641,1488317.0,-0.01689000055193901,0.0016299999551847577,-0.0021800000686198473,-4.705999851226807
6804.694723617564,1488318.0,-0.016529999673366547,-0.001449999981559813,0.004769999999552965,-4.679999828338623
6804.695723389486,1488319.0,-0.016259999945759773,-0.005630000028759241,-9.000000136438757e-05,-4.627999782562256
6804.69672316141,1488320.0,-0.015990000218153,-0.001820000004954636,-0.007449999917298555,-4.627999782562256
6804.697722933332,1488321.0,-0.014109999872744083,-0.0020000000949949026,0.0025400000158697367,-4.677000045776367
6804.698722705255,1488322.0,-0.01257999986410141,-0.002360000042244792,0.004679999779909849,-4.586999893188477
6804.699722477178,1488323.0,-0.012889999896287918,-0.004720000084489584,-0.0012700000079348683,-4.64900016784668
6804.7007222491,1488324.0,-0.01257999986410141,0.0003600000054575503,0.000539999979082495,-4.619999885559082
6804.701722021024,1488325.0,-0.013389999978244305,0.002630000002682209,-0.0010000000474974513,-4.604000091552734
6804.702721792946,1488326.0,-0.013120000250637531,-0.009170000441372395,0.003809999907389283,-4.574999809265137
6804.703721564869,1488327.0,-0.012310000136494637,-0.003909999970346689,0.0030900000128895044,-4.5929999351501465
6804.704721336791,1488328.0,-0.012310000136494637,-0.005539999809116125,0.002360000042244792,-4.664999961853027
6804.705721108714,1488329.0,-0.011590000241994858,0.003269999986514449,-0.0059899999760091305,-4.567999839782715
6804.706720880637,1488330.0,-0.01051000040024519,-0.00418000016361475,-0.0033599999733269215,-4.559000015258789
6804.70772065256,1488331.0,-0.008310000412166119,0.0010900000343099236,-0.00044999999227002263,-4.584000110626221
6804.708720424483,1488332.0,-0.007009999826550484,-0.0030900000128895044,0.000539999979082495,-4.642000198364258
6804.709720196405,1488333.0,-0.006200000178068876,-0.007269999943673611,0.0030900000128895044,-4.590000152587891
6804.710719968328,1488334.0,-0.0052999998442828655,-0.006810000166296959,0.0016299999551847577,-4.565000057220459
6804.71171974025,1488335.0,-0.004490000195801258,0.006719999946653843,-0.0011399999493733048,-4.644999980926514
6804.712719512174,1488336.0,-0.005210000090301037,-0.006219999864697456,-0.002360000042244792,-4.61899995803833
6804.713719284096,1488337.0,-0.006289999932050705,-0.003449999960139394,0.0010400000028312206,-4.5960001945495605
6804.714719056019,1488338.0,-0.006289999932050705,-0.004540000110864639,-0.000910000002477318,-4.544000148773193
6804.715718827942,1488339.0,-0.006599999964237213,0.003449999960139394,0.001820000004954636,-4.584000110626221
6804.716718599864,1488340.0,-0.006149999797344208,0.0020000000949949026,-0.003449999960139394,-4.619999885559082
6804.717718371788,1488341.0,-0.005210000090301037,0.00044999999227002263,-0.01063000038266182,-4.556000232696533
6804.71871814371,1488342.0,-0.005350000225007534,0.0019099999917671084,-0.007449999917298555,-4.556000232696533
6804.719717915633,1488343.0,-0.0048500001430511475,-0.004269999917596579,0.0002699999895412475,-4.544000148773193
6804.720717687555,1488344.0,-0.0037700000684708357,-0.0007300000288523734,0.0002300000051036477,-4.607999801635742
6804.721717459478,1488345.0,-0.0037700000684708357,-0.003909999970346689,-0.001820000004954636,-4.5320000648498535
6804.7227172314015,1488346.0,-0.004490000195801258,0.002630000002682209,0.00418000016361475,-4.540999889373779
6804.723717003324,1488347.0,-0.00610999995842576,-0.0024999999441206455,-0.0016299999551847577,-4.510000228881836
6804.724716775247,1488348.0,-0.0052999998442828655,0.0030900000128895044,-0.0016299999551847577,-4.556000232696533
6804.725716547169,1488349.0,-0.0048500001430511475,-0.0013599999947473407,0.0017300000181421638,-4.570000171661377
6804.726716319092,1488350.0,-0.005210000090301037,0.007269999943673611,-0.002360000042244792,-4.5229997634887695
6804.727716091014,1488351.0,-0.004989999812096357,0.00418000016361475,-0.005400000140070915,-4.584000110626221
6804.728715862938,1488352.0,-0.004490000195801258,-0.001500000013038516,-0.000910000002477318,-4.5229997634887695
6804.72971563486,1488353.0,-0.004449999891221523,-0.002630000002682209,-0.007449999917298555,-4.585000038146973
6804.730715406783,1488354.0,-0.004490000195801258,-0.00535999983549118,-0.003000000026077032,-4.564000129699707
6804.731715178706,1488355.0,-0.005030000116676092,0.004360000137239695,0.002360000042244792,-4.546999931335449
6804.732714950628,1488356.0,-0.005119999870657921,-0.00041000000783242285,-0.003809999907389283,-4.552000045776367
6804.733714722552,1488357.0,-0.004670000169426203,-0.0030900000128895044,-0.004040000028908253,-4.4679999351501465
6804.734714494474,1488358.0,-0.005210000090301037,-0.004900000058114529,-0.002630000002682209,-4.504000186920166
6804.735714266397,1488359.0,-0.0052999998442828655,0.000910000002477318,-0.005859999917447567,-4.498000144958496
6804.736714038319,1488360.0,-0.005659999791532755,-0.004540000110864639,0.001449999981559813,-4.473999977111816
6804.737713810242,1488361.0,-0.005530000198632479,-0.00018000000272877514,0.004360000137239695,-4.456999778747559
6804.738713582165,1488362.0,-0.005210000090301037,-0.0010900000343099236,-0.0012700000079348683,-4.494999885559082
6804.739713354088,1488363.0,-0.005570000037550926,-0.002360000042244792,-0.0044999998062849045,-4.546999931335449
6804.740713126011,1488364.0,-0.003860000055283308,-0.003809999907389283,-0.004540000110864639,-4.435999870300293
6804.741712897933,1488365.0,-0.0027000000700354576,-0.0015399999683722854,-0.007040000054985285,-4.4720001220703125
6804.742712669856,1488366.0,-0.0007200000109151006,-0.0012700000079348683,9.000000136438757e-05,-4.534999847412109
6804.743712441778,1488367.0,0.0008999999845400453,-0.0003600000054575503,0.004720000084489584,-4.498000144958496
6804.744712213702,1488368.0,0.0023399998899549246,-0.000910000002477318,0.003539999946951866,-4.498000144958496
6804.745711985624,1488369.0,0.00215999991632998,-0.0013599999947473407,0.002090000081807375,-4.455999851226807
6804.746711757547,1488370.0,0.0029200001154094934,-0.0027199999894946814,-0.003449999960139394,-4.485000133514404
6804.74771152947,1488371.0,0.0018899999558925629,0.002360000042244792,0.0006799999973736703,-4.453000068664551
6804.748711301392,1488372.0,0.0009899999713525176,-0.0059899999760091305,0.0017300000181421638,-4.453000068664551
6804.749711073316,1488373.0,-0.0011699999449774623,0.0009500000160187483,-0.003590000094845891,-4.409999847412109
6804.750710845238,1488374.0,-0.003590000094845891,0.000910000002477318,-0.0027199999894946814,-4.439000129699707
6804.751710617161,1488375.0,-0.0048500001430511475,-0.0010400000028312206,0.0020000000949949026,-4.498000144958496
6804.752710389083,1488376.0,-0.005530000198632479,-0.004720000084489584,-0.00418000016361475,-4.388000011444092
6804.753710161006,1488377.0,-0.005119999870657921,0.0030900000128895044,0.00031999999191612005,-4.395999908447266
6804.7547099329295,1488378.0,-0.0037700000684708357,-0.0006799999973736703,0.002859999891370535,-4.401000022888184
6804.755709704852,1488379.0,-0.0027000000700354576,-0.0012700000079348683,-0.0019099999917671084,-4.498000144958496
6804.756709476775,1488380.0,-0.0008999999845400453,-0.0016299999551847577,-0.005859999917447567,-4.420000076293945
6804.757709248697,1488381.0,0.0007600000244565308,-0.00018000000272877514,0.005090000107884407,-4.39900016784668
6804.75870902062,1488382.0,0.001979999942705035,-0.0051299999468028545,-0.0033599999733269215,-4.455999851226807
6804.759708792542,1488383.0,0.0016199999954551458,-0.001500000013038516,0.0006399999838322401,-4.4710001945495605
6804.760708564466,1488384.0,0.0023799999617040157,0.004089999943971634,0.004000000189989805,-4.461999893188477
6804.761708336388,1488385.0,0.002520000096410513,0.0012700000079348683,-0.004720000084489584,-4.388000011444092
6804.762708108311,1488386.0,0.0023399998899549246,-0.003449999960139394,-0.0062699997797608376,-4.442999839782715
6804.763707880234,1488387.0,0.0014799999771639705,-0.0037700000684708357,0.0002699999895412475,-4.413000106811523
6804.764707652156,1488388.0,0.0006300000241026282,-0.0022700000554323196,-0.004540000110864639,-4.448999881744385
6804.76570742408,1488389.0,0.000539999979082495,-0.005630000028759241,0.0009500000160187483,-4.442999839782715
6804.766707196002,1488390.0,0.0016199999954551458,-0.000539999979082495,0.0010900000343099236,-4.381999969482422
6804.767706967925,1488391.0,0.0023399998899549246,-0.002360000042244792,-0.006719999946653843,-4.4019999504089355
6804.768706739847,1488392.0,0.0021100000012665987,-0.0063599999994039536,-0.007400000002235174,-4.3460001945495605
6804.76970651177,1488393.0,0.00279000005684793,-0.010169999673962593,-0.003809999907389283,-4.419000148773193
6804.7707062836935,1488394.0,0.0024300001095980406,0.004360000137239695,-0.0022700000554323196,-4.375999927520752
6804.771706055616,1488395.0,0.0030499999411404133,-0.000910000002477318,0.0019099999917671084,-4.353000164031982
6804.772705827539,1488396.0,0.004720000084489584,-0.006539999973028898,0.0030900000128895044,-4.355000019073486
6804.773705599461,1488397.0,0.005750000011175871,-0.005270000081509352,-0.0036299999337643385,-4.3979997634887695
6804.774705371384,1488398.0,0.0053900000639259815,0.0029100000392645597,-0.0063599999994039536,-4.3979997634887695
6804.775705143307,1488399.0,0.004670000169426203,-0.00018000000272877514,-0.0034099998883903027,-4.315000057220459
6804.77670491523,1488400.0,0.0048500001430511475,-0.005630000028759241,-0.0033599999733269215,-4.321000099182129
6804.777704687152,1488401.0,0.005210000090301037,0.0012700000079348683,-0.003809999907389283,-4.329999923706055
6804.778704459075,1488402.0,0.005619999952614307,0.003269999986514449,0.0021800000686198473,-4.340000152587891
6804.779704230998,1488403.0,0.005710000172257423,0.0010400000028312206,-0.00798999983817339,-4.320000171661377
6804.78070400292,1488404.0,0.006289999932050705,0.0016299999551847577,-0.0063599999994039536,-4.373000144958496
6804.781703774844,1488405.0,0.009970000013709068,-0.0008200000156648457,0.001180000021122396,-4.315000057220459
6804.782703546766,1488406.0,0.01689000055193901,0.0033599999733269215,-0.0025400000158697367,-4.323999881744385
6804.783703318689,1488407.0,0.022280000150203705,-0.003000000026077032,-0.0030900000128895044,-4.327000141143799
6804.784703090611,1488408.0,0.026639999821782112,-0.0016299999551847577,0.00018000000272877514,-4.375999927520752
6804.785702862534,1488409.0,0.028750000521540642,-0.005630000028759241,-0.002630000002682209,-4.296999931335449
6804.7867026344575,1488410.0,0.02879999950528145,-0.005630000028759241,-0.006810000166296959,-4.348999977111816
6804.78770240638,1488411.0,0.024800000712275505,-0.0028200000524520874,0.0033199999015778303,-4.263000011444092
6804.788702178303,1488412.0,0.01730000041425228,-0.003809999907389283,0.0021299999207258224,-4.26200008392334
6804.789701950225,1488413.0,0.005619999952614307,-0.0011399999493733048,-0.0007699999841861427,-4.302999973297119
6804.790701722148,1488414.0,-0.0028299998957663774,-0.0030900000128895044,-0.004629999864846468,-4.367000102996826
6804.79170149407,1488415.0,-0.0048500001430511475,-0.0010000000474974513,-0.003449999960139394,-4.250999927520752
6804.792701265994,1488416.0,-0.0022499999031424522,0.000910000002477318,0.0029100000392645597,-4.28000020980835
6804.793701037916,1488417.0,0.0013500000350177288,0.0010900000343099236,-0.0034099998883903027,-4.252999782562256
6804.794700809839,1488418.0,0.003949999809265137,-0.0007699999841861427,-0.00018000000272877514,-4.336999893188477
6804.795700581762,1488419.0,0.006829999852925539,-0.003449999960139394,0.002360000042244792,-4.340000152587891
6804.796700353684,1488420.0,0.008270000107586384,0.0019099999917671084,-0.006089999806135893,-4.270999908447266
6804.797700125608,1488421.0,0.008449999615550041,0.004629999864846468,0.0020000000949949026,-4.329999923706055
6804.79869989753,1488422.0,0.008179999887943268,0.002090000081807375,0.003809999907389283,-4.230000019073486
6804.799699669453,1488423.0,0.008179999887943268,-0.005179999861866236,-0.0005000000237487257,-4.311999797821045
6804.800699441375,1488424.0,0.007139999885112047,0.0027199999894946814,-0.0029100000392645597,-4.232999801635742
6804.801699213298,1488425.0,0.007009999826550484,-0.007079999893903732,0.0010900000343099236,-4.252999782562256
6804.8026989852215,1488426.0,0.006829999852925539,0.002950000111013651,-0.0027199999894946814,-4.2769999504089355
6804.803698757144,1488427.0,0.00674000009894371,0.003909999970346689,-0.0028200000524520874,-4.224999904632568
6804.804698529067,1488428.0,0.0071000000461936,0.0019099999917671084,0.002360000042244792,-4.269000053405762
6804.805698300989,1488429.0,0.0071000000461936,-0.006039999891072512,-0.003449999960139394,-4.2210001945495605
6804.806698072912,1488430.0,0.006380000151693821,0.000539999979082495,-0.0063599999994039536,-4.181000232696533
6804.807697844835,1488431.0,0.005840000230818987,0.0027699999045580626,-0.011260000057518482,-4.190000057220459
6804.808697616758,1488432.0,0.005570000037550926,0.002589999930933118,-0.0012700000079348683,-4.2129998207092285
6804.80969738868,1488433.0,0.005929999984800816,0.0024500000290572643,0.002409999957308173,-4.285999774932861
6804.810697160603,1488434.0,0.005659999791532755,-4.999999873689376e-05,-0.0020000000949949026,-4.177999973297119
6804.811696932526,1488435.0,0.005659999791532755,-0.001769999973475933,0.005489999894052744,-4.260000228881836
6804.812696704448,1488436.0,0.005840000230818987,-0.0030900000128895044,0.0029100000392645597,-4.2789998054504395
6804.813696476372,1488437.0,0.0053900000639259815,0.005400000140070915,-0.003449999960139394,-4.243000030517578
6804.814696248294,1488438.0,0.00547999981790781,0.000910000002477318,0.003269999986514449,-4.192999839782715
6804.815696020217,1488439.0,0.0048500001430511475,0.00044999999227002263,-0.002859999891370535,-4.204999923706055
6804.816695792139,1488440.0,0.004670000169426203,-0.0006399999838322401,-0.005270000081509352,-4.263000011444092
6804.817695564062,1488441.0,0.007139999885112047,0.0024500000290572643,-0.005810000002384186,-4.247000217437744
6804.8186953359855,1488442.0,0.005710000172257423,-0.004129999782890081,-0.003449999960139394,-4.228000164031982
6804.819695107908,1488443.0,0.0034099998883903027,-0.001180000021122396,0.001449999981559813,-4.176000118255615
6804.820694879831,1488444.0,0.0027000000700354576,-0.0007300000288523734,-0.003000000026077032,-4.254000186920166
6804.821694651753,1488445.0,0.0023399998899549246,-0.004900000058114529,-0.004679999779909849,-4.140999794006348
6804.822694423676,1488446.0,0.0023399998899549246,-0.002950000111013651,0.0010900000343099236,-4.172999858856201
6804.823694195598,1488447.0,0.0027000000700354576,0.003269999986514449,-0.004900000058114529,-4.135000228881836
6804.824693967522,1488448.0,0.00279000005684793,-0.005450000055134296,-0.006539999973028898,-4.113999843597412
6804.825693739444,1488449.0,0.0025599999353289604,0.003809999907389283,0.004000000189989805,-4.184000015258789
6804.826693511367,1488450.0,0.003100000089034438,0.0,-0.0012700000079348683,-4.119999885559082
6804.82769328329,1488451.0,0.0030499999411404133,0.0010000000474974513,-0.005630000028759241,-4.144000053405762
6804.828693055212,1488452.0,0.00279000005684793,0.0016299999551847577,-0.0003600000054575503,-4.198999881744385
6804.829692827136,1488453.0,0.0023399998899549246,0.0010900000343099236,0.0010000000474974513,-4.204999923706055
6804.830692599058,1488454.0,0.0007200000109151006,-0.0059899999760091305,-0.006219999864697456,-4.190000057220459
6804.831692370981,1488455.0,0.0015300000086426735,-0.001769999973475933,-0.0008200000156648457,-4.114999771118164
6804.832692142903,1488456.0,0.0005799999926239252,-0.000539999979082495,-0.004269999917596579,-4.111000061035156
6804.833691914826,1488457.0,-0.0010300000431016088,0.0028200000524520874,-0.002360000042244792,-4.204999923706055
6804.8346916867495,1488458.0,-0.0027000000700354576,-0.002360000042244792,0.003449999960139394,-4.089000225067139
6804.835691458672,1488459.0,-0.0030499999411404133,0.0019099999917671084,-0.0012700000079348683,-4.113999843597412
6804.836691230595,1488460.0,-0.0011699999449774623,-0.002630000002682209,-0.007079999893903732,-4.191999912261963
6804.837691002517,1488461.0,-0.00044999999227002263,0.004310000222176313,-0.0002699999895412475,-4.099999904632568
6804.83869077444,1488462.0,0.0008999999845400453,0.003000000026077032,0.0016299999551847577,-4.131999969482422
6804.839690546363,1488463.0,0.0033199999015778303,0.002360000042244792,-0.004129999782890081,-4.065000057220459
6804.840690318286,1488464.0,0.004129999782890081,-0.0008200000156648457,0.004410000052303076,-4.163000106811523
6804.841690090208,1488465.0,0.004629999864846468,0.002090000081807375,-0.0010900000343099236,-4.131999969482422
6804.842689862131,1488466.0,0.0028800000436604023,-0.005539999809116125,-0.002630000002682209,-4.085999965667725
6804.843689634054,1488467.0,-0.0012600000482052565,0.0021299999207258224,0.003269999986514449,-4.078999996185303
6804.844689405976,1488468.0,-0.005210000090301037,0.0006399999838322401,0.0002699999895412475,-4.079999923706055
6804.8456891779,1488469.0,-0.008980000391602516,0.004000000189989805,-0.0006399999838322401,-4.125999927520752
6804.846688949822,1488470.0,-0.010739999823272228,-0.005450000055134296,0.003539999946951866,-4.065000057220459
6804.847688721745,1488471.0,-0.011950000189244747,-0.00044999999227002263,0.00044999999227002263,-4.067999839782715
6804.848688493667,1488472.0,-0.01131999958306551,-0.00014000000373926014,-0.006719999946653843,-4.045000076293945
6804.84968826559,1488473.0,-0.0101500004529953,0.006719999946653843,0.004040000028908253,-4.131999969482422
6804.8506880375135,1488474.0,-0.007499999832361937,0.0030900000128895044,-0.0012700000079348683,-4.0370001792907715
6804.851687809436,1488475.0,-0.004629999864846468,0.0031799999997019768,-0.003809999907389283,-4.033999919891357
6804.852687581359,1488476.0,-0.0030499999411404133,-0.002859999891370535,0.003269999986514449,-4.046999931335449
6804.853687353281,1488477.0,-0.0007200000109151006,0.002360000042244792,0.002360000042244792,-4.105999946594238
6804.854687125204,1488478.0,0.0009899999713525176,-0.002859999891370535,-0.0030900000128895044,-4.113999843597412
6804.855686897127,1488479.0,0.00018000000272877514,0.002589999930933118,-0.002360000042244792,-3.997999906539917
6804.85668666905,1488480.0,-0.0029200001154094934,0.004720000084489584,0.0020000000949949026,-4.033999919891357
6804.857686440972,1488481.0,-0.006649999879300594,0.004000000189989805,0.00018000000272877514,-4.0920000076293945
6804.858686212895,1488482.0,-0.00872000027447939,-0.0030900000128895044,-0.003269999986514449,-4.077000141143799
6804.859685984818,1488483.0,-0.008449999615550041,-0.001449999981559813,-0.004089999943971634,-4.006999969482422
6804.860685756741,1488484.0,-0.007369999773800373,0.001449999981559813,-0.004449999891221523,-4.013000011444092
6804.861685528664,1488485.0,-0.006020000204443932,0.0007300000288523734,-0.0016299999551847577,-4.09499979019165
6804.862685300586,1488486.0,-0.005840000230818987,0.0002699999895412475,0.004629999864846468,-3.9670000076293945
6804.863685072509,1488487.0,-0.004720000084489584,0.003449999960139394,0.0010000000474974513,-3.992000102996826
6804.864684844431,1488488.0,-0.003229999914765358,0.007180000189691782,-0.000910000002477318,-4.004000186920166
6804.865684616354,1488489.0,-0.0022499999031424522,-0.0051299999468028545,0.0018599999602884054,-3.9860000610351562
6804.8666843882775,1488490.0,-0.001979999942705035,-0.0003600000054575503,-0.0028200000524520874,-3.9489998817443848
6804.8676841602,1488491.0,-0.0029200001154094934,-0.004449999891221523,0.0022700000554323196,-3.9700000286102295
6804.868683932123,1488492.0,-0.003229999914765358,-0.0064500002190470695,-0.00018000000272877514,-4.051000118255615
6804.869683704045,1488493.0,-0.0033199999015778303,-0.004089999943971634,-0.004449999891221523,-3.9579999446868896
6804.870683475968,1488494.0,-0.004000000189989805,-0.000539999979082495,0.002859999891370535,-3.924999952316284
6804.871683247891,1488495.0,-0.004040000028908253,0.004360000137239695,0.005539999809116125,-3.9670000076293945
6804.872683019814,1488496.0,-0.0047599999234080315,-0.0030900000128895044,-0.002630000002682209,-4.046999931335449
6804.873682791736,1488497.0,-0.0047599999234080315,-0.005630000028759241,0.005270000081509352,-3.9539999961853027
6804.874682563659,1488498.0,-0.004490000195801258,-0.008270000107586384,0.0021800000686198473,-3.9489998817443848
6804.875682335582,1488499.0,-0.005169999785721302,-0.000539999979082495,-0.007079999893903732,-4.000999927520752
6804.876682107504,1488500.0,-0.005030000116676092,-0.0024999999441206455,-0.008170000277459621,-4.0269999504089355
6804.877681879428,1488501.0,-0.004129999782890081,-0.0006799999973736703,-0.004089999943971634,-4.021999835968018
6804.87868165135,1488502.0,-0.0030499999411404133,-0.004089999943971634,-0.000910000002477318,-3.9489998817443848
6804.879681423273,1488503.0,-0.002199999988079071,-0.0029100000392645597,-0.00267999991774559,-3.9860000610351562
6804.880681195195,1488504.0,-0.0017099999822676182,-0.001820000004954636,-0.004860000219196081,-4.015999794006348
6804.881680967118,1488505.0,-0.0017999999690800905,0.0015399999683722854,-0.00267999991774559,-3.924999952316284
6804.8826807390415,1488506.0,-0.0016199999954551458,-0.0003600000054575503,-0.005450000055134296,-3.8970000743865967
6804.883680510964,1488507.0,-0.0023399998899549246,-0.0020000000949949026,4.999999873689376e-05,-3.864000082015991
6804.884680282887,1488508.0,-0.002959999954327941,-0.004720000084489584,0.005040000192821026,-3.9730000495910645
6804.885680054809,1488509.0,-0.002520000096410513,-0.0027199999894946814,0.005090000107884407,-3.943000078201294
6804.886679826732,1488510.0,-0.00215999991632998,-0.0008200000156648457,-0.0027199999894946814,-3.869999885559082
6804.887679598655,1488511.0,-0.0008099999977275729,-0.002360000042244792,0.0059899999760091305,-3.9690001010894775
6804.888679370578,1488512.0,-0.0007200000109151006,0.0024500000290572643,0.0036299999337643385,-3.934000015258789
6804.8896791425,1488513.0,-0.0003100000030826777,0.0012700000079348683,-0.004089999943971634,-3.9609999656677246
6804.890678914423,1488514.0,0.0002699999895412475,0.0025400000158697367,-0.0010900000343099236,-3.8970000743865967
6804.891678686346,1488515.0,0.00018000000272877514,0.00018000000272877514,-0.007809999864548445,-3.8540000915527344
6804.892678458269,1488516.0,-9.000000136438757e-05,0.005489999894052744,-0.006680000107735395,-3.875999927520752
6804.893678230192,1488517.0,-0.0007200000109151006,-0.006579999811947346,0.002409999957308173,-3.8329999446868896
6804.894678002114,1488518.0,0.0008099999977275729,-0.00041000000783242285,0.004000000189989805,-3.8970000743865967
6804.895677774037,1488519.0,0.00018000000272877514,0.005270000081509352,-0.002360000042244792,-3.9489998817443848
6804.896677545959,1488520.0,0.00044999999227002263,9.000000136438757e-05,0.0006799999973736703,-3.8239998817443848
6804.897677317882,1488521.0,-0.0002699999895412475,0.0028200000524520874,0.002360000042244792,-3.8420000076293945
6804.8986770898055,1488522.0,-0.000539999979082495,0.003539999946951866,-0.002360000042244792,-3.8929998874664307
6804.899676861728,1488523.0,-0.000539999979082495,-0.005810000002384186,-0.001449999981559813,-3.8310000896453857
6804.900676633651,1488524.0,0.00018000000272877514,-0.0019099999917671084,0.002859999891370535,-3.805999994277954
6804.901676405573,1488525.0,-0.0007200000109151006,0.00418000016361475,-0.005090000107884407,-3.8570001125335693
6804.902676177496,1488526.0,-0.0008500000112690032,0.0006399999838322401,0.0007699999841861427,-3.7929999828338623
6804.903675949419,1488527.0,-0.0012600000482052565,0.000590000010561198,-0.000539999979082495,-3.8239998817443848
6804.904675721342,1488528.0,-0.0027000000700354576,0.000910000002477318,0.0030900000128895044,-3.888000011444092
6804.905675493264,1488529.0,-0.0037700000684708357,0.000910000002477318,0.0030900000128895044,-3.8989999294281006
6804.906675265187,1488530.0,-0.004040000028908253,-0.0036299999337643385,0.0012700000079348683,-3.882999897003174
6804.90767503711,1488531.0,-0.0036800000816583633,0.0033599999733269215,-0.003809999907389283,-3.806999921798706
6804.908674809032,1488532.0,-0.0030499999411404133,0.0009500000160187483,-0.0027199999894946814,-3.8959999084472656
6804.909674580956,1488533.0,-0.0034099998883903027,-0.00018000000272877514,0.003449999960139394,-3.756999969482422
6804.910674352878,1488534.0,-0.003229999914765358,9.000000136438757e-05,-0.0010900000343099236,-3.8389999866485596
6804.911674124801,1488535.0,-0.003949999809265137,-0.0015399999683722854,0.0012700000079348683,-3.7829999923706055
6804.912673896723,1488536.0,-0.0033199999015778303,-0.0007699999841861427,0.003909999970346689,-3.7890000343322754
6804.913673668647,1488537.0,-0.002959999954327941,-0.006180000025779009,-0.004999999888241291,-3.760999917984009
6804.9146734405695,1488538.0,-0.0033199999015778303,-0.005450000055134296,-0.0015899999998509884,-3.818000078201294
6804.915673212492,1488539.0,-0.0030499999411404133,-0.004449999891221523,0.0010400000028312206,-3.8359999656677246
6804.916672984415,1488540.0,-0.001979999942705035,0.002589999930933118,0.001820000004954636,-3.753999948501587
6804.917672756337,1488541.0,-0.0013500000350177288,-0.0010900000343099236,0.0015399999683722854,-3.7170000076293945
6804.91867252826,1488542.0,-0.0016199999954551458,0.001820000004954636,-0.0027199999894946814,-3.744999885559082
6804.919672300183,1488543.0,-0.0017999999690800905,-0.004900000058114529,-0.002630000002682209,-3.815000057220459
6804.920672072106,1488544.0,0.0002699999895412475,-0.0027199999894946814,-0.003449999960139394,-3.809000015258789
6804.921671844028,1488545.0,0.0016199999954551458,-0.007809999864548445,-0.003449999960139394,-3.7079999446868896
6804.922671615951,1488546.0,0.0012600000482052565,0.004999999888241291,0.0006799999973736703,-3.8269999027252197
6804.923671387874,1488547.0,0.00018000000272877514,-0.007269999943673611,0.004629999864846468,-3.7869999408721924
6804.924671159797,1488548.0,-0.00215999991632998,-0.003449999960139394,-0.0011399999493733048,-3.7230000495910645
6804.92567093172,1488549.0,-0.0034099998883903027,-0.006810000166296959,-0.0033599999733269215,-3.687999963760376
6804.926670703642,1488550.0,-0.0028800000436604023,0.001820000004954636,-0.004000000189989805,-3.734999895095825
6804.927670475565,1488551.0,-0.0012600000482052565,0.000539999979082495,-0.006219999864697456,-3.7780001163482666
6804.928670247487,1488552.0,-9.000000136438757e-05,-0.00031999999191612005,0.0016299999551847577,-3.6989998817443848
6804.92967001941,1488553.0,0.0002699999895412475,0.000539999979082495,0.0007699999841861427,-3.678999900817871
6804.9306697913335,1488554.0,0.00018000000272877514,-0.00839999970048666,-0.002630000002682209,-3.7780001163482666
6804.931669563256,1488555.0,-0.0008999999845400453,0.0010000000474974513,0.0063599999994039536,-3.7019999027252197
6804.932669335179,1488556.0,-0.0016199999954551458,0.003909999970346689,0.002630000002682209,-3.7780001163482666
6804.933669107101,1488557.0,-0.0017099999822676182,0.0031799999997019768,-0.001449999981559813,-3.6559998989105225
6804.934668879024,1488558.0,-0.0012600000482052565,-0.004089999943971634,0.004269999917596579,-3.760999917984009
6804.935668650947,1488559.0,-0.0008999999845400453,0.00494999997317791,-0.005950000137090683,-3.752000093460083
6804.93666842287,1488560.0,0.0,0.001449999981559813,-0.006539999973028898,-3.6740000247955322
6804.937668194792,1488561.0,0.0012600000482052565,0.0021299999207258224,-0.005090000107884407,-3.7019999027252197
6804.938667966715,1488562.0,0.00215999991632998,0.0030900000128895044,0.004540000110864639,-3.631999969482422
6804.939667738638,1488563.0,0.0030499999411404133,0.00418000016361475,0.0024500000290572643,-3.7049999237060547
6804.940667510561,1488564.0,0.0037700000684708357,-0.0030900000128895044,0.003809999907389283,-3.6559998989105225
6804.941667282484,1488565.0,0.0021100000012665987,-0.000910000002477318,-0.005590000189840794,-3.6480000019073486
6804.942667054406,1488566.0,0.0012600000482052565,0.0002699999895412475,-0.005630000028759241,-3.615000009536743
6804.943666826329,1488567.0,0.0018899999558925629,0.003590000094845891,-0.004540000110864639,-3.6500000953674316
6804.944666598251,1488568.0,0.0023399998899549246,0.0002699999895412475,0.0009500000160187483,-3.7170000076293945
6804.945666370175,1488569.0,0.0023399998899549246,0.005270000081509352,0.0016299999551847577,-3.6649999618530273
6804.9466661420975,1488570.0,0.0020699999295175076,-0.001820000004954636,-0.00044999999227002263,-3.7290000915527344
6804.94766591402,1488571.0,-0.0003600000054575503,-0.005590000189840794,-0.005770000163465738,-3.7160000801086426
6804.948665685943,1488572.0,-0.00279000005684793,0.00571999978274107,-0.005900000222027302,-3.6679999828338623
6804.949665457865,1488573.0,-0.003370000049471855,-0.00018000000272877514,-0.005810000002384186,-3.7019999027252197
6804.950665229788,1488574.0,-0.0033199999015778303,0.005400000140070915,-0.0020000000949949026,-3.568000078201294
6804.951665001711,1488575.0,-0.0026100000832229853,0.000910000002477318,-0.0012700000079348683,-3.6989998817443848
6804.952664773634,1488576.0,-0.0012600000482052565,-0.0015399999683722854,0.0036299999337643385,-3.5959999561309814
6804.953664545556,1488577.0,-0.000539999979082495,-0.00418000016361475,-0.0034099998883903027,-3.5950000286102295
6804.954664317479,1488578.0,-0.00018000000272877514,0.0035000001080334187,-0.0016299999551847577,-3.556999921798706
6804.955664089402,1488579.0,-0.0008099999977275729,0.004629999864846468,-0.0020000000949949026,-3.5950000286102295
6804.956663861325,1488580.0,-0.0007600000244565308,0.0018599999602884054,-0.0012700000079348683,-3.6670000553131104
6804.957663633248,1488581.0,-0.0014400000218302011,-0.0017300000181421638,0.0011399999493733048,-3.552000045776367
6804.95866340517,1488582.0,-0.0014400000218302011,0.002360000042244792,0.007540000136941671,-3.5309998989105225
6804.959663177093,1488583.0,-0.0002699999895412475,-0.005040000192821026,0.0007699999841861427,-3.558000087738037
6804.960662949015,1488584.0,0.0002699999895412475,0.006539999973028898,-0.004540000110864639,-3.6440000534057617
6804.961662720938,1488585.0,-0.0003600000054575503,0.0017300000181421638,-0.007309999782592058,-3.627000093460083
6804.962662492861,1488586.0,-0.000539999979082495,0.004540000110864639,-0.003449999960139394,-3.509999990463257
6804.963662264784,1488587.0,-0.00018000000272877514,0.0010900000343099236,0.0002699999895412475,-3.61299991607666
6804.964662036707,1488588.0,-0.0009899999713525176,0.003809999907389283,0.0030900000128895044,-3.5950000286102295
6804.965661808629,1488589.0,-0.000539999979082495,-0.00418000016361475,0.0022299999836832285,-3.5339999198913574
6804.966661580552,1488590.0,0.0006699999794363976,0.0003600000054575503,0.00018000000272877514,-3.615999937057495
6804.967661352475,1488591.0,0.0012600000482052565,0.0028200000524520874,-0.0022700000554323196,-3.484999895095825
6804.968661124398,1488592.0,0.0002699999895412475,-0.0005000000237487257,-0.0027199999894946814,-3.5220000743865967
6804.96966089632,1488593.0,-0.00018000000272877514,-0.003449999960139394,0.0012700000079348683,-3.5309998989105225
6804.970660668243,1488594.0,3.9999998989515007e-05,0.0030900000128895044,0.002360000042244792,-3.5829999446868896
6804.971660440166,1488595.0,-0.00018000000272877514,9.000000136438757e-05,-0.001449999981559813,-3.6070001125335693
6804.972660212089,1488596.0,-0.0004900000058114529,0.0019099999917671084,-0.002090000081807375,-3.4820001125335693
6804.973659984012,1488597.0,-0.0014400000218302011,-0.0012700000079348683,-0.0030900000128895044,-3.5429999828338623
6804.974659755934,1488598.0,-0.0011699999449774623,-0.003719999920576811,-0.005179999861866236,-3.5829999446868896
6804.975659527857,1488599.0,-0.00044999999227002263,-0.000539999979082495,0.002090000081807375,-3.4730000495910645
6804.976659299779,1488600.0,-9.000000136438757e-05,0.0002699999895412475,0.002090000081807375,-3.4839999675750732
6804.977659071703,1488601.0,0.0008999999845400453,-9.000000136438757e-05,-0.001180000021122396,-3.436000108718872
6804.978658843625,1488602.0,0.0017999999690800905,0.00044999999227002263,0.003269999986514449,-3.5339999198913574
6804.979658615548,1488603.0,0.0023399998899549246,0.00018000000272877514,-0.0019099999917671084,-3.5139999389648438
6804.980658387471,1488604.0,0.004129999782890081,-0.0008200000156648457,-0.0064500002190470695,-3.4070000648498535
6804.981658159393,1488605.0,0.004310000222176313,-0.0012700000079348683,0.0017300000181421638,-3.490999937057495
6804.982657931316,1488606.0,0.0020699999295175076,-0.00418000016361475,9.000000136438757e-05,-3.5339999198913574
6804.983657703239,1488607.0,0.0007600000244565308,0.001449999981559813,-0.0036800000816583633,-3.490999937057495
6804.984657475162,1488608.0,0.00022000000171829015,0.002409999957308173,0.004000000189989805,-3.490999937057495
6804.985657247084,1488609.0,0.0003600000054575503,0.0012700000079348683,0.000539999979082495,-3.38700008392334
6804.986657019007,1488610.0,0.0009899999713525176,0.003809999907389283,-0.001769999973475933,-3.4179999828338623
6804.98765679093,1488611.0,0.0006300000241026282,-0.004449999891221523,0.0007300000288523734,-3.4089999198913574
6804.988656562853,1488612.0,0.0002699999895412475,-0.006539999973028898,0.0012700000079348683,-3.375
6804.989656334776,1488613.0,-9.000000136438757e-05,0.002090000081807375,-0.004089999943971634,-3.4100000858306885
6804.990656106698,1488614.0,-0.0003600000054575503,0.0010900000343099236,0.0016299999551847577,-3.4119999408721924
6804.991655878621,1488615.0,0.00018000000272877514,-0.00018000000272877514,0.0012700000079348683,-3.4549999237060547
6804.992655650543,1488616.0,0.000539999979082495,-0.0021299999207258224,-0.000910000002477318,-3.384000062942505
6804.993655422467,1488617.0,0.0003600000054575503,0.0029100000392645597,-0.0024999999441206455,-3.4549999237060547
6804.994655194389,1488618.0,0.0008999999845400453,-0.005270000081509352,0.0010000000474974513,-3.4649999141693115
6804.995654966312,1488619.0,0.0012600000482052565,0.000539999979082495,-9.000000136438757e-05,-3.38700008392334
6804.996654738235,1488620.0,0.0007600000244565308,0.004360000137239695,0.002360000042244792,-3.4189999103546143
6804.997654510157,1488621.0,0.0,-0.00044999999227002263,0.004000000189989805,-3.436000108718872
6804.998654282081,1488622.0,0.000539999979082495,-0.005489999894052744,-0.008539999835193157,-3.36299991607666
6804.999654054003,1488623.0,0.0008999999845400453,0.0031300000846385956,-0.0063599999994039536,-3.3540000915527344
6805.000653825926,1488624.0,0.0016599999507889152,-0.005630000028759241,-0.0059899999760091305,-3.306999921798706
6805.001653597848,1488625.0,0.0023399998899549246,0.0027199999894946814,0.0016299999551847577,-3.4210000038146973
6805.002653369771,1488626.0,0.004129999782890081,0.003220000071451068,0.003809999907389283,-3.2899999618530273
6805.003653141694,1488627.0,0.005210000090301037,0.0029100000392645597,0.00018000000272877514,-3.3329999446868896
6805.004652913617,1488628.0,0.004989999812096357,-0.005179999861866236,-0.00418000016361475,-3.375
6805.00565268554,1488629.0,0.004490000195801258,0.002360000042244792,-0.004000000189989805,-3.4179999828338623
6805.006652457462,1488630.0,0.003909999970346689,-0.00044999999227002263,0.0013599999947473407,-3.368000030517578
6805.007652229385,1488631.0,0.004310000222176313,-9.000000136438757e-05,-0.0019499999471008778,-3.259000062942505
6805.008652001307,1488632.0,0.003949999809265137,0.002360000042244792,-0.0010400000028312206,-3.2990000247955322
6805.009651773231,1488633.0,0.004040000028908253,0.0012700000079348683,0.003590000094845891,-3.378000020980835
6805.010651545153,1488634.0,0.003949999809265137,-0.0033599999733269215,-0.0034099998883903027,-3.2960000038146973
6805.011651317076,1488635.0,0.0031399999279528856,0.000910000002477318,-0.0016299999551847577,-3.26200008392334
6805.012651088999,1488636.0,0.0035000001080334187,0.0012700000079348683,0.005270000081509352,-3.239000082015991
6805.013650860921,1488637.0,0.004939999897032976,0.00018000000272877514,-0.002630000002682209,-3.359999895095825
6805.014650632844,1488638.0,0.0053900000639259815,0.0024500000290572643,-0.005179999861866236,-3.302000045776367
6805.015650404767,1488639.0,0.006149999797344208,9.000000136438757e-05,0.003949999809265137,-3.2230000495910645
6805.01665017669,1488640.0,0.007009999826550484,-0.003539999946951866,-0.005179999861866236,-3.302000045776367
6805.017649948612,1488641.0,0.005929999984800816,-0.0017300000181421638,0.0012700000079348683,-3.322999954223633
6805.018649720535,1488642.0,0.005840000230818987,0.000539999979082495,0.003590000094845891,-3.2899999618530273
6805.019649492458,1488643.0,0.00610999995842576,0.0025400000158697367,-0.005770000163465738,-3.2230000495910645
6805.020649264381,1488644.0,0.006289999932050705,0.003809999907389283,-0.0003600000054575503,-3.2170000076293945
6805.021649036304,1488645.0,0.0065100002102553844,0.004720000084489584,-0.004089999943971634,-3.313999891281128
6805.022648808226,1488646.0,0.006020000204443932,-0.005900000222027302,-0.005810000002384186,-3.2119998931884766
6805.023648580149,1488647.0,0.005260000005364418,0.0017300000181421638,0.002090000081807375,-3.190999984741211
6805.024648352071,1488648.0,0.005929999984800816,-0.004449999891221523,-0.0017300000181421638,-3.1619999408721924
6805.025648123995,1488649.0,0.006649999879300594,-0.0020000000949949026,0.0013599999947473407,-3.197999954223633
6805.026647895917,1488650.0,0.006649999879300594,-0.00267999991774559,0.0016299999551847577,-3.246999979019165
6805.02764766784,1488651.0,0.00674000009894371,-0.0029100000392645597,-0.005630000028759241,-3.25
6805.028647439763,1488652.0,0.006289999932050705,-0.004360000137239695,0.0016299999551847577,-3.259000062942505
6805.029647211685,1488653.0,0.006870000157505274,-0.00018000000272877514,0.003449999960139394,-3.234999895095825
6805.030646983609,1488654.0,0.00773000018671155,-0.00418000016361475,-0.006579999811947346,-3.1429998874664307
6805.031646755531,1488655.0,0.0064199999906122684,-0.005590000189840794,-0.0024500000290572643,-3.1630001068115234
6805.032646527454,1488656.0,0.004310000222176313,-0.0013599999947473407,0.002360000042244792,-3.2320001125335693
6805.033646299376,1488657.0,0.0023399998899549246,0.0007300000288523734,-0.0020000000949949026,-3.140000104904175
6805.034646071299,1488658.0,0.00279000005684793,-0.0021800000686198473,0.003809999907389283,-3.2320001125335693
6805.035645843222,1488659.0,0.004269999917596579,0.002360000042244792,-0.004809999838471413,-3.2009999752044678
6805.036645615145,1488660.0,0.004220000002533197,-0.007720000110566616,-0.000539999979082495,-3.11899995803833
6805.037645387068,1488661.0,0.004670000169426203,-0.005900000222027302,-0.0063599999994039536,-3.1679999828338623
6805.03864515899,1488662.0,0.004269999917596579,-0.005900000222027302,-0.0016299999551847577,-3.2119998931884766
6805.039644930913,1488663.0,0.005080000031739473,0.0014100000262260437,0.005630000028759241,-3.069999933242798
6805.040644702835,1488664.0,0.006200000178068876,-0.002360000042244792,0.0020000000949949026,-3.0460000038146973
6805.041644474759,1488665.0,0.0065100002102553844,0.0007300000288523734,-0.00018000000272877514,-3.128000020980835
6805.042644246681,1488666.0,0.005929999984800816,-0.005270000081509352,-0.003719999920576811,-3.128000020980835
6805.043644018604,1488667.0,0.007009999826550484,-0.003809999907389283,-0.0064500002190470695,-3.177999973297119
6805.044643790527,1488668.0,0.00773000018671155,-0.004449999891221523,-0.005859999917447567,-3.0399999618530273
6805.045643562449,1488669.0,0.008449999615550041,0.002950000111013651,0.00044999999227002263,-3.11299991607666
6805.046643334372,1488670.0,0.009519999846816063,-0.008129999972879887,0.0024500000290572643,-3.052999973297119
6805.047643106295,1488671.0,0.009700000286102295,-0.00018000000272877514,-0.00535999983549118,-3.0209999084472656
6805.048642878218,1488672.0,0.009519999846816063,-0.003269999986514449,0.00018000000272877514,-3.121999979019165
6805.04964265014,1488673.0,0.009159999899566174,-0.0030900000128895044,-0.0033599999733269215,-2.9790000915527344
6805.050642422063,1488674.0,0.00795000046491623,0.0027199999894946814,-0.004809999838471413,-3.0269999504089355
6805.051642193986,1488675.0,0.007369999773800373,0.002360000042244792,-4.999999873689376e-05,-2.9719998836517334
6805.052641965909,1488676.0,0.00646999990567565,0.004089999943971634,0.0006399999838322401,-3.0329999923706055
6805.053641737832,1488677.0,0.005929999984800816,-0.001180000021122396,0.0064500002190470695,-3.0929999351501465
6805.054641509754,1488678.0,0.004579999949783087,0.0012700000079348683,-0.003809999907389283,-2.9790000915527344
6805.055641281677,1488679.0,0.003860000055283308,0.0031799999997019768,-0.006899999920278788,-3.061000108718872
6805.056641053599,1488680.0,0.004040000028908253,-0.000910000002477318,0.0020000000949949026,-2.996999979019165
6805.057640825523,1488681.0,0.004129999782890081,-0.002589999930933118,-0.006810000166296959,-3.0820000171661377
6805.058640597445,1488682.0,0.0027000000700354576,-0.0051299999468028545,-0.004540000110864639,-3.069999933242798
6805.059640369368,1488683.0,0.0007200000109151006,0.001449999981559813,-0.0016299999551847577,-3.0299999713897705
6805.060640141291,1488684.0,0.0008999999845400453,-0.003949999809265137,-0.005179999861866236,-2.9660000801086426
6805.061639913213,1488685.0,0.001979999942705035,-0.0033199999015778303,-0.0030900000128895044,-2.927000045776367
6805.062639685137,1488686.0,0.0028800000436604023,-0.0008200000156648457,0.001769999973475933,-2.990999937057495
6805.063639457059,1488687.0,0.0030499999411404133,0.004360000137239695,-0.004809999838471413,-2.9140000343322754
6805.064639228982,1488688.0,0.0034099998883903027,-0.001180000021122396,-0.004410000052303076,-2.9049999713897705
6805.065639000904,1488689.0,0.0033199999015778303,-0.004089999943971634,-0.007040000054985285,-2.88700008392334
6805.066638772827,1488690.0,0.004579999949783087,-0.006310000084340572,-0.006719999946653843,-2.9630000591278076
6805.06763854475,1488691.0,0.006920000072568655,-0.009449999779462814,-0.000859999970998615,-3.009000062942505
6805.068638316673,1488692.0,0.0088900001719594,-0.004900000058114529,0.003269999986514449,-2.8499999046325684
6805.069638088596,1488693.0,0.009700000286102295,0.0031300000846385956,-0.0028200000524520874,-2.88700008392334
6805.070637860518,1488694.0,0.008799999952316284,0.0016299999551847577,-0.004540000110864639,-2.9110000133514404
6805.071637632441,1488695.0,0.007009999826550484,-0.004809999838471413,-0.001180000021122396,-2.9619998931884766
6805.072637404363,1488696.0,0.006649999879300594,-0.003539999946951866,-0.0030900000128895044,-2.8380000591278076
6805.073637176287,1488697.0,0.006020000204443932,-0.007360000163316727,-0.003719999920576811,-2.8269999027252197
6805.074636948209,1488698.0,0.005840000230818987,-0.0006799999973736703,0.001449999981559813,-2.88700008392334
6805.075636720132,1488699.0,0.005710000172257423,-0.003719999920576811,-0.006899999920278788,-2.822999954223633
6805.076636492055,1488700.0,0.004490000195801258,0.0025400000158697367,-0.0033199999015778303,-2.8239998817443848
6805.077636263977,1488701.0,0.005210000090301037,-0.0027199999894946814,-0.0010000000474974513,-2.7679998874664307
6805.078636035901,1488702.0,0.004989999812096357,0.00018000000272877514,-0.005270000081509352,-2.802000045776367
6805.079635807823,1488703.0,0.0052999998442828655,0.0016299999551847577,0.000539999979082495,-2.8980000019073486
6805.080635579746,1488704.0,0.004490000195801258,0.0010900000343099236,0.00571999978274107,-2.750999927520752
6805.081635351668,1488705.0,0.0031900000758469105,0.0016299999551847577,0.00418000016361475,-2.7279999256134033
6805.082635123591,1488706.0,0.0018899999558925629,-0.0031799999997019768,-0.0024500000290572643,-2.7160000801086426
6805.0836348955145,1488707.0,0.0017099999822676182,0.0016299999551847577,-0.0020000000949949026,-2.8589999675750732
6805.084634667437,1488708.0,0.0016199999954551458,0.0028200000524520874,-0.00018000000272877514,-2.697999954223633
6805.08563443936,1488709.0,0.0021100000012665987,0.0031300000846385956,-0.004040000028908253,-2.74399995803833
6805.086634211282,1488710.0,0.002959999954327941,-0.004809999838471413,0.002630000002682209,-2.7279999256134033
6805.087633983205,1488711.0,0.0035000001080334187,-0.000910000002477318,0.000539999979082495,-2.750999927520752
6805.088633755127,1488712.0,0.0047599999234080315,0.000910000002477318,-0.005630000028759241,-2.8239998817443848
6805.089633527051,1488713.0,0.006289999932050705,-0.00267999991774559,-0.00044999999227002263,-2.7100000381469727
6805.090633298973,1488714.0,0.0064199999906122684,-0.005090000107884407,-0.0033199999015778303,-2.7920000553131104
6805.091633070896,1488715.0,0.005570000037550926,-0.002859999891370535,-0.00018000000272877514,-2.634999990463257
6805.092632842819,1488716.0,0.005210000090301037,0.0021299999207258224,-0.0025400000158697367,-2.7829999923706055
6805.093632614741,1488717.0,0.005750000011175871,-0.004900000058114529,-9.000000136438757e-05,-2.7769999504089355
6805.094632386665,1488718.0,0.005350000225007534,0.0020000000949949026,-0.00872000027447939,-2.756999969482422
6805.095632158587,1488719.0,0.006200000178068876,-0.00418000016361475,0.002090000081807375,-2.6029999256134033
6805.09663193051,1488720.0,0.007189999800175428,-0.00418000016361475,-0.0025400000158697367,-2.63700008392334
6805.097631702432,1488721.0,0.006200000178068876,-0.006310000084340572,-0.004449999891221523,-2.75
6805.098631474355,1488722.0,0.005210000090301037,0.0012700000079348683,0.005270000081509352,-2.63100004196167
6805.099631246278,1488723.0,0.0065100002102553844,0.003449999960139394,0.003220000071451068,-2.6019999980926514
6805.100631018201,1488724.0,0.007459999993443489,-0.006630000192672014,-0.0019099999917671084,-2.552999973297119
6805.101630790124,1488725.0,0.006649999879300594,-0.0030900000128895044,0.00418000016361475,-2.6760001182556152
6805.102630562046,1488726.0,0.004490000195801258,-0.0007300000288523734,-0.001449999981559813,-2.6089999675750732
6805.103630333969,1488727.0,0.0048500001430511475,0.0006399999838322401,-0.0029100000392645597,-2.572999954223633
6805.104630105891,1488728.0,0.005210000090301037,-0.0024500000290572643,-0.0006799999973736703,-2.5209999084472656
6805.105629877815,1488729.0,0.004670000169426203,0.0027199999894946814,-0.0007699999841861427,-2.502000093460083
6805.106629649737,1488730.0,0.004269999917596579,0.0027199999894946814,-0.00018000000272877514,-2.5450000762939453
6805.10762942166,1488731.0,0.0037700000684708357,0.002589999930933118,-0.005179999861866236,-2.5390000343322754
6805.108629193583,1488732.0,0.004490000195801258,-0.00018000000272877514,-0.01071999967098236,-2.63100004196167
6805.109628965505,1488733.0,0.004670000169426203,0.0020000000949949026,-0.0015399999683722854,-2.559999942779541
6805.110628737429,1488734.0,0.005030000116676092,0.003449999960139394,-0.004900000058114529,-2.614000082015991
6805.111628509351,1488735.0,0.0048500001430511475,-0.007809999864548445,0.00041000000783242285,-2.6029999256134033
6805.112628281274,1488736.0,0.004220000002533197,-0.002950000111013651,-0.004269999917596579,-2.562999963760376
6805.113628053196,1488737.0,0.003949999809265137,-0.0012700000079348683,-0.008539999835193157,-2.493000030517578
6805.114627825119,1488738.0,0.005080000031739473,-0.003449999960139394,-0.0010000000474974513,-2.4600000381469727
6805.1156275970425,1488739.0,0.004490000195801258,-0.007180000189691782,0.007079999893903732,-2.5390000343322754
6805.116627368965,1488740.0,0.003949999809265137,-0.000910000002477318,0.004720000084489584,-2.515000104904175
6805.117627140888,1488741.0,0.003590000094845891,0.003539999946951866,-0.00018000000272877514,-2.434000015258789
6805.11862691281,1488742.0,0.0031399999279528856,-0.00418000016361475,-0.004720000084489584,-2.4110000133514404
6805.119626684733,1488743.0,0.0023399998899549246,0.002630000002682209,-0.004809999838471413,-2.494999885559082
6805.120626456655,1488744.0,0.002520000096410513,0.0013599999947473407,0.00203999993391335,-2.4110000133514404
6805.121626228579,1488745.0,0.004220000002533197,-0.000910000002477318,-0.005539999809116125,-2.3989999294281006
6805.122626000501,1488746.0,0.006289999932050705,0.005810000002384186,-0.0016299999551847577,-2.3959999084472656
6805.123625772424,1488747.0,0.007550000213086605,-0.005630000028759241,-0.00018000000272877514,-2.374000072479248
6805.124625544347,1488748.0,0.008799999952316284,0.00031999999191612005,-0.006719999946653843,-2.382999897003174
6805.125625316269,1488749.0,0.010420000180602074,0.000910000002477318,-0.001180000021122396,-2.3239998817443848
6805.126625088193,1488750.0,0.010830000042915344,0.0028200000524520874,0.002630000002682209,-2.328000068664551
6805.127624860115,1488751.0,0.01051000040024519,-0.005090000107884407,-0.002630000002682209,-2.322000026702881
6805.128624632038,1488752.0,0.0101500004529953,-0.0008200000156648457,-0.0016299999551847577,-2.377000093460083
6805.12962440396,1488753.0,0.010689999908208847,-0.0012700000079348683,0.0030900000128895044,-2.4260001182556152
6805.130624175883,1488754.0,0.010599999688565731,0.0031799999997019768,-0.0031799999997019768,-2.2890000343322754
6805.1316239478065,1488755.0,0.010239999741315842,-0.0003600000054575503,-0.0020000000949949026,-2.2890000343322754
6805.132623719729,1488756.0,0.009340000338852406,0.00018000000272877514,-0.0014100000262260437,-2.4110000133514404
6805.133623491652,1488757.0,0.008089999668300152,-0.007309999782592058,0.0010400000028312206,-2.257999897003174
6805.134623263574,1488758.0,0.006649999879300594,-0.0003600000054575503,0.0020000000949949026,-2.2130000591278076
6805.135623035497,1488759.0,0.005840000230818987,0.0027699999045580626,-0.001820000004954636,-2.203000068664551
6805.13662280742,1488760.0,0.0053900000639259815,0.0033599999733269215,0.0019099999917671084,-2.3010001182556152
6805.137622579343,1488761.0,0.004399999976158142,0.00418000016361475,-0.004449999891221523,-2.3540000915527344
6805.138622351265,1488762.0,0.003100000089034438,0.0007699999841861427,-0.0063599999994039536,-2.1730000972747803
6805.139622123188,1488763.0,0.00107999995816499,-0.0059899999760091305,0.005270000081509352,-2.312999963760376
6805.140621895111,1488764.0,-0.0003600000054575503,0.001180000021122396,-4.999999873689376e-05,-2.2739999294281006
6805.141621667033,1488765.0,0.00018000000272877514,0.002950000111013651,-0.004449999891221523,-2.1670000553131104
6805.142621438957,1488766.0,0.000539999979082495,0.0012700000079348683,0.003269999986514449,-2.2160000801086426
6805.143621210879,1488767.0,0.0008999999845400453,0.0025400000158697367,-0.00018000000272877514,-2.118000030517578
6805.144620982802,1488768.0,0.0030499999411404133,0.0022299999836832285,-0.0012700000079348683,-2.1589999198913574
6805.145620754724,1488769.0,0.004989999812096357,-0.00535999983549118,0.006990000139921904,-2.0940001010894775
6805.146620526647,1488770.0,0.005570000037550926,-0.0012700000079348683,-0.0020000000949949026,-2.0980000495910645
6805.1476202985705,1488771.0,0.005210000090301037,0.00044999999227002263,-0.002319999970495701,-2.124000072479248
6805.148620070493,1488772.0,0.0052999998442828655,0.0006799999973736703,0.0002699999895412475,-2.118000030517578
6805.149619842416,1488773.0,0.005210000090301037,0.003449999960139394,0.004089999943971634,-2.190000057220459
6805.150619614338,1488774.0,0.004490000195801258,0.0021299999207258224,0.002360000042244792,-2.118000030517578
6805.151619386261,1488775.0,0.004129999782890081,0.0002699999895412475,0.0024500000290572643,-2.1619999408721924
6805.152619158183,1488776.0,0.0030499999411404133,-0.0062699997797608376,0.00044999999227002263,-2.1730000972747803
6805.153618930107,1488777.0,0.0023399998899549246,0.00018000000272877514,-0.005900000222027302,-2.1549999713897705
6805.154618702029,1488778.0,0.0037700000684708357,0.0003600000054575503,-0.003269999986514449,-2.059999942779541
6805.155618473952,1488779.0,0.004220000002533197,0.0030900000128895044,0.003449999960139394,-2.0199999809265137
6805.156618245875,1488780.0,0.004310000222176313,-0.002630000002682209,-0.0010900000343099236,-2.1089999675750732
6805.157618017797,1488781.0,0.004129999782890081,0.0006799999973736703,-0.001769999973475933,-1.9989999532699585
6805.158617789721,1488782.0,0.0035500000230968,-0.007079999893903732,-0.00418000016361475,-1.9709999561309814
6805.159617561643,1488783.0,0.002959999954327941,0.0022700000554323196,-0.0021800000686198473,-1.9529999494552612
6805.160617333566,1488784.0,0.0029200001154094934,0.000910000002477318,-0.0021800000686198473,-1.9670000076293945
6805.161617105488,1488785.0,0.003280000062659383,-0.0013599999947473407,-0.003449999960139394,-2.0450000762939453
6805.162616877411,1488786.0,0.004310000222176313,-0.004360000137239695,0.0024999999441206455,-1.934999942779541
6805.1636166493345,1488787.0,0.0052999998442828655,0.0063599999994039536,-0.004900000058114529,-2.0290000438690186
6805.164616421257,1488788.0,0.005570000037550926,-0.004720000084489584,-0.006680000107735395,-2.0510001182556152
6805.16561619318,1488789.0,0.003590000094845891,0.0020000000949949026,0.0036800000816583633,-1.9179999828338623
6805.166615965102,1488790.0,0.00279000005684793,-0.0013599999947473407,-0.001449999981559813,-2.0420000553131104
6805.167615737025,1488791.0,0.0017999999690800905,0.002360000042244792,-0.004089999943971634,-1.8619999885559082
6805.168615508948,1488792.0,0.0016199999954551458,-0.004269999917596579,0.0027199999894946814,-1.968000054359436
6805.169615280871,1488793.0,0.0,0.002360000042244792,-0.005489999894052744,-1.8489999771118164
6805.170615052793,1488794.0,9.000000136438757e-05,0.002950000111013651,-0.005040000192821026,-1.8619999885559082
6805.171614824716,1488795.0,0.0016199999954551458,0.00018000000272877514,0.0010000000474974513,-1.8339999914169312
6805.172614596639,1488796.0,0.0030499999411404133,-0.0022700000554323196,0.0002300000051036477,-1.8250000476837158
6805.173614368561,1488797.0,0.004310000222176313,-0.0036800000816583633,-0.003449999960139394,-1.9229999780654907
6805.174614140485,1488798.0,0.003949999809265137,-0.0025400000158697367,0.002409999957308173,-1.7699999809265137
6805.175613912407,1488799.0,0.0029200001154094934,-0.004900000058114529,-0.005270000081509352,-1.7330000400543213
6805.17661368433,1488800.0,0.0010300000431016088,-0.00018000000272877514,-0.001449999981559813,-1.7489999532699585
6805.177613456252,1488801.0,-0.000539999979082495,-0.005090000107884407,0.004540000110864639,-1.8370000123977661
6805.178613228175,1488802.0,-0.0008999999845400453,-0.003449999960139394,0.003449999960139394,-1.8309999704360962
6805.1796130000985,1488803.0,0.00018000000272877514,-0.0020000000949949026,-0.001230000052601099,-1.7009999752044678
6805.180612772021,1488804.0,0.0006699999794363976,0.003809999907389283,0.005270000081509352,-1.7640000581741333
6805.181612543944,1488805.0,0.0009899999713525176,-0.006719999946653843,0.0007300000288523734,-1.8220000267028809
6805.182612315866,1488806.0,0.0013500000350177288,-0.004809999838471413,-0.004449999891221523,-1.8370000123977661
6805.183612087789,1488807.0,0.0017999999690800905,-0.0011399999493733048,-0.0002699999895412475,-1.6710000038146973
6805.184611859711,1488808.0,0.0017099999822676182,0.000910000002477318,-0.003000000026077032,-1.7669999599456787
6805.185611631635,1488809.0,0.0021100000012665987,0.004360000137239695,-0.006539999973028898,-1.784999966621399
6805.186611403557,1488810.0,0.0023399998899549246,-0.005040000192821026,-0.003719999920576811,-1.7669999599456787
6805.18761117548,1488811.0,0.0023399998899549246,-0.004860000219196081,-0.0006799999973736703,-1.7330000400543213
6805.188610947403,1488812.0,0.0027000000700354576,0.000910000002477318,0.0016299999551847577,-1.6369999647140503
6805.189610719325,1488813.0,0.0027000000700354576,-0.000539999979082495,-0.0036299999337643385,-1.7269999980926514
6805.190610491249,1488814.0,0.0034099998883903027,-0.0022700000554323196,-0.004360000137239695,-1.5470000505447388
6805.191610263171,1488815.0,0.0037700000684708357,-0.004900000058114529,-0.004089999943971634,-1.6050000190734863
6805.192610035094,1488816.0,0.0048500001430511475,0.003809999907389283,-0.005539999809116125,-1.5520000457763672
6805.193609807016,1488817.0,0.006649999879300594,-0.0022700000554323196,0.0,-1.5110000371932983
6805.194609578939,1488818.0,0.007369999773800373,-0.00418000016361475,-0.002090000081807375,-1.4919999837875366
6805.1956093508625,1488819.0,0.0071000000461936,-0.005859999917447567,-0.005539999809116125,-1.5499999523162842
6805.196609122785,1488820.0,0.007139999885112047,0.000539999979082495,-0.0051299999468028545,-1.659999966621399
6805.197608894708,1488821.0,0.007910000160336494,-0.0063599999994039536,-0.0033199999015778303,-1.4589999914169312
6805.19860866663,1488822.0,0.006829999852925539,-0.00018000000272877514,-0.0007300000288523734,-1.4919999837875366
6805.199608438553,1488823.0,0.005210000090301037,0.00418000016361475,0.0021299999207258224,-1.555999994277954
6805.200608210476,1488824.0,0.004040000028908253,-0.003809999907389283,0.00418000016361475,-1.569000005722046
6805.201607982399,1488825.0,0.0034099998883903027,-0.004720000084489584,4.999999873689376e-05,-1.5299999713897705
6805.202607754321,1488826.0,0.0031399999279528856,-0.006719999946653843,-0.001769999973475933,-1.4190000295639038
6805.203607526244,1488827.0,0.002959999954327941,-0.00018000000272877514,-0.0020000000949949026,-1.5399999618530273
6805.204607298167,1488828.0,0.0030499999411404133,-0.004000000189989805,-0.005900000222027302,-1.4919999837875366
6805.205607070089,1488829.0,0.0037700000684708357,0.001500000013038516,0.0006399999838322401,-1.4129999876022339
6805.206606842013,1488830.0,0.0017999999690800905,-0.004860000219196081,0.002360000042244792,-1.3609999418258667
6805.207606613935,1488831.0,-0.00018000000272877514,-0.003220000071451068,0.000590000010561198,-1.378999948501587
6805.208606385858,1488832.0,-0.0018899999558925629,-0.007360000163316727,0.000910000002477318,-1.4709999561309814
6805.20960615778,1488833.0,-0.0033199999015778303,0.001820000004954636,-0.0036299999337643385,-1.2949999570846558
6805.210605929703,1488834.0,-0.0018899999558925629,-0.004129999782890081,-0.005630000028759241,-1.3530000448226929
6805.2116057016265,1488835.0,-0.0008999999845400453,0.0030400000978261232,0.0013599999947473407,-1.4539999961853027
6805.212605473549,1488836.0,-0.0012600000482052565,-0.006949999835342169,9.000000136438757e-05,-1.3370000123977661
6805.213605245472,1488837.0,-0.0008500000112690032,-0.003449999960139394,0.001500000013038516,-1.4040000438690186
6805.214605017394,1488838.0,0.0,-0.002630000002682209,0.0011399999493733048,-1.2970000505447388
6805.215604789317,1488839.0,0.0,0.002360000042244792,-0.004860000219196081,-1.3980000019073486
6805.21660456124,1488840.0,0.000539999979082495,-0.003909999970346689,-0.004720000084489584,-1.2450000047683716
6805.217604333163,1488841.0,0.00107999995816499,-0.004900000058114529,0.000910000002477318,-1.25600004196167
6805.218604105085,1488842.0,0.0023399998899549246,-0.0003600000054575503,-0.005900000222027302,-1.1979999542236328
6805.219603877008,1488843.0,0.0027000000700354576,-0.0012700000079348683,0.002090000081807375,-1.2239999771118164
6805.220603648931,1488844.0,0.0023399998899549246,0.0007300000288523734,0.0016299999551847577,-1.3309999704360962
6805.221603420854,1488845.0,0.0030499999411404133,-0.0022700000554323196,-0.0011399999493733048,-1.1950000524520874
6805.222603192777,1488846.0,0.004490000195801258,0.0020000000949949026,-0.0027199999894946814,-1.1410000324249268
6805.223602964699,1488847.0,0.004490000195801258,-0.0027199999894946814,-0.004089999943971634,-1.0989999771118164
6805.224602736622,1488848.0,0.0037700000684708357,-0.002859999891370535,-0.0059899999760091305,-1.2389999628067017
6805.225602508544,1488849.0,0.0033199999015778303,-0.0024999999441206455,0.000539999979082495,-1.2799999713897705
6805.226602280467,1488850.0,0.0030499999411404133,-0.00018000000272877514,0.004900000058114529,-1.0679999589920044
6805.2276020523905,1488851.0,0.0035000001080334187,-0.0020000000949949026,-0.003449999960139394,-1.2389999628067017
6805.228601824313,1488852.0,0.0021100000012665987,0.0016299999551847577,-0.005040000192821026,-1.2130000591278076
6805.229601596236,1488853.0,0.0006699999794363976,-0.0059899999760091305,0.0016799999866634607,-1.187000036239624
6805.230601368158,1488854.0,0.00018000000272877514,-0.004000000189989805,-0.006630000192672014,-1.2050000429153442
6805.231601140081,1488855.0,-0.00018000000272877514,-0.004360000137239695,-0.005090000107884407,-1.0190000534057617
6805.232600912004,1488856.0,-0.0012600000482052565,-0.004860000219196081,-0.005270000081509352,-1.0440000295639038
6805.233600683927,1488857.0,-0.0027000000700354576,0.0002699999895412475,-0.007449999917298555,-0.9700000286102295
6805.234600455849,1488858.0,-0.0026100000832229853,0.0021299999207258224,-0.006180000025779009,-1.027999997138977
6805.235600227772,1488859.0,-0.0012600000482052565,-0.00535999983549118,-0.0024500000290572643,-1.093000054359436
6805.236599999695,1488860.0,0.00044999999227002263,-0.006180000025779009,0.0019099999917671084,-0.9399999976158142
6805.237599771617,1488861.0,0.0002699999895412475,-0.007720000110566616,-0.0030900000128895044,-0.9890000224113464
6805.238599543541,1488862.0,-0.0012600000482052565,-0.00018000000272877514,-0.0037700000684708357,-1.0989999771118164
6805.239599315463,1488863.0,-0.0017099999822676182,-0.0024500000290572643,-0.000539999979082495,-1.055999994277954
6805.240599087386,1488864.0,-0.0026100000832229853,0.004720000084489584,-0.0021800000686198473,-0.9309999942779541
6805.241598859308,1488865.0,-0.0021100000012665987,-0.001449999981559813,0.003909999970346689,-0.890999972820282
6805.242598631231,1488866.0,-0.0016199999954551458,-0.008670000359416008,0.004000000189989805,-0.9950000047683716
6805.2435984031545,1488867.0,-0.0012600000482052565,-0.002360000042244792,0.0012700000079348683,-0.9980000257492065
6805.244598175077,1488868.0,0.0016199999954551458,0.0017300000181421638,-0.004629999864846468,-0.8730000257492065
6805.245597947,1488869.0,0.0017099999822676182,-0.0030900000128895044,-0.004089999943971634,-0.8289999961853027
6805.246597718922,1488870.0,0.0008999999845400453,-0.00418000016361475,0.0013599999947473407,-0.777999997138977
6805.247597490845,1488871.0,-0.00039999998989515007,0.007540000136941671,-0.0034099998883903027,-0.9580000042915344
6805.248597262768,1488872.0,-0.00044999999227002263,0.003449999960139394,0.007079999893903732,-0.7829999923706055
6805.249597034691,1488873.0,9.000000136438757e-05,-0.000910000002477318,0.004540000110864639,-0.7749999761581421
6805.250596806613,1488874.0,0.0011699999449774623,0.001180000021122396,-0.0059899999760091305,-0.9190000295639038
6805.251596578536,1488875.0,0.0016199999954551458,4.999999873689376e-05,-0.003449999960139394,-0.8849999904632568
6805.252596350459,1488876.0,0.0008999999845400453,-0.004769999999552965,0.0036299999337643385,-0.8360000252723694
6805.253596122382,1488877.0,0.000539999979082495,0.001230000052601099,-0.003719999920576811,-0.7080000042915344
6805.254595894305,1488878.0,-0.0007200000109151006,-0.0012700000079348683,0.00031999999191612005,-0.8360000252723694
6805.255595666227,1488879.0,-0.0017099999822676182,-0.0019099999917671084,0.0016799999866634607,-0.7630000114440918
6805.25659543815,1488880.0,-0.0014400000218302011,0.0011399999493733048,-0.004679999779909849,-0.6990000009536743
6805.257595210072,1488881.0,0.0,-0.003269999986514449,9.000000136438757e-05,-0.6290000081062317
6805.258594981995,1488882.0,0.0007600000244565308,-0.00018000000272877514,0.002950000111013651,-0.597000002861023
6805.2595947539185,1488883.0,-0.00018000000272877514,-0.00535999983549118,-0.002630000002682209,-0.7599999904632568
6805.260594525841,1488884.0,-0.0016199999954551458,-0.008270000107586384,-0.003449999960139394,-0.7459999918937683
6805.261594297764,1488885.0,-0.001979999942705035,-0.004540000110864639,0.0021299999207258224,-0.5649999976158142
6805.262594069686,1488886.0,-0.002520000096410513,0.004999999888241291,-0.003809999907389283,-0.7450000047683716
6805.263593841609,1488887.0,-0.0026499999221414328,-0.004040000028908253,-0.004000000189989805,-0.722000002861023
6805.264593613532,1488888.0,-0.001979999942705035,-0.00018000000272877514,-0.000910000002477318,-0.5649999976158142
6805.265593385455,1488889.0,-0.0031900000758469105,-0.004809999838471413,-0.0029100000392645597,-0.5680000185966492
6805.266593157377,1488890.0,-0.004490000195801258,-0.0025400000158697367,0.0002300000051036477,-0.5070000290870667
6805.2675929293,1488891.0,-0.004809999838471413,-0.007360000163316727,-0.00418000016361475,-0.6290000081062317
6805.268592701223,1488892.0,-0.004399999976158142,0.00203999993391335,-0.0024500000290572643,-0.5
6805.269592473145,1488893.0,-0.0035000001080334187,-0.002319999970495701,0.001180000021122396,-0.4580000042915344
6805.270592245069,1488894.0,-0.0020699999295175076,-0.005590000189840794,0.0030900000128895044,-0.43299999833106995
6805.271592016991,1488895.0,-0.0015300000086426735,-0.005179999861866236,-0.000910000002477318,-0.4819999933242798
6805.272591788914,1488896.0,-0.0014400000218302011,-0.004860000219196081,-0.007079999893903732,-0.5799999833106995
6805.273591560836,1488897.0,-0.0023399998899549246,-0.0059899999760091305,-0.006630000192672014,-0.49900001287460327
6805.27459133276,1488898.0,-0.0028299998957663774,-0.0033599999733269215,-0.005630000028759241,-0.5479999780654907
6805.2755911046825,1488899.0,-0.004129999782890081,0.0016299999551847577,-0.0022299999836832285,-0.527999997138977
6805.276590876605,1488900.0,-0.004670000169426203,-0.002360000042244792,0.001820000004954636,-0.49399998784065247
6805.277590648528,1488901.0,-0.003370000049471855,0.004540000110864639,-9.000000136438757e-05,-0.4620000123977661
6805.27859042045,1488902.0,-0.003229999914765358,0.002360000042244792,-0.003269999986514449,-0.29899999499320984
6805.279590192373,1488903.0,-0.0030499999411404133,0.000910000002477318,-0.0019099999917671084,-0.33899998664855957
6805.280589964296,1488904.0,-0.003949999809265137,-0.0059899999760091305,-0.004089999943971634,-0.2750000059604645
6805.281589736219,1488905.0,-0.004000000189989805,-0.00418000016361475,0.0033599999733269215,-0.2930000126361847
6805.282589508141,1488906.0,-0.0028800000436604023,0.0021299999207258224,-0.0024500000290572643,-0.4320000112056732
6805.283589280064,1488907.0,-0.0017099999822676182,0.0027199999894946814,0.0013599999947473407,-0.22100000083446503
6805.284589051987,1488908.0,-0.0009899999713525176,0.003590000094845891,0.0025400000158697367,-0.23800000548362732
6805.28558882391,1488909.0,-0.00018000000272877514,0.0024500000290572643,-0.004720000084489584,-0.3630000054836273
6805.286588595833,1488910.0,-0.0008999999845400453,0.0015399999683722854,-0.002319999970495701,-0.23199999332427979
6805.287588367755,1488911.0,-0.0012600000482052565,-0.002859999891370535,0.0013599999947473407,-0.1979999989271164
6805.288588139678,1488912.0,-0.0008099999977275729,0.006769999861717224,0.0024500000290572643,-0.13300000131130219
6805.2895879116,1488913.0,0.00107999995816499,-0.00031999999191612005,0.0013599999947473407,-0.1889999955892563
6805.290587683523,1488914.0,0.0014400000218302011,0.0020000000949949026,-0.003269999986514449,-0.2849999964237213
6805.2915874554465,1488915.0,0.0017999999690800905,-0.004449999891221523,-0.0027199999894946814,-0.07900000363588333
6805.292587227369,1488916.0,0.0011699999449774623,-0.000539999979082495,-0.004540000110864639,-0.06300000101327896
6805.293586999292,1488917.0,0.00107999995816499,0.0030900000128895044,-0.004310000222176313,-0.0729999989271164
6805.294586771214,1488918.0,0.001120000029914081,-0.0020000000949949026,-0.003909999970346689,-0.20399999618530273
6805.295586543137,1488919.0,0.00044999999227002263,-0.005630000028759241,-0.0012700000079348683,-0.19699999690055847
6805.29658631506,1488920.0,0.00107999995816499,-0.005900000222027302,-0.001820000004954636,0.0
6805.297586086983,1488921.0,0.0011699999449774623,-0.001769999973475933,0.001820000004954636,-0.1589999943971634
6805.298585858905,1488922.0,0.0008999999845400453,-0.003269999986514449,-0.00418000016361475,-0.1509999930858612
6805.299585630828,1488923.0,0.000539999979082495,0.0006399999838322401,-0.0024500000290572643,-0.012000000104308128
6805.300585402751,1488924.0,-0.00018000000272877514,-0.005539999809116125,0.004449999891221523,0.054999999701976776
6805.301585174674,1488925.0,-0.0014400000218302011,-0.0020000000949949026,0.0029100000392645597,0.014999999664723873
6805.302584946597,1488926.0,-0.0027000000700354576,-0.004769999999552965,-0.005630000028759241,-0.0820000022649765
6805.303584718519,1488927.0,-0.0048500001430511475,-0.001180000021122396,0.0019099999917671084,0.04600000008940697
6805.304584490442,1488928.0,-0.006289999932050705,0.00418000016361475,-0.0006399999838322401,0.07000000029802322
6805.305584262364,1488929.0,-0.006829999852925539,-0.007770000025629997,-0.005400000140070915,0.12099999934434891
6805.306584034288,1488930.0,-0.007189999800175428,-0.0012700000079348683,0.004360000137239695,-0.027000000700354576
6805.3075838062105,1488931.0,-0.007009999826550484,0.0011399999493733048,0.002360000042244792,0.12800000607967377
6805.308583578133,1488932.0,-0.005929999984800816,0.007309999782592058,-0.00041000000783242285,0.13099999725818634
6805.309583350056,1488933.0,-0.0053900000639259815,-0.003590000094845891,0.0002699999895412475,0.16500000655651093
6805.310583121978,1488934.0,-0.004310000222176313,-0.0022700000554323196,0.000539999979082495,0.20800000429153442
6805.311582893901,1488935.0,-0.0030499999411404133,0.0006399999838322401,-0.004999999888241291,0.25
6805.312582665824,1488936.0,-0.004310000222176313,0.0012700000079348683,0.0015399999683722854,0.09200000017881393
6805.313582437747,1488937.0,-0.005210000090301037,-0.0002699999895412475,0.0006399999838322401,0.11599999666213989
6805.314582209669,1488938.0,-0.005570000037550926,0.0011399999493733048,0.0,0.27900001406669617
6805.315581981592,1488939.0,-0.005210000090301037,9.000000136438757e-05,-0.0016299999551847577,0.29600000381469727
6805.316581753515,1488940.0,-0.004129999782890081,-0.0025400000158697367,0.004269999917596579,0.2840000092983246
6805.317581525438,1488941.0,-0.0031399999279528856,-0.003449999960139394,-9.000000136438757e-05,0.21400000154972076
6805.318581297361,1488942.0,-0.0007200000109151006,-0.006990000139921904,0.0021800000686198473,0.36000001430511475
6805.319581069283,1488943.0,-0.00018000000272877514,-0.0007699999841861427,0.001180000021122396,0.3109999895095825
6805.320580841206,1488944.0,-0.0007600000244565308,-0.0076299998909235,-0.006630000192672014,0.210999995470047
6805.321580613128,1488945.0,-0.0008099999977275729,-0.0021800000686198473,-0.0010900000343099236,0.22599999606609344
6805.322580385051,1488946.0,0.0,0.003809999907389283,0.004360000137239695,0.3720000088214874
6805.3235801569745,1488947.0,0.0014799999771639705,-0.0027199999894946814,-0.001449999981559813,0.43299999833106995
6805.324579928897,1488948.0,0.0014400000218302011,-0.0034099998883903027,0.00418000016361475,0.40299999713897705
6805.32557970082,1488949.0,0.0007200000109151006,-0.004129999782890081,0.0006399999838322401,0.43299999833106995
6805.326579472742,1488950.0,-0.0008999999845400453,0.004540000110864639,-0.00018000000272877514,0.32499998807907104
6805.327579244665,1488951.0,-0.00018000000272877514,-0.009949999861419201,-0.00018000000272877514,0.34299999475479126
6805.328579016588,1488952.0,-0.0004900000058114529,0.0030900000128895044,-0.003809999907389283,0.4880000054836273
6805.329578788511,1488953.0,-0.000539999979082495,-0.000910000002477318,-0.0029100000392645597,0.5580000281333923
6805.330578560433,1488954.0,0.00107999995816499,0.0,-0.0033199999015778303,0.531000018119812
6805.331578332356,1488955.0,0.0023399998899549246,0.0006799999973736703,0.0021299999207258224,0.42100000381469727
6805.332578104279,1488956.0,0.001979999942705035,0.0028200000524520874,-0.00418000016361475,0.5550000071525574
6805.333577876202,1488957.0,0.0002699999895412475,-0.0007300000288523734,0.0027199999894946814,0.43299999833106995
6805.334577648125,1488958.0,-0.00107999995816499,-0.004089999943971634,0.003909999970346689,0.4699999988079071
6805.335577420047,1488959.0,-0.001979999942705035,0.003000000026077032,-0.005179999861866236,0.6499999761581421
6805.33657719197,1488960.0,-0.0022499999031424522,0.003539999946951866,-0.0034099998883903027,0.6200000047683716
6805.337576963892,1488961.0,-0.0027000000700354576,0.0015399999683722854,0.0021800000686198473,0.49399998784065247
6805.338576735816,1488962.0,-0.003280000062659383,-0.004000000189989805,-0.0025400000158697367,0.6499999761581421
6805.3395765077385,1488963.0,-0.001979999942705035,0.0025400000158697367,0.003000000026077032,0.6809999942779541
6805.340576279661,1488964.0,-0.000539999979082495,0.0,0.003809999907389283,0.7099999785423279
6805.341576051584,1488965.0,0.0007600000244565308,0.0024500000290572643,-0.0015399999683722854,0.597000002861023
6805.342575823506,1488966.0,0.0016199999954551458,0.0013599999947473407,-0.007079999893903732,0.734000027179718
6805.343575595429,1488967.0,0.0009899999713525176,-0.00267999991774559,-0.006630000192672014,0.796999990940094
6805.344575367352,1488968.0,0.0006300000241026282,-0.007809999864548445,-0.012900000438094139,0.640999972820282
6805.345575139275,1488969.0,0.0,-0.0062699997797608376,-0.003949999809265137,0.6650000214576721
6805.346574911197,1488970.0,9.000000136438757e-05,0.0019099999917671084,0.0033599999733269215,0.6899999976158142
6805.34757468312,1488971.0,0.0008999999845400453,0.000910000002477318,-0.000910000002477318,0.8119999766349792
6805.348574455043,1488972.0,-0.0004900000058114529,-0.005400000140070915,-0.003809999907389283,0.8700000047683716
6805.349574226966,1488973.0,-0.003370000049471855,-0.004360000137239695,0.002950000111013651,0.9580000042915344
6805.350573998889,1488974.0,-0.003860000055283308,0.0017300000181421638,-0.003539999946951866,0.8740000128746033
6805.351573770811,1488975.0,-0.0017099999822676182,-0.0010000000474974513,-0.0024500000290572643,0.9279999732971191
6805.352573542734,1488976.0,0.0014400000218302011,-0.0014100000262260437,0.0002300000051036477,0.9829999804496765
6805.353573314656,1488977.0,0.0026100000832229853,-0.0012700000079348683,-0.0027199999894946814,0.8180000185966492
6805.35457308658,1488978.0,0.0024300001095980406,-0.00018000000272877514,-0.0008200000156648457,0.8180000185966492
6805.3555728585025,1488979.0,0.0030499999411404133,0.001180000021122396,0.004449999891221523,1.031000018119812
6805.356572630425,1488980.0,0.005030000116676092,-0.002090000081807375,0.0013599999947473407,0.9380000233650208
6805.357572402348,1488981.0,0.0037700000684708357,-0.002859999891370535,-0.006810000166296959,0.8899999856948853
6805.35857217427,1488982.0,0.0027000000700354576,-0.0002699999895412475,-0.000910000002477318,0.9020000100135803
6805.359571946194,1488983.0,0.0031399999279528856,0.0016299999551847577,-0.004449999891221523,1.1169999837875366
6805.360571718116,1488984.0,0.0027000000700354576,0.0013599999947473407,0.00418000016361475,1.0499999523162842
6805.361571490039,1488985.0,0.0030499999411404133,-0.0022299999836832285,0.00018000000272877514,0.9509999752044678
6805.362571261961,1488986.0,0.0034099998883903027,0.003449999960139394,0.004449999891221523,0.972000002861023
6805.363571033884,1488987.0,0.0037700000684708357,-0.000539999979082495,0.002360000042244792,1.0069999694824219
6805.364570805807,1488988.0,0.004490000195801258,-0.002859999891370535,-0.004089999943971634,1.1410000324249268
6805.36557057773,1488989.0,0.0048500001430511475,-0.006719999946653843,0.002090000081807375,1.0499999523162842
6805.366570349653,1488990.0,0.004579999949783087,-0.004449999891221523,-4.999999873689376e-05,1.25600004196167
6805.367570121575,1488991.0,0.0031399999279528856,-0.0027199999894946814,-0.004449999891221523,1.190000057220459
6805.368569893498,1488992.0,0.0027000000700354576,-0.003000000026077032,-0.000910000002477318,1.222000002861023
6805.36956966542,1488993.0,0.0030499999411404133,0.0030900000128895044,0.0029100000392645597,1.281999945640564
6805.370569437344,1488994.0,0.0037700000684708357,-0.0019099999917671084,0.002859999891370535,1.2389999628067017
6805.371569209266,1488995.0,0.0047599999234080315,-0.005040000192821026,-0.0016299999551847577,1.312000036239624
6805.372568981189,1488996.0,0.005929999984800816,0.0003600000054575503,0.002360000042244792,1.309000015258789
6805.373568753112,1488997.0,0.005210000090301037,0.0030900000128895044,-0.004360000137239695,1.2760000228881836
6805.374568525034,1488998.0,0.004220000002533197,-0.002630000002682209,-0.004449999891221523,1.2209999561309814
6805.375568296957,1488999.0,0.004129999782890081,-0.0021299999207258224,0.001449999981559813,1.2389999628067017
6805.37656806888,1489000.0,0.004310000222176313,0.0031300000846385956,-0.0002699999895412475,1.3890000581741333
6805.377567840803,1489001.0,0.004399999976158142,0.0033199999015778303,0.002630000002682209,1.409999966621399
6805.378567612725,1489002.0,0.004490000195801258,0.0010900000343099236,0.0010000000474974513,1.2920000553131104
6805.379567384648,1489003.0,0.004579999949783087,-0.005489999894052744,-0.003719999920576811,1.437000036239624
6805.380567156571,1489004.0,0.003590000094845891,0.006490000057965517,-0.004360000137239695,1.5010000467300415
6805.381566928494,1489005.0,0.0013500000350177288,-0.001180000021122396,-0.005040000192821026,1.5499999523162842
6805.382566700417,1489006.0,-0.0010300000431016088,0.003809999907389283,0.004360000137239695,1.3530000448226929
6805.383566472339,1489007.0,-0.0009899999713525176,0.0016299999551847577,0.0021800000686198473,1.5499999523162842
6805.384566244262,1489008.0,0.000539999979082495,-0.0036299999337643385,-0.002360000042244792,1.531999945640564
6805.385566016184,1489009.0,0.0007200000109151006,-0.00018000000272877514,-0.003449999960139394,1.6419999599456787
6805.386565788108,1489010.0,0.0016199999954551458,-0.007449999917298555,0.0031799999997019768,1.5759999752044678
6805.38756556003,1489011.0,9.000000136438757e-05,-0.003719999920576811,0.003539999946951866,1.5440000295639038
6805.388565331953,1489012.0,-0.0012600000482052565,-0.004769999999552965,-0.0063599999994039536,1.6080000400543213
6805.389565103876,1489013.0,-0.0003600000054575503,0.0,-0.006089999806135893,1.5
6805.390564875798,1489014.0,0.00018000000272877514,0.000910000002477318,-0.004310000222176313,1.7029999494552612
6805.391564647722,1489015.0,0.0,-0.0027199999894946814,-0.0059899999760091305,1.534999966621399
6805.392564419644,1489016.0,0.0006300000241026282,0.003590000094845891,-0.000910000002477318,1.555999994277954
6805.393564191567,1489017.0,0.0008999999845400453,-0.0007699999841861427,9.000000136438757e-05,1.715000033378601
6805.394563963489,1489018.0,-0.0003100000030826777,0.005090000107884407,-0.002360000042244792,1.6369999647140503
6805.395563735412,1489019.0,-0.000539999979082495,0.0014100000262260437,-0.003449999960139394,1.815999984741211
6805.396563507335,1489020.0,-0.0003600000054575503,0.00031999999191612005,0.003809999907389283,1.7589999437332153
6805.397563279258,1489021.0,-0.0016199999954551458,-0.0013599999947473407,0.00018000000272877514,1.8070000410079956
6805.398563051181,1489022.0,-0.0021100000012665987,-0.0030900000128895044,-0.005539999809116125,1.8619999885559082
6805.399562823103,1489023.0,-0.0017999999690800905,0.0017300000181421638,-0.006130000110715628,1.909999966621399
6805.400562595026,1489024.0,-0.0017999999690800905,-0.005090000107884407,-0.00041000000783242285,1.8589999675750732
6805.401562366948,1489025.0,-0.0027000000700354576,-0.0036299999337643385,0.003449999960139394,1.7319999933242798
6805.402562138872,1489026.0,-0.0053900000639259815,-0.004900000058114529,0.0013599999947473407,1.9620000123977661
6805.403561910794,1489027.0,-0.006200000178068876,0.0021800000686198473,0.0015399999683722854,1.9900000095367432
6805.404561682717,1489028.0,-0.004490000195801258,0.006130000110715628,0.003539999946951866,2.0280001163482666
6805.40556145464,1489029.0,-0.0018899999558925629,-0.005630000028759241,-0.0007300000288523734,1.9709999561309814
6805.406561226562,1489030.0,0.00018000000272877514,-0.0036299999337643385,0.0035000001080334187,2.0
6805.407560998485,1489031.0,-0.0007200000109151006,-0.004900000058114529,0.0021299999207258224,1.8650000095367432
6805.408560770408,1489032.0,-0.0033199999015778303,0.0016299999551847577,-0.004089999943971634,2.007999897003174
6805.409560542331,1489033.0,-0.0048500001430511475,-0.0059899999760091305,-0.007269999943673611,1.968000054359436
6805.410560314253,1489034.0,-0.005929999984800816,-0.00018000000272877514,0.0,1.9500000476837158
6805.411560086176,1489035.0,-0.005750000011175871,0.004629999864846468,-0.001769999973475933,1.9529999494552612
6805.412559858099,1489036.0,-0.006829999852925539,0.0010900000343099236,-0.0017300000181421638,2.124000072479248
6805.413559630022,1489037.0,-0.007639999967068434,0.002360000042244792,-0.0022299999836832285,2.1449999809265137
6805.414559401945,1489038.0,-0.008449999615550041,-0.0003600000054575503,0.0019099999917671084,2.0369999408721924
6805.415559173867,1489039.0,-0.009970000013709068,0.0033599999733269215,-0.0034099998883903027,2.0199999809265137
6805.41655894579,1489040.0,-0.011140000075101852,-0.004540000110864639,-0.000539999979082495,2.062999963760376
6805.417558717712,1489041.0,-0.011769999749958515,0.000910000002477318,0.002090000081807375,2.252000093460083
6805.418558489636,1489042.0,-0.012310000136494637,0.000910000002477318,-0.003809999907389283,2.240000009536743
6805.419558261558,1489043.0,-0.01181000005453825,-0.004310000222176313,-0.004900000058114529,2.1419999599456787
6805.420558033481,1489044.0,-0.01051000040024519,-0.003719999920576811,-0.0016299999551847577,2.2890000343322754
6805.421557805404,1489045.0,-0.009069999679923058,-0.0019499999471008778,0.00018000000272877514,2.2860000133514404
6805.422557577326,1489046.0,-0.009700000286102295,0.000910000002477318,0.00418000016361475,2.325000047683716
6805.42355734925,1489047.0,-0.011680000461637974,-0.0063599999994039536,-0.0027199999894946814,2.2079999446868896
6805.424557121172,1489048.0,-0.013389999978244305,-0.006539999973028898,-0.006949999835342169,2.427999973297119
6805.425556893095,1489049.0,-0.014550000429153442,-0.0024500000290572643,0.0021800000686198473,2.385999917984009
6805.426556665017,1489050.0,-0.014779999852180481,0.0027199999894946814,-0.005900000222027302,2.4830000400543213
6805.42755643694,1489051.0,-0.014290000312030315,0.000539999979082495,-0.0007300000288523734,2.368000030517578
6805.428556208863,1489052.0,-0.01271000038832426,-0.005040000192821026,0.0012700000079348683,2.312999963760376
6805.429555980786,1489053.0,-0.01131999958306551,-0.004720000084489584,-0.002360000042244792,2.51200008392334
6805.430555752709,1489054.0,-0.009429999627172947,-0.0028200000524520874,-0.003539999946951866,2.490000009536743
6805.431555524631,1489055.0,-0.008089999668300152,0.002090000081807375,0.002360000042244792,2.390000104904175
6805.432555296554,1489056.0,-0.008449999615550041,-0.0024500000290572643,-0.002950000111013651,2.556999921798706
6805.433555068476,1489057.0,-0.008630000054836273,0.001180000021122396,-0.0063599999994039536,2.5360000133514404
6805.4345548404,1489058.0,-0.008799999952316284,-0.004540000110864639,-0.0006799999973736703,2.5820000171661377
6805.435554612322,1489059.0,-0.009479999542236328,0.004449999891221523,-0.0031799999997019768,2.4769999980926514
6805.436554384245,1489060.0,-0.007910000160336494,0.0020000000949949026,-0.003719999920576811,2.6630001068115234
6805.437554156168,1489061.0,-0.005929999984800816,0.002409999957308173,-0.000539999979082495,2.6470000743865967
6805.43855392809,1489062.0,-0.005840000230818987,-0.005630000028759241,-0.005090000107884407,2.7339999675750732
6805.439553700014,1489063.0,-0.006649999879300594,-0.00018000000272877514,-0.004449999891221523,2.765000104904175
6805.440553471936,1489064.0,-0.007009999826550484,0.0019099999917671084,0.003809999907389283,2.687000036239624
6805.441553243859,1489065.0,-0.006649999879300594,0.0033599999733269215,-0.004360000137239695,2.678999900817871
6805.442553015781,1489066.0,-0.007639999967068434,0.003809999907389283,-0.0059899999760091305,2.5940001010894775
6805.443552787704,1489067.0,-0.007550000213086605,0.0020000000949949026,-0.003269999986514449,2.6630001068115234
6805.4445525596275,1489068.0,-0.007369999773800373,0.0010900000343099236,-0.0033199999015778303,2.640000104904175
6805.44555233155,1489069.0,-0.00674000009894371,-0.0062699997797608376,0.002360000042244792,2.8440001010894775
6805.446552103473,1489070.0,-0.005840000230818987,0.007079999893903732,0.001449999981559813,2.8469998836517334
6805.447551875395,1489071.0,-0.0036800000816583633,0.002950000111013651,0.0012700000079348683,2.7100000381469727
6805.448551647318,1489072.0,0.000539999979082495,0.003269999986514449,-0.0036299999337643385,2.7890000343322754
6805.44955141924,1489073.0,0.003590000094845891,0.000539999979082495,-0.007079999893903732,2.984999895095825
6805.450551191164,1489074.0,0.005030000116676092,-0.006579999811947346,-0.0016299999551847577,2.953000068664551
6805.451550963086,1489075.0,0.004310000222176313,-0.0012700000079348683,0.00031999999191612005,2.8269999027252197
6805.452550735009,1489076.0,0.0023399998899549246,0.0030900000128895044,0.00018000000272877514,2.809000015258789
6805.453550506932,1489077.0,0.0024300001095980406,0.003220000071451068,0.00418000016361475,2.9110000133514404
6805.454550278854,1489078.0,0.00215999991632998,-0.0006799999973736703,-0.0003600000054575503,3.0820000171661377
6805.455550050778,1489079.0,0.0016199999954551458,-0.0016299999551847577,-0.003909999970346689,2.878999948501587
6805.4565498227,1489080.0,0.00107999995816499,0.003809999907389283,-0.004449999891221523,3.046999931335449
6805.457549594623,1489081.0,0.0,-0.003539999946951866,-0.00535999983549118,3.0910000801086426
6805.458549366545,1489082.0,0.0017099999822676182,-0.000539999979082495,0.0006399999838322401,3.114000082015991
6805.459549138468,1489083.0,0.0008999999845400453,0.00041000000783242285,0.0,3.11299991607666
6805.460548910391,1489084.0,-0.00013000000035390258,-0.0030900000128895044,-0.0017300000181421638,2.984999895095825
6805.461548682314,1489085.0,0.00022000000171829015,-0.006180000025779009,-0.0021299999207258224,3.265000104904175
6805.462548454237,1489086.0,0.0003600000054575503,-0.0028200000524520874,0.0,3.246000051498413
6805.463548226159,1489087.0,0.000539999979082495,0.003539999946951866,-0.0006399999838322401,3.1480000019073486
6805.464547998082,1489088.0,0.002739999908953905,-0.002360000042244792,-0.004809999838471413,3.2300000190734863
6805.465547770004,1489089.0,0.0048500001430511475,-0.004360000137239695,0.0,3.11299991607666
6805.466547541928,1489090.0,0.004220000002533197,-0.005810000002384186,0.0,3.23799991607666
6805.46754731385,1489091.0,0.002520000096410513,0.0016299999551847577,-0.0021800000686198473,3.180000066757202
6805.468547085773,1489092.0,-0.00018000000272877514,-0.003809999907389283,0.0016299999551847577,3.328000068664551
6805.469546857696,1489093.0,-0.003590000094845891,0.0010900000343099236,0.0030900000128895044,3.3450000286102295
6805.470546629618,1489094.0,-0.0053900000639259815,-0.006719999946653843,-0.006130000110715628,3.313999891281128
6805.471546401542,1489095.0,-0.003229999914765358,-0.006990000139921904,-0.005630000028759241,3.438999891281128
6805.472546173464,1489096.0,0.0013500000350177288,0.0016299999551847577,-0.0022299999836832285,3.2679998874664307
6805.473545945387,1489097.0,0.0029200001154094934,-0.004360000137239695,-0.000539999979082495,3.441999912261963
6805.474545717309,1489098.0,0.004490000195801258,0.001820000004954636,-0.002859999891370535,3.4649999141693115
6805.475545489232,1489099.0,0.005929999984800816,-0.002630000002682209,-0.0059899999760091305,3.4790000915527344
6805.4765452611555,1489100.0,0.0034099998883903027,0.004360000137239695,0.0009500000160187483,3.433000087738037
6805.477545033078,1489101.0,0.0012600000482052565,0.003269999986514449,-0.0006799999973736703,3.5420000553131104
6805.478544805001,1489102.0,0.0003600000054575503,0.00031999999191612005,-0.002950000111013651,3.3949999809265137
6805.479544576923,1489103.0,0.0006300000241026282,-0.0027199999894946814,0.0033599999733269215,3.5829999446868896
6805.480544348846,1489104.0,0.0016199999954551458,-0.0012700000079348683,0.0016299999551847577,3.609999895095825
6805.481544120768,1489105.0,0.0018899999558925629,0.000910000002477318,-0.0028200000524520874,3.61899995803833
6805.482543892692,1489106.0,0.0012600000482052565,0.0002699999895412475,0.003949999809265137,3.4820001125335693
6805.483543664614,1489107.0,0.0002699999895412475,-0.0051299999468028545,-0.0013599999947473407,3.627000093460083
6805.484543436537,1489108.0,-0.001979999942705035,-0.006719999946653843,-0.0012700000079348683,3.753999948501587
6805.48554320846,1489109.0,-0.0030499999411404133,0.005539999809116125,0.000910000002477318,3.802000045776367
6805.486542980382,1489110.0,-0.0026100000832229853,-0.002589999930933118,0.00418000016361475,3.753999948501587
6805.487542752306,1489111.0,-0.0028800000436604023,-0.002630000002682209,-0.005630000028759241,3.7170000076293945
6805.488542524228,1489112.0,-0.0037700000684708357,-0.0031799999997019768,0.003590000094845891,3.869999885559082
6805.489542296151,1489113.0,-0.004670000169426203,-0.005400000140070915,0.0013599999947473407,3.809999942779541
6805.490542068073,1489114.0,-0.0052999998442828655,-0.005179999861866236,-0.0024999999441206455,3.7219998836517334
6805.491541839996,1489115.0,-0.005710000172257423,-0.00418000016361475,0.0011399999493733048,3.7339999675750732
6805.4925416119195,1489116.0,-0.006560000125318766,0.004000000189989805,0.004540000110864639,3.7200000286102295
6805.493541383842,1489117.0,-0.0064199999906122684,-0.0063599999994039536,-0.0021800000686198473,3.888000011444092
6805.494541155765,1489118.0,-0.004310000222176313,-0.0012700000079348683,0.0029100000392645597,3.8450000286102295
6805.495540927687,1489119.0,-0.0022899999748915434,0.003590000094845891,0.004809999838471413,4.050000190734863
6805.49654069961,1489120.0,-0.0034099998883903027,0.0016299999551847577,-0.0033599999733269215,3.9860000610351562
6805.497540471533,1489121.0,-0.0048500001430511475,-0.00798999983817339,-0.0020000000949949026,3.997999906539917
6805.498540243456,1489122.0,-0.006020000204443932,0.0017300000181421638,0.004540000110864639,4.061999797821045
6805.499540015378,1489123.0,-0.00610999995842576,-0.003949999809265137,-0.0025400000158697367,3.9730000495910645
6805.500539787301,1489124.0,-0.004040000028908253,-0.0010900000343099236,-0.00418000016361475,4.171999931335449
6805.501539559224,1489125.0,-0.0023399998899549246,-0.0007300000288523734,0.002360000042244792,4.0920000076293945
6805.502539331146,1489126.0,0.000539999979082495,-0.0007300000288523734,-0.004310000222176313,4.046999931335449
6805.50353910307,1489127.0,0.00107999995816499,0.003449999960139394,0.0006799999973736703,4.044000148773193
6805.504538874992,1489128.0,-0.00018000000272877514,-0.005179999861866236,0.0051299999468028545,4.046999931335449
6805.505538646915,1489129.0,-0.0026499999221414328,0.004000000189989805,-0.0024500000290572643,4.163000106811523
6805.506538418837,1489130.0,-0.003010000102221966,0.0022299999836832285,-0.0027199999894946814,4.014999866485596
6805.50753819076,1489131.0,-0.00646999990567565,0.0030900000128895044,0.004310000222176313,4.181000232696533
6805.5085379626835,1489132.0,-0.009789999574422836,-0.007079999893903732,-0.0019499999471008778,4.2789998054504395
6805.509537734606,1489133.0,-0.010239999741315842,-0.0033599999733269215,-0.0022700000554323196,4.270999908447266
6805.510537506529,1489134.0,-0.007679999805986881,0.002630000002682209,-0.0017300000181421638,4.2820000648498535
6805.511537278451,1489135.0,-0.004670000169426203,0.0012700000079348683,-0.010940000414848328,4.223999977111816
6805.512537050374,1489136.0,-0.0022499999031424522,-0.004720000084489584,-0.006490000057965517,4.388000011444092
6805.513536822296,1489137.0,-0.0023399998899549246,-0.0010900000343099236,-0.0031799999997019768,4.388000011444092
6805.51453659422,1489138.0,-0.004269999917596579,0.0015399999683722854,0.00031999999191612005,4.436999797821045
6805.515536366142,1489139.0,-0.005350000225007534,-0.006539999973028898,-0.003949999809265137,4.52400016784668
6805.516536138065,1489140.0,-0.007189999800175428,0.0013599999947473407,-0.004540000110864639,4.506999969482422
6805.517535909988,1489141.0,-0.010060000233352184,-0.005179999861866236,-0.00418000016361475,4.455999851226807
6805.51853568191,1489142.0,-0.01095999963581562,-0.003590000094845891,0.00798999983817339,4.340000152587891
6805.519535453834,1489143.0,-0.009519999846816063,-0.004000000189989805,0.006539999973028898,4.510000228881836
6805.520535225756,1489144.0,-0.009159999899566174,-9.000000136438757e-05,0.0010400000028312206,4.440000057220459
6805.521534997679,1489145.0,-0.009789999574422836,0.002090000081807375,-0.002589999930933118,4.442999839782715
6805.522534769601,1489146.0,-0.009340000338852406,-0.004999999888241291,-0.0013599999947473407,4.413000106811523
6805.523534541524,1489147.0,-0.00872000027447939,-0.0016299999551847577,-0.0007300000288523734,4.681000232696533
6805.5245343134475,1489148.0,-0.009879999794065952,-0.004000000189989805,-0.000539999979082495,4.619999885559082
6805.52553408537,1489149.0,-0.010420000180602074,-0.0025400000158697367,-0.000910000002477318,4.498000144958496
6805.526533857293,1489150.0,-0.00803999975323677,-0.00803999975323677,0.0029100000392645597,4.502999782562256
6805.527533629215,1489151.0,-0.006289999932050705,0.0012700000079348683,0.0009500000160187483,4.705999851226807
6805.528533401138,1489152.0,-0.005210000090301037,0.004089999943971634,-0.007079999893903732,4.730000019073486
6805.529533173061,1489153.0,-0.004629999864846468,0.002630000002682209,0.0,4.565000057220459
6805.530532944984,1489154.0,-0.004490000195801258,0.0020000000949949026,0.0030900000128895044,4.710000038146973
6805.531532716906,1489155.0,-0.005570000037550926,0.0007300000288523734,-0.000539999979082495,4.870999813079834
6805.532532488829,1489156.0,-0.00674000009894371,0.003809999907389283,0.0021800000686198473,4.932000160217285
6805.533532260752,1489157.0,-0.006829999852925539,-0.004449999891221523,0.0012700000079348683,4.9029998779296875
6805.534532032674,1489158.0,-0.0053900000639259815,-0.000910000002477318,-0.00571999978274107,4.809999942779541
6805.535531804598,1489159.0,-0.005929999984800816,-0.004629999864846468,-0.000910000002477318,4.980000019073486
6805.53653157652,1489160.0,-0.007009999826550484,-0.004129999782890081,0.001820000004954636,4.940999984741211
6805.537531348443,1489161.0,-0.007459999993443489,-0.000539999979082495,-0.004000000189989805,4.919000148773193
6805.538531120365,1489162.0,-0.006829999852925539,-0.00535999983549118,0.003809999907389283,4.886000156402588
6805.539530892288,1489163.0,-0.004269999917596579,0.0027199999894946814,-0.000539999979082495,4.796000003814697
6805.5405306642115,1489164.0,-0.0028800000436604023,-0.003809999907389283,-0.0027199999894946814,5.011000156402588
6805.541530436134,1489165.0,-0.0037700000684708357,-0.006490000057965517,4.999999873689376e-05,4.855000019073486
6805.542530208057,1489166.0,-0.005659999791532755,-0.0005000000237487257,0.002360000042244792,5.078000068664551
6805.543529979979,1489167.0,-0.006200000178068876,0.000910000002477318,-0.006810000166296959,5.114999771118164
6805.544529751902,1489168.0,-0.007009999826550484,0.0030900000128895044,-0.004999999888241291,5.151000022888184
6805.545529523824,1489169.0,-0.007550000213086605,-0.0027199999894946814,0.0027199999894946814,5.170000076293945
6805.546529295748,1489170.0,-0.00800000037997961,-0.0034099998883903027,0.002859999891370535,5.260000228881836
6805.54752906767,1489171.0,-0.009030000306665897,-0.004900000058114529,-0.001180000021122396,4.995999813079834
6805.548528839593,1489172.0,-0.010599999688565731,-0.00418000016361475,-0.005270000081509352,5.236999988555908
6805.549528611516,1489173.0,-0.012400000356137753,0.003000000026077032,0.0010400000028312206,5.059999942779541
6805.550528383438,1489174.0,-0.015449999831616879,-0.006310000084340572,0.003539999946951866,5.086999893188477
6805.551528155362,1489175.0,-0.019950000569224358,-0.003909999970346689,0.00418000016361475,5.329999923706055
6805.552527927284,1489176.0,-0.021379999816417694,-0.004900000058114529,-0.009170000441372395,5.432000160217285
6805.553527699207,1489177.0,-0.021560000255703926,-0.0036299999337643385,-0.007540000136941671,5.324999809265137
6805.554527471129,1489178.0,-0.02273000031709671,-0.0016299999551847577,0.0030900000128895044,5.245999813079834
6805.555527243052,1489179.0,-0.025340000167489052,-0.000539999979082495,-0.0051299999468028545,5.370999813079834
6805.5565270149755,1489180.0,-0.02865999937057495,0.000590000010561198,-0.006899999920278788,5.410999774932861
6805.557526786898,1489181.0,-0.031449999660253525,-0.001820000004954636,0.0016299999551847577,5.535999774932861
6805.558526558821,1489182.0,-0.03342000022530556,0.0011399999493733048,-0.003220000071451068,5.28000020980835
6805.559526330743,1489183.0,-0.034279998391866684,0.0036299999337643385,0.00535999983549118,5.489999771118164
6805.560526102666,1489184.0,-0.03477000072598457,-0.00018000000272877514,0.0006799999973736703,5.547999858856201
6805.561525874589,1489185.0,-0.036479998379945755,-0.0033599999733269215,0.003809999907389283,5.5370001792907715
6805.562525646512,1489186.0,-0.039170000702142715,-0.003449999960139394,-0.0012700000079348683,5.466000080108643
6805.563525418434,1489187.0,-0.041510000824928284,0.00535999983549118,-0.0072200000286102295,5.603000164031982
6805.564525190357,1489188.0,-0.04222999885678291,0.0016299999551847577,-0.00203999993391335,5.561999797821045
6805.56552496228,1489189.0,-0.04487999901175499,-0.004410000052303076,0.003269999986514449,5.724999904632568
6805.566524734202,1489190.0,-0.04861000180244446,-0.00418000016361475,-0.0012700000079348683,5.511000156402588
6805.567524506126,1489191.0,-0.05040000006556511,-0.003449999960139394,0.0020000000949949026,5.695000171661377
6805.568524278048,1489192.0,-0.05121000111103058,-0.002630000002682209,0.0006799999973736703,5.710000038146973
6805.569524049971,1489193.0,-0.048700001090765,-0.0063599999994039536,-0.0062699997797608376,5.736000061035156
6805.570523821893,1489194.0,-0.04690000042319298,-0.0024500000290572643,0.0016299999551847577,5.565999984741211
6805.571523593816,1489195.0,-0.04473999887704849,-0.001820000004954636,0.00535999983549118,5.708000183105469
6805.5725233657395,1489196.0,-0.04033999890089035,-0.00872000027447939,-0.0008200000156648457,5.8470001220703125
6805.573523137662,1489197.0,-0.0370200015604496,-0.00571999978274107,0.004449999891221523,5.951000213623047
6805.574522909585,1489198.0,-0.035760000348091125,0.0027199999894946814,0.0033599999733269215,5.959000110626221
6805.575522681507,1489199.0,-0.036660000681877136,-0.00535999983549118,-0.0015899999998509884,5.835000038146973
6805.57652245343,1489200.0,-0.03853999823331833,0.001180000021122396,0.0021800000686198473,5.946000099182129
6805.577522225353,1489201.0,-0.04295000061392784,0.0030900000128895044,-0.002630000002682209,5.7220001220703125
6805.578521997276,1489202.0,-0.044829998165369034,-0.0030900000128895044,0.000590000010561198,6.052000045776367
6805.579521769198,1489203.0,-0.04416000097990036,0.0016299999551847577,-0.0022700000554323196,6.110000133514404
6805.580521541121,1489204.0,-0.04024999961256981,0.0027199999894946814,-0.00535999983549118,6.122000217437744
6805.581521313044,1489205.0,-0.04033999890089035,-0.0020000000949949026,0.0033599999733269215,5.929999828338623
6805.582521084967,1489206.0,-0.04244999960064888,-0.0051299999468028545,-0.0025400000158697367,6.11299991607666
6805.58352085689,1489207.0,-0.04816000163555145,-0.003809999907389283,-0.004360000137239695,6.078000068664551
6805.584520628812,1489208.0,-0.05785999819636345,-9.000000136438757e-05,0.002859999891370535,6.064000129699707
6805.585520400735,1489209.0,-0.06522999703884125,-0.004900000058114529,-0.005270000081509352,5.997000217437744
6805.586520172657,1489210.0,-0.07182999700307846,-0.0010900000343099236,-0.002859999891370535,6.199999809265137
6805.58751994458,1489211.0,-0.07619000226259232,-0.004720000084489584,0.003809999907389283,6.306000232696533
6805.5885197165035,1489212.0,-0.0802299976348877,-0.007360000163316727,0.0021299999207258224,6.210000038146973
6805.589519488426,1489213.0,-0.08212000131607056,-0.006539999973028898,-0.0006799999973736703,6.072999954223633
6805.590519260349,1489214.0,-0.07906000316143036,0.0017300000181421638,-0.0033599999733269215,6.27400016784668
6805.591519032271,1489215.0,-0.07399000227451324,-0.0034099998883903027,-0.000910000002477318,6.427000045776367
6805.592518804194,1489216.0,-0.06896000355482101,-0.007269999943673611,-0.003809999907389283,6.355000019073486
6805.593518576117,1489217.0,-0.06477999687194824,-0.0036800000816583633,0.0010000000474974513,6.357999801635742
6805.59451834804,1489218.0,-0.0611799992620945,9.000000136438757e-05,0.0,6.328999996185303
6805.595518119962,1489219.0,-0.058400001376867294,0.003809999907389283,-0.000539999979082495,6.433000087738037
6805.596517891885,1489220.0,-0.05623999983072281,-0.003909999970346689,-0.0006399999838322401,6.47599983215332
6805.597517663808,1489221.0,-0.05345999822020531,0.003539999946951866,-0.006579999811947346,6.5279998779296875
6805.59851743573,1489222.0,-0.04464999958872795,-0.003449999960139394,-0.007079999893903732,6.515999794006348
6805.599517207654,1489223.0,-0.035670001059770584,0.000910000002477318,0.0010000000474974513,6.493000030517578
6805.600516979576,1489224.0,-0.0301900003105402,0.003449999960139394,0.0017300000181421638,6.4730000495910645
6805.601516751499,1489225.0,-0.023180000483989716,0.0030900000128895044,-0.002589999930933118,6.640999794006348
6805.602516523421,1489226.0,-0.014019999653100967,-9.000000136438757e-05,0.0003600000054575503,6.627999782562256
6805.603516295344,1489227.0,-0.0037299999967217445,-0.0020000000949949026,0.0013599999947473407,6.642000198364258
6805.6045160672675,1489228.0,0.0083600003272295,0.002360000042244792,0.0031799999997019768,6.553999900817871
6805.60551583919,1489229.0,0.020169999450445175,-0.0015399999683722854,-0.0020000000949949026,6.6620001792907715
6805.606515611113,1489230.0,0.02785000018775463,-0.003220000071451068,-0.0006799999973736703,6.460999965667725
6805.607515383035,1489231.0,0.03440999984741211,-0.0031799999997019768,-0.006719999946653843,6.635000228881836
6805.608515154958,1489232.0,0.03889999911189079,0.00031999999191612005,-4.999999873689376e-05,6.6529998779296875
6805.609514926881,1489233.0,0.04262999817728996,-0.004900000058114529,0.0016299999551847577,6.5980000495910645
6805.610514698804,1489234.0,0.047439999878406525,-0.00031999999191612005,0.003449999960139394,6.624000072479248
6805.611514470726,1489235.0,0.052650000900030136,-0.0031799999997019768,0.0006399999838322401,6.765999794006348
6805.612514242649,1489236.0,0.05785999819636345,-0.004089999943971634,0.000539999979082495,6.964000225067139
6805.613514014572,1489237.0,0.06064999848604202,-0.0052200001664459705,-0.006180000025779009,6.8480000495910645
6805.614513786495,1489238.0,0.06168000027537346,-0.0015399999683722854,0.00018000000272877514,6.881999969482422
6805.615513558418,1489239.0,0.06379000097513199,0.005450000055134296,0.002630000002682209,6.927000045776367
6805.61651333034,1489240.0,0.06559000164270401,-0.005450000055134296,0.0021299999207258224,7.061999797821045
6805.617513102263,1489241.0,0.06571999937295914,0.004449999891221523,0.004629999864846468,6.97599983215332
6805.618512874185,1489242.0,0.06459999829530716,0.002360000042244792,-4.999999873689376e-05,6.940000057220459
6805.619512646108,1489243.0,0.060920000076293945,-0.0005000000237487257,-0.001820000004954636,7.004000186920166
6805.6205124180315,1489244.0,0.05490000173449516,-0.0013599999947473407,-0.007540000136941671,7.025000095367432
6805.621512189954,1489245.0,0.0516199991106987,-0.004809999838471413,0.0025400000158697367,7.085999965667725
6805.622511961877,1489246.0,0.04690000042319298,-0.0012700000079348683,0.00494999997317791,7.171999931335449
6805.623511733799,1489247.0,0.03971000015735626,0.001769999973475933,-0.000539999979082495,7.0920000076293945
6805.624511505722,1489248.0,0.03189999982714653,-0.0031799999997019768,-0.0010000000474974513,6.922999858856201
6805.625511277645,1489249.0,0.026319999247789383,-0.006630000192672014,-0.007720000110566616,7.252999782562256
6805.626511049568,1489250.0,0.022460000589489937,0.0006399999838322401,-0.004629999864846468,7.314000129699707
6805.62751082149,1489251.0,0.019859999418258667,0.0019099999917671084,-0.002589999930933118,7.284999847412109
6805.628510593413,1489252.0,0.017249999567866325,-0.000910000002477318,0.004809999838471413,7.050000190734863
6805.629510365336,1489253.0,0.013930000364780426,-0.004540000110864639,0.0020000000949949026,7.284999847412109
6805.630510137259,1489254.0,0.009700000286102295,-0.0036299999337643385,0.0013599999947473407,7.296999931335449
6805.631509909182,1489255.0,0.005210000090301037,-0.0015899999998509884,0.0012700000079348683,7.367000102996826
6805.632509681104,1489256.0,0.0035500000230968,-0.001820000004954636,-0.004089999943971634,7.379000186920166
6805.633509453027,1489257.0,0.002199999988079071,0.0010900000343099236,-0.002589999930933118,7.4039998054504395
6805.634509224949,1489258.0,-0.00018000000272877514,-0.005040000192821026,0.00535999983549118,7.4039998054504395
6805.635508996873,1489259.0,-0.0028800000436604023,-0.006130000110715628,0.0013599999947473407,7.373000144958496
6805.6365087687955,1489260.0,-0.00547999981790781,-0.003809999907389283,-0.0028200000524520874,7.564000129699707
6805.637508540718,1489261.0,-0.008179999887943268,0.0016799999866634607,-0.00953999999910593,7.2769999504089355
6805.638508312641,1489262.0,-0.009610000066459179,-0.0011399999493733048,-0.008449999615550041,7.269000053405762
6805.639508084563,1489263.0,-0.009069999679923058,-0.0037700000684708357,9.000000136438757e-05,7.550000190734863
6805.640507856486,1489264.0,-0.009519999846816063,-0.007670000195503235,-0.0016299999551847577,7.619999885559082
6805.641507628409,1489265.0,-0.010379999876022339,-0.004769999999552965,0.000910000002477318,7.631999969482422
6805.642507400332,1489266.0,-0.01092000026255846,-0.00418000016361475,0.001449999981559813,7.642000198364258
6805.643507172254,1489267.0,-0.014910000376403332,0.0016299999551847577,-0.004629999864846468,7.629000186920166
6805.644506944177,1489268.0,-0.018959999084472656,0.0020000000949949026,-0.0016299999551847577,7.798999786376953
6805.6455067161,1489269.0,-0.019899999722838402,-0.0027199999894946814,0.0021299999207258224,7.789999961853027
6805.646506488023,1489270.0,-0.019500000402331352,-0.00418000016361475,-0.0014100000262260437,7.7129998207092285
6805.647506259946,1489271.0,-0.018869999796152115,-0.006990000139921904,-0.0033599999733269215,7.659999847412109
6805.648506031868,1489272.0,-0.020659999921917915,-0.00418000016361475,-0.0022700000554323196,7.9039998054504395
6805.649505803791,1489273.0,-0.02263999916613102,-0.001500000013038516,-0.0033199999015778303,7.784999847412109
6805.650505575713,1489274.0,-0.023180000483989716,0.0013599999947473407,0.0016299999551847577,7.769999980926514
6805.651505347636,1489275.0,-0.021290000528097153,-0.004310000222176313,0.001769999973475933,7.677999973297119
6805.6525051195595,1489276.0,-0.018869999796152115,-0.0022700000554323196,0.007309999782592058,7.880000114440918
6805.653504891482,1489277.0,-0.015270000323653221,-0.00418000016361475,0.00418000016361475,8.057000160217285
6805.654504663405,1489278.0,-0.012040000408887863,-0.005040000192821026,-0.003539999946951866,7.919000148773193
6805.655504435327,1489279.0,-0.009879999794065952,0.0017300000181421638,0.0006799999973736703,7.989999771118164
6805.65650420725,1489280.0,-0.009069999679923058,0.00014000000373926014,-0.008129999972879887,8.053999900817871
6805.657503979173,1489281.0,-0.008089999668300152,-0.0007300000288523734,-0.005630000028759241,7.867000102996826
6805.658503751096,1489282.0,-0.00610999995842576,0.0013599999947473407,-0.008170000277459621,8.07800006866455
6805.659503523018,1489283.0,-0.004310000222176313,0.005040000192821026,-0.004860000219196081,8.196999549865723
6805.660503294941,1489284.0,-0.0037700000684708357,0.003949999809265137,0.004629999864846468,8.092000007629395
6805.661503066864,1489285.0,-0.0016199999954551458,-0.0025400000158697367,-0.0036299999337643385,8.12399959564209
6805.662502838787,1489286.0,0.00044999999227002263,0.0003600000054575503,-0.00418000016361475,8.3100004196167
6805.66350261071,1489287.0,0.00044999999227002263,-0.0020000000949949026,0.0013599999947473407,8.112000465393066
6805.664502382632,1489288.0,0.0017999999690800905,-0.002950000111013651,0.0016299999551847577,8.324000358581543
6805.665502154555,1489289.0,0.0014400000218302011,0.0003600000054575503,-0.006089999806135893,8.222999572753906
6805.666501926477,1489290.0,-0.000539999979082495,0.003809999907389283,0.0045900000259280205,8.343999862670898
6805.667501698401,1489291.0,-0.000539999979082495,-0.00267999991774559,-0.0030900000128895044,8.3100004196167
6805.6685014703235,1489292.0,0.0006699999794363976,-0.00535999983549118,-0.00267999991774559,8.281999588012695
6805.669501242246,1489293.0,0.0018400000408291817,0.0011399999493733048,0.002409999957308173,8.33899974822998
6805.670501014169,1489294.0,0.0016199999954551458,0.004679999779909849,-0.0012700000079348683,8.343999862670898
6805.671500786091,1489295.0,-0.0012600000482052565,0.0006399999838322401,-0.004000000189989805,8.501999855041504
6805.672500558014,1489296.0,-0.0035500000230968,-0.005090000107884407,0.003860000055283308,8.397000312805176
6805.673500329937,1489297.0,-0.004579999949783087,0.002360000042244792,-0.007079999893903732,8.295000076293945
6805.67450010186,1489298.0,-0.004129999782890081,-0.00418000016361475,-0.006990000139921904,8.501999855041504
6805.675499873782,1489299.0,-0.0027000000700354576,0.004900000058114529,0.0029100000392645597,8.644000053405762
6805.676499645705,1489300.0,-0.0016199999954551458,0.002090000081807375,-0.0014100000262260437,8.513999938964844
6805.677499417628,1489301.0,-0.00018000000272877514,4.999999873689376e-05,0.0024500000290572643,8.380000114440918
6805.678499189551,1489302.0,0.0012600000482052565,-0.004449999891221523,-0.0031799999997019768,8.574999809265137
6805.679498961474,1489303.0,0.0048500001430511475,0.000910000002477318,-0.005489999894052744,8.6899995803833
6805.680498733396,1489304.0,0.007860000245273113,0.0017300000181421638,-0.000539999979082495,8.782999992370605
6805.681498505319,1489305.0,0.0028800000436604023,0.0024500000290572643,0.0019099999917671084,8.67300033569336
6805.682498277241,1489306.0,-0.0027000000700354576,-0.0019099999917671084,0.0008200000156648457,8.609000205993652
6805.683498049164,1489307.0,-0.00646999990567565,-0.0030900000128895044,-0.0008200000156648457,8.852999687194824
6805.6844978210875,1489308.0,-0.00872000027447939,0.001449999981559813,0.0030900000128895044,8.734000205993652
6805.68549759301,1489309.0,-0.010599999688565731,-0.0036800000816583633,-0.0010900000343099236,8.758999824523926
6805.686497364933,1489310.0,-0.00800000037997961,-0.003000000026077032,-0.004900000058114529,8.675999641418457
6805.687497136855,1489311.0,-0.006649999879300594,-0.0029100000392645597,-0.00031999999191612005,8.968999862670898
6805.688496908778,1489312.0,-0.00773000018671155,-0.005179999861866236,0.0017300000181421638,8.868000030517578
6805.689496680701,1489313.0,-0.00773000018671155,-0.004089999943971634,-0.0010900000343099236,8.605999946594238
