LSL_Time,PLUX_P2_nSeq,PLUX_P2_ECG0,PLUX_P2_EMG1,PLUX_P2_EMG2,PLUX_P2_RIP3
6868.734114357438,1552372.0,-0.0031399999279528856,-0.00418000016361475,-0.003449999960139394,18.54199981689453
6868.73511412936,1552373.0,-0.004129999782890081,-0.00798999983817339,0.0062699997797608376,18.584999084472656
6868.736113901283,1552374.0,-0.004310000222176313,-0.003809999907389283,0.0029100000392645597,18.63599967956543
6868.737113673205,1552375.0,-0.0017999999690800905,-0.002360000042244792,-0.003909999970346689,18.222000122070312
6868.738113445129,1552376.0,0.0006699999794363976,0.0006399999838322401,-0.0059899999760091305,18.600000381469727
6868.739113217051,1552377.0,0.0009899999713525176,0.003269999986514449,-0.005090000107884407,18.59000015258789
6868.740112988974,1552378.0,0.0014400000218302011,-0.001180000021122396,0.000910000002477318,18.628000259399414
6868.741112760897,1552379.0,0.0014799999771639705,-0.004900000058114529,-0.0015399999683722854,18.427000045776367
6868.742112532819,1552380.0,0.0017099999822676182,-0.005270000081509352,0.005859999917447567,18.75
6868.743112304743,1552381.0,0.002739999908953905,-0.004449999891221523,0.0003600000054575503,18.645999908447266
6868.744112076665,1552382.0,0.0035000001080334187,0.003590000094845891,0.00018000000272877514,18.660999298095703
6868.745111848588,1552383.0,0.0028800000436604023,0.003269999986514449,-0.0003600000054575503,18.756000518798828
6868.74611162051,1552384.0,0.0016199999954551458,-0.006719999946653843,0.0019099999917671084,18.82900047302246
6868.747111392433,1552385.0,0.0013500000350177288,-0.005179999861866236,-0.0007699999841861427,18.707000732421875
6868.748111164356,1552386.0,0.0016199999954551458,0.001769999973475933,-0.0020000000949949026,18.69700050354004
6868.749110936279,1552387.0,0.0030499999411404133,0.003220000071451068,0.001769999973475933,18.73200035095215
6868.750110708202,1552388.0,0.004129999782890081,-0.007180000189691782,-0.00018000000272877514,18.565000534057617
6868.751110480124,1552389.0,0.004939999897032976,0.0025400000158697367,-0.005630000028759241,18.430999755859375
6868.752110252047,1552390.0,0.0031399999279528856,-0.002360000042244792,-0.003909999970346689,18.72599983215332
6868.753110023969,1552391.0,0.0018899999558925629,0.00018000000272877514,-0.003269999986514449,18.538999557495117
6868.754109795893,1552392.0,0.0030499999411404133,0.006579999811947346,0.0036800000816583633,18.89299964904785
6868.755109567815,1552393.0,0.005210000090301037,0.004900000058114529,-0.004449999891221523,18.816999435424805
6868.756109339738,1552394.0,0.0064199999906122684,-0.004410000052303076,-0.006310000084340572,18.792999267578125
6868.757109111661,1552395.0,0.004670000169426203,0.005270000081509352,-0.000910000002477318,18.792999267578125
6868.758108883583,1552396.0,0.003229999914765358,-0.001449999981559813,0.0033599999733269215,18.93000030517578
6868.759108655506,1552397.0,0.0016199999954551458,0.00267999991774559,0.00031999999191612005,18.78700065612793
6868.760108427429,1552398.0,-9.000000136438757e-05,0.0012700000079348683,-0.003449999960139394,18.650999069213867
6868.761108199352,1552399.0,-0.000539999979082495,0.002630000002682209,0.0002300000051036477,18.841999053955078
6868.762107971274,1552400.0,-0.0011699999449774623,-0.0022700000554323196,0.0027199999894946814,18.878000259399414
6868.763107743197,1552401.0,-0.002959999954327941,0.004629999864846468,-0.0016299999551847577,18.95800018310547
6868.7641075151205,1552402.0,-0.004000000189989805,0.0028200000524520874,-0.001500000013038516,18.701000213623047
6868.765107287043,1552403.0,-0.005210000090301037,0.0007699999841861427,0.003590000094845891,18.996000289916992
6868.766107058966,1552404.0,-0.005210000090301037,0.0,0.001820000004954636,18.8799991607666
6868.767106830888,1552405.0,-0.0029200001154094934,0.0028200000524520874,0.006990000139921904,18.976999282836914
6868.768106602811,1552406.0,0.0,-0.005270000081509352,0.0013599999947473407,18.94499969482422
6868.769106374733,1552407.0,0.001979999942705035,0.003809999907389283,-0.001500000013038516,18.854000091552734
6868.770106146657,1552408.0,0.004310000222176313,0.000910000002477318,-0.0027199999894946814,18.909000396728516
6868.771105918579,1552409.0,0.0035500000230968,0.00418000016361475,-0.006180000025779009,18.658000946044922
6868.772105690502,1552410.0,0.0027000000700354576,0.0013599999947473407,0.002360000042244792,18.979999542236328
6868.773105462425,1552411.0,0.002520000096410513,0.000539999979082495,-0.00418000016361475,18.951000213623047
6868.774105234347,1552412.0,0.0017999999690800905,-0.006719999946653843,-0.0059899999760091305,18.93899917602539
6868.775105006271,1552413.0,0.0016599999507889152,0.003449999960139394,-0.003220000071451068,18.933000564575195
6868.776104778193,1552414.0,0.0016199999954551458,0.004040000028908253,0.001449999981559813,18.97599983215332
6868.777104550116,1552415.0,0.0015300000086426735,0.0020000000949949026,-0.007899999618530273,19.048999786376953
6868.778104322038,1552416.0,0.0014400000218302011,0.0016299999551847577,0.0006799999973736703,19.0
6868.779104093961,1552417.0,-0.00018000000272877514,-0.000910000002477318,-0.004860000219196081,18.988000869750977
6868.780103865884,1552418.0,-0.0022499999031424522,-0.0016299999551847577,-0.006180000025779009,19.042999267578125
6868.781103637807,1552419.0,-0.0024300001095980406,0.0019099999917671084,-0.005539999809116125,19.07699966430664
6868.78210340973,1552420.0,0.0,0.0019099999917671084,-0.006949999835342169,18.707000732421875
6868.783103181652,1552421.0,0.0016199999954551458,0.005090000107884407,0.001449999981559813,19.138999938964844
6868.784102953575,1552422.0,0.0021100000012665987,-0.000910000002477318,0.001820000004954636,19.04599952697754
6868.785102725497,1552423.0,0.0031399999279528856,-0.0030900000128895044,-0.000539999979082495,19.086000442504883
6868.786102497421,1552424.0,0.0026100000832229853,0.0033599999733269215,0.00418000016361475,19.07699966430664
6868.787102269343,1552425.0,0.0016199999954551458,-9.000000136438757e-05,-0.00044999999227002263,19.159000396728516
6868.788102041266,1552426.0,0.0014400000218302011,0.0014100000262260437,-0.003449999960139394,19.125
6868.789101813189,1552427.0,0.0035500000230968,0.003449999960139394,-0.000539999979082495,19.211000442504883
6868.790101585111,1552428.0,0.004490000195801258,-0.000539999979082495,-0.000539999979082495,19.091999053955078
6868.791101357034,1552429.0,0.0031399999279528856,-0.006719999946653843,0.000910000002477318,19.097999572753906
6868.792101128957,1552430.0,0.0024300001095980406,0.004000000189989805,0.0030900000128895044,19.10099983215332
6868.79310090088,1552431.0,0.0023399998899549246,-0.0051299999468028545,0.0013599999947473407,19.165000915527344
6868.794100672802,1552432.0,0.003860000055283308,-0.0030900000128895044,-0.006539999973028898,18.816999435424805
6868.795100444725,1552433.0,0.006649999879300594,0.000910000002477318,0.0003600000054575503,19.284000396728516
6868.7961002166485,1552434.0,0.006870000157505274,-0.0020000000949949026,-0.001180000021122396,19.163999557495117
6868.797099988571,1552435.0,0.0065100002102553844,-0.003590000094845891,0.000910000002477318,19.159000396728516
6868.798099760494,1552436.0,0.005929999984800816,-0.002630000002682209,-0.0007699999841861427,19.165000915527344
6868.799099532416,1552437.0,0.0037700000684708357,-0.00535999983549118,0.00018000000272877514,19.308000564575195
6868.800099304339,1552438.0,0.0023399998899549246,-0.006630000192672014,0.000539999979082495,19.238000869750977
6868.801099076261,1552439.0,0.0017099999822676182,-0.003000000026077032,-0.005539999809116125,19.260000228881836
6868.802098848185,1552440.0,0.0015300000086426735,-0.003269999986514449,-0.00018000000272877514,19.214000701904297
6868.803098620107,1552441.0,0.0014400000218302011,0.004360000137239695,0.0019099999917671084,19.219999313354492
6868.80409839203,1552442.0,0.0016199999954551458,-0.0083600003272295,0.001449999981559813,19.235000610351562
6868.805098163953,1552443.0,0.0012600000482052565,-0.003220000071451068,-0.0025400000158697367,19.402999877929688
6868.806097935875,1552444.0,0.0013899999903514981,-0.0012700000079348683,0.0051299999468028545,19.260000228881836
6868.807097707799,1552445.0,0.0029200001154094934,-0.007899999618530273,-0.006180000025779009,19.18899917602539
6868.808097479721,1552446.0,0.0024300001095980406,0.005270000081509352,0.0007300000288523734,19.2810001373291
6868.809097251644,1552447.0,0.0007600000244565308,-0.0059899999760091305,0.0010900000343099236,19.29599952697754
6868.810097023566,1552448.0,-0.0011699999449774623,0.003809999907389283,0.0030900000128895044,19.29800033569336
6868.811096795489,1552449.0,-0.00279000005684793,0.0030900000128895044,-0.002859999891370535,19.464000701904297
6868.812096567412,1552450.0,-0.0028800000436604023,0.001180000021122396,0.0024500000290572643,19.320999145507812
6868.813096339335,1552451.0,-0.0012600000482052565,0.0051299999468028545,-0.004540000110864639,19.195999145507812
6868.814096111258,1552452.0,0.0027000000700354576,0.0002699999895412475,0.0016299999551847577,19.329999923706055
6868.81509588318,1552453.0,0.0037700000684708357,-0.0010900000343099236,0.0010400000028312206,19.33300018310547
6868.816095655103,1552454.0,0.0026100000832229853,-0.00418000016361475,0.0021800000686198473,19.37299919128418
6868.817095427026,1552455.0,0.0006699999794363976,-0.001769999973475933,-0.005770000163465738,19.2810001373291
6868.818095198949,1552456.0,-9.000000136438757e-05,0.0012700000079348683,-0.003949999809265137,19.51799964904785
6868.819094970871,1552457.0,0.001979999942705035,0.0028200000524520874,0.004449999891221523,19.374000549316406
6868.820094742794,1552458.0,0.005570000037550926,-0.002360000042244792,-0.0012700000079348683,19.454999923706055
6868.821094514717,1552459.0,0.0037700000684708357,0.002360000042244792,-0.008080000057816505,19.542999267578125
6868.822094286639,1552460.0,0.00018000000272877514,-0.0024500000290572643,-0.001449999981559813,19.56599998474121
6868.823094058563,1552461.0,-0.00279000005684793,-0.0016299999551847577,0.0007699999841861427,19.415000915527344
6868.824093830485,1552462.0,-0.005210000090301037,0.0027199999894946814,0.001820000004954636,19.07699966430664
6868.825093602408,1552463.0,-0.00646999990567565,0.0028200000524520874,-0.0059899999760091305,19.547000885009766
6868.82609337433,1552464.0,-0.00773000018671155,-0.0021299999207258224,0.00018000000272877514,19.479000091552734
6868.827093146253,1552465.0,-0.006200000178068876,0.0020000000949949026,0.002589999930933118,19.454999923706055
6868.8280929181765,1552466.0,-0.005570000037550926,-0.005630000028759241,-0.00044999999227002263,19.365999221801758
6868.829092690099,1552467.0,-0.0065100002102553844,-0.005489999894052744,-0.004999999888241291,19.63800048828125
6868.830092462022,1552468.0,-0.005750000011175871,-0.0016799999866634607,-0.0033599999733269215,19.53700065612793
6868.831092233944,1552469.0,-0.003949999809265137,0.007449999917298555,0.003539999946951866,19.198999404907227
6868.832092005867,1552470.0,-0.0022499999031424522,-0.004089999943971634,-0.0019099999917671084,19.562000274658203
6868.833091777789,1552471.0,-0.0015300000086426735,0.0010000000474974513,-0.0015899999998509884,19.533000946044922
6868.834091549713,1552472.0,-0.0016199999954551458,-0.000910000002477318,-0.005900000222027302,19.64699935913086
6868.835091321635,1552473.0,0.0007200000109151006,0.004449999891221523,-0.0007300000288523734,19.549999237060547
6868.836091093558,1552474.0,0.003949999809265137,0.0020000000949949026,0.005489999894052744,19.54199981689453
6868.837090865481,1552475.0,0.005929999984800816,0.004999999888241291,-0.003000000026077032,19.62299919128418
6868.838090637403,1552476.0,0.007280000019818544,-0.004860000219196081,-0.0063599999994039536,19.659000396728516
6868.839090409327,1552477.0,0.008630000054836273,0.004220000002533197,-0.004809999838471413,19.725000381469727
6868.840090181249,1552478.0,0.007369999773800373,-0.0027199999894946814,0.0002300000051036477,19.67799949645996
6868.841089953172,1552479.0,0.005570000037550926,0.001769999973475933,-0.0014100000262260437,19.659000396728516
6868.842089725094,1552480.0,0.0047599999234080315,0.0012700000079348683,0.0007300000288523734,19.290000915527344
6868.843089497017,1552481.0,0.005929999984800816,0.0007300000288523734,-0.001230000052601099,19.70199966430664
6868.84408926894,1552482.0,0.004579999949783087,0.0006799999973736703,-0.005270000081509352,19.714000701904297
6868.845089040863,1552483.0,0.0031399999279528856,-0.004540000110864639,0.0007300000288523734,19.73699951171875
6868.846088812786,1552484.0,0.003949999809265137,-0.004540000110864639,0.0,19.724000930786133
6868.847088584708,1552485.0,0.0035000001080334187,-0.005630000028759241,-0.000910000002477318,19.719999313354492
6868.848088356631,1552486.0,0.0008999999845400453,-0.002630000002682209,-0.004900000058114529,19.48900032043457
6868.849088128554,1552487.0,-0.0017999999690800905,-0.005270000081509352,0.0031799999997019768,19.69300079345703
6868.850087900477,1552488.0,-0.0034099998883903027,0.000910000002477318,0.003000000026077032,19.698999404907227
6868.851087672399,1552489.0,-0.002959999954327941,-0.005270000081509352,-0.0012700000079348683,19.704999923706055
6868.852087444322,1552490.0,-0.0016199999954551458,-0.004410000052303076,-0.003449999960139394,19.843000411987305
6868.853087216245,1552491.0,0.0016199999954551458,-0.005630000028759241,0.0031799999997019768,19.73900032043457
6868.854086988167,1552492.0,0.004310000222176313,-0.008170000277459621,-0.006180000025779009,19.607999801635742
6868.855086760091,1552493.0,0.005210000090301037,0.004449999891221523,-0.0010000000474974513,19.799999237060547
6868.856086532013,1552494.0,0.006060000043362379,-0.0063599999994039536,-0.001230000052601099,19.80900001525879
6868.857086303936,1552495.0,0.007550000213086605,0.0031799999997019768,0.003809999907389283,19.797000885009766
6868.858086075858,1552496.0,0.006649999879300594,0.004629999864846468,-0.00418000016361475,19.920000076293945
6868.859085847781,1552497.0,0.004220000002533197,0.002360000042244792,0.0007300000288523734,19.777000427246094
6868.8600856197045,1552498.0,0.0007600000244565308,-0.0012700000079348683,-0.0036299999337643385,19.861000061035156
6868.861085391627,1552499.0,-0.00107999995816499,0.0002699999895412475,-9.000000136438757e-05,19.732999801635742
6868.86208516355,1552500.0,-0.0002699999895412475,0.0013599999947473407,0.00031999999191612005,19.70800018310547
6868.863084935472,1552501.0,0.0030499999411404133,-0.004999999888241291,0.0017300000181421638,19.70800018310547
6868.864084707395,1552502.0,0.0037700000684708357,-0.003809999907389283,-0.003719999920576811,19.93400001525879
6868.865084479317,1552503.0,0.004579999949783087,-0.0020000000949949026,-0.0003600000054575503,19.86400032043457
6868.866084251241,1552504.0,0.007550000213086605,0.0027199999894946814,-0.005539999809116125,19.805999755859375
6868.867084023163,1552505.0,0.009879999794065952,-0.00267999991774559,-0.0008200000156648457,19.591999053955078
6868.868083795086,1552506.0,0.010060000233352184,0.00018000000272877514,-0.0022700000554323196,19.54199981689453
6868.869083567009,1552507.0,0.009069999679923058,-0.004900000058114529,-0.00018000000272877514,19.92799949645996
6868.870083338931,1552508.0,0.010329999960958958,-0.004040000028908253,0.003449999960139394,19.885000228881836
6868.871083110855,1552509.0,0.0088900001719594,0.0006399999838322401,-0.001820000004954636,20.062000274658203
6868.872082882777,1552510.0,0.008270000107586384,0.0030900000128895044,-0.0028200000524520874,19.913000106811523
6868.8730826547,1552511.0,0.006020000204443932,-0.0019499999471008778,-0.002630000002682209,19.974000930786133
6868.874082426622,1552512.0,0.0027000000700354576,0.000539999979082495,-0.0018599999602884054,20.025999069213867
6868.875082198545,1552513.0,-0.0003100000030826777,-0.006630000192672014,-0.0016299999551847577,20.111000061035156
6868.876081970468,1552514.0,-0.001979999942705035,-0.007449999917298555,-0.004809999838471413,19.98900032043457
6868.877081742391,1552515.0,-0.0003600000054575503,-0.0021800000686198473,0.0021800000686198473,20.01300048828125
6868.878081514314,1552516.0,0.0029200001154094934,-0.003809999907389283,-0.006719999946653843,20.135000228881836
6868.879081286236,1552517.0,0.004579999949783087,0.0016299999551847577,-0.002360000042244792,20.049999237060547
6868.880081058159,1552518.0,0.006020000204443932,-0.005270000081509352,0.0016299999551847577,19.947999954223633
6868.881080830082,1552519.0,0.00646999990567565,-0.0027199999894946814,0.004999999888241291,20.01799964904785
6868.882080602005,1552520.0,0.007860000245273113,-0.0028200000524520874,-0.003809999907389283,20.045000076293945
6868.883080373927,1552521.0,0.007639999967068434,-0.003909999970346689,-0.003220000071451068,20.148000717163086
6868.88408014585,1552522.0,0.00610999995842576,-0.0015399999683722854,0.00418000016361475,19.652000427246094
6868.885079917773,1552523.0,0.004579999949783087,0.0010000000474974513,-0.0015399999683722854,20.045000076293945
6868.886079689695,1552524.0,0.0027000000700354576,-0.00418000016361475,0.003809999907389283,20.058000564575195
6868.887079461619,1552525.0,0.0009899999713525176,-0.005179999861866236,-0.007079999893903732,20.232999801635742
6868.888079233541,1552526.0,9.000000136438757e-05,-0.003449999960139394,0.005630000028759241,20.086999893188477
6868.889079005464,1552527.0,-0.0016199999954551458,-0.005630000028759241,0.0021800000686198473,19.829999923706055
6868.890078777386,1552528.0,-0.0027000000700354576,-0.004720000084489584,-0.0012700000079348683,20.135000228881836
6868.891078549309,1552529.0,-0.0027000000700354576,0.003909999970346689,-0.0016299999551847577,20.20599937438965
6868.8920783212325,1552530.0,-0.004040000028908253,-0.004089999943971634,-0.001449999981559813,20.28700065612793
6868.893078093155,1552531.0,-0.0052999998442828655,-0.005630000028759241,-0.000539999979082495,19.854999542236328
6868.894077865078,1552532.0,-0.004490000195801258,-0.005450000055134296,-0.0052200001664459705,20.288000106811523
6868.895077637,1552533.0,-0.0030499999411404133,-0.0033599999733269215,-0.001500000013038516,20.232999801635742
6868.896077408923,1552534.0,-0.0008999999845400453,-0.007670000195503235,-0.004809999838471413,20.22100067138672
6868.897077180845,1552535.0,0.0016199999954551458,-0.000539999979082495,-0.004809999838471413,20.049999237060547
6868.898076952769,1552536.0,0.0017999999690800905,-0.007720000110566616,-0.00018000000272877514,19.875
6868.899076724691,1552537.0,0.0029200001154094934,-0.00418000016361475,-0.0007300000288523734,20.357999801635742
6868.900076496614,1552538.0,0.003949999809265137,-0.003269999986514449,0.003909999970346689,20.257999420166016
6868.901076268537,1552539.0,0.0035000001080334187,0.0006399999838322401,-0.001769999973475933,20.232999801635742
6868.90207604046,1552540.0,0.0025599999353289604,-0.004449999891221523,0.003269999986514449,20.281999588012695
6868.903075812383,1552541.0,0.0028800000436604023,0.00041000000783242285,0.005270000081509352,20.34600067138672
6868.904075584305,1552542.0,0.0037700000684708357,-0.004720000084489584,-0.000910000002477318,20.406999588012695
6868.905075356228,1552543.0,0.003860000055283308,-0.004900000058114529,0.0031300000846385956,20.24799919128418
6868.90607512815,1552544.0,0.004220000002533197,-0.006089999806135893,-0.003449999960139394,20.174999237060547
6868.907074900073,1552545.0,0.003949999809265137,-0.0020000000949949026,-0.001230000052601099,20.43199920654297
6868.9080746719965,1552546.0,0.004310000222176313,-0.0010000000474974513,-0.001820000004954636,20.28499984741211
6868.909074443919,1552547.0,0.004129999782890081,0.0031799999997019768,-0.0059899999760091305,20.049999237060547
6868.910074215842,1552548.0,0.0037700000684708357,-0.006990000139921904,0.00044999999227002263,20.308000564575195
6868.911073987764,1552549.0,0.004129999782890081,-0.004900000058114529,-0.0062699997797608376,20.29400062561035
6868.912073759687,1552550.0,0.003949999809265137,0.000910000002477318,0.0025400000158697367,20.50200080871582
6868.91307353161,1552551.0,0.0028800000436604023,0.001449999981559813,-0.002630000002682209,20.33799934387207
6868.914073303533,1552552.0,0.0021100000012665987,-0.004540000110864639,-0.004769999999552965,20.367000579833984
6868.915073075455,1552553.0,0.0012600000482052565,0.002589999930933118,-0.00031999999191612005,20.46500015258789
6868.916072847378,1552554.0,0.00107999995816499,-0.005539999809116125,-0.00018000000272877514,20.513999938964844
6868.917072619301,1552555.0,0.0006300000241026282,-0.0007699999841861427,-0.003449999960139394,20.422000885009766
6868.918072391223,1552556.0,0.0014400000218302011,0.003809999907389283,-0.00418000016361475,19.98900032043457
6868.919072163147,1552557.0,0.0028800000436604023,0.0024500000290572643,0.0021800000686198473,20.566999435424805
6868.920071935069,1552558.0,0.005659999791532755,-0.0052200001664459705,0.00031999999191612005,20.507999420166016
6868.921071706992,1552559.0,0.006690000183880329,0.003539999946951866,0.003949999809265137,20.452999114990234
6868.922071478914,1552560.0,0.007459999993443489,-0.0033199999015778303,-0.00267999991774559,20.06800079345703
6868.923071250837,1552561.0,0.008270000107586384,0.005810000002384186,0.0027199999894946814,20.547000885009766
6868.9240710227605,1552562.0,0.007860000245273113,-0.00018000000272877514,-0.002859999891370535,20.520000457763672
6868.925070794683,1552563.0,0.005929999984800816,-0.0007300000288523734,0.0015399999683722854,20.42099952697754
6868.926070566606,1552564.0,0.00418000016361475,-0.003539999946951866,-0.0017300000181421638,20.267000198364258
6868.927070338528,1552565.0,0.0034099998883903027,4.999999873689376e-05,-0.00418000016361475,20.12299919128418
6868.928070110451,1552566.0,0.003640000009909272,-0.0030900000128895044,0.000910000002477318,20.562999725341797
6868.929069882373,1552567.0,0.001979999942705035,0.001820000004954636,-0.0029100000392645597,20.50200080871582
6868.930069654297,1552568.0,-0.0002699999895412475,0.0019099999917671084,0.004999999888241291,20.577999114990234
6868.931069426219,1552569.0,-0.0027000000700354576,-0.00018000000272877514,-0.006769999861717224,20.56599998474121
6868.932069198142,1552570.0,-0.003280000062659383,-0.003590000094845891,-0.0059899999760091305,20.551000595092773
6868.933068970065,1552571.0,-0.0024300001095980406,-0.0013599999947473407,-0.002859999891370535,20.541000366210938
6868.934068741988,1552572.0,-0.0014400000218302011,0.001500000013038516,0.002859999891370535,20.679000854492188
6868.935068513911,1552573.0,-0.0003600000054575503,0.002360000042244792,0.002360000042244792,20.71500015258789
6868.936068285833,1552574.0,-9.000000136438757e-05,0.002360000042244792,-0.0024500000290572643,20.61199951171875
6868.937068057756,1552575.0,-0.000539999979082495,0.001449999981559813,0.001449999981559813,20.704999923706055
6868.938067829678,1552576.0,-0.0008099999977275729,-0.005810000002384186,-0.0006799999973736703,20.55500030517578
6868.939067601601,1552577.0,-0.0008099999977275729,-0.0030900000128895044,0.001180000021122396,20.22100067138672
6868.9400673735245,1552578.0,0.0008999999845400453,0.00018000000272877514,-0.004360000137239695,20.781999588012695
6868.941067145447,1552579.0,0.0037700000684708357,0.0021800000686198473,-0.004129999782890081,20.66699981689453
6868.94206691737,1552580.0,0.0052999998442828655,0.0020000000949949026,0.0013200000394135714,20.63599967956543
6868.943066689292,1552581.0,0.004490000195801258,-0.004540000110864639,-0.0022700000554323196,20.757999420166016
6868.944066461215,1552582.0,0.0034099998883903027,-9.000000136438757e-05,-0.00535999983549118,20.781999588012695
6868.945066233138,1552583.0,0.0030499999411404133,0.00018000000272877514,-0.0022700000554323196,20.54400062561035
6868.946066005061,1552584.0,0.0030499999411404133,0.002360000042244792,0.004000000189989805,20.833999633789062
6868.947065776983,1552585.0,0.0021100000012665987,0.0016299999551847577,0.0013200000394135714,20.80699920654297
6868.948065548906,1552586.0,-0.00018000000272877514,-0.00044999999227002263,-0.006630000192672014,20.71500015258789
6868.949065320829,1552587.0,-0.0022499999031424522,0.000539999979082495,0.0013200000394135714,20.84000015258789
6868.950065092751,1552588.0,-0.006020000204443932,-0.007540000136941671,-0.0020000000949949026,20.819000244140625
6868.951064864675,1552589.0,-0.008449999615550041,0.005900000222027302,0.0016299999551847577,20.624000549316406
6868.952064636597,1552590.0,-0.0071000000461936,0.0030900000128895044,-0.004540000110864639,20.881999969482422
6868.95306440852,1552591.0,-0.005570000037550926,0.00031999999191612005,-0.0024999999441206455,20.82200050354004
6868.954064180442,1552592.0,-0.006599999964237213,-0.0021800000686198473,0.003269999986514449,20.775999069213867
6868.955063952366,1552593.0,-0.002959999954327941,-0.002360000042244792,0.004269999917596579,20.801000595092773
6868.9560637242885,1552594.0,0.0035000001080334187,-0.004360000137239695,0.004360000137239695,20.8799991607666
6868.957063496211,1552595.0,0.0071000000461936,-0.0024500000290572643,-0.004720000084489584,20.91699981689453
6868.958063268134,1552596.0,0.008270000107586384,0.006219999864697456,0.0006399999838322401,20.920000076293945
6868.959063040056,1552597.0,0.008630000054836273,0.0002699999895412475,-0.002630000002682209,20.856000900268555
6868.960062811979,1552598.0,0.009519999846816063,0.00018000000272877514,-0.007720000110566616,20.86199951171875
6868.961062583902,1552599.0,0.010060000233352184,-0.000539999979082495,-0.003719999920576811,20.892000198364258
6868.962062355825,1552600.0,0.010420000180602074,-0.0020000000949949026,-0.0027199999894946814,21.00200080871582
6868.963062127747,1552601.0,0.010780000127851963,0.004720000084489584,0.004269999917596579,20.542999267578125
6868.96406189967,1552602.0,0.01131999958306551,-0.0015399999683722854,0.00018000000272877514,20.8799991607666
6868.965061671593,1552603.0,0.011859999969601631,-0.0029100000392645597,-0.006990000139921904,21.040000915527344
6868.966061443516,1552604.0,0.010599999688565731,-0.003590000094845891,0.0013200000394135714,20.874000549316406
6868.967061215439,1552605.0,0.008980000391602516,0.002630000002682209,0.0029100000392645597,20.898000717163086
6868.968060987361,1552606.0,0.007009999826550484,-0.002319999970495701,0.002360000042244792,20.9060001373291
6868.969060759284,1552607.0,0.006829999852925539,0.0027199999894946814,-0.003269999986514449,21.075000762939453
6868.970060531206,1552608.0,0.008849999867379665,0.0010000000474974513,0.004540000110864639,20.952999114990234
6868.971060303129,1552609.0,0.011859999969601631,0.005270000081509352,-0.0012700000079348683,20.989999771118164
6868.9720600750525,1552610.0,0.011230000294744968,0.00018000000272877514,0.0029100000392645597,20.952999114990234
6868.973059846975,1552611.0,0.011500000022351742,-0.004540000110864639,0.004360000137239695,20.95599937438965
6868.974059618898,1552612.0,0.011680000461637974,0.0045900000259280205,0.0030900000128895044,20.95599937438965
6868.97505939082,1552613.0,0.01181000005453825,0.0007300000288523734,-0.003269999986514449,21.139999389648438
6868.976059162743,1552614.0,0.01257999986410141,0.00044999999227002263,0.0022299999836832285,21.003999710083008
6868.977058934666,1552615.0,0.013249999843537807,0.0010900000343099236,0.002360000042244792,20.684999465942383
6868.978058706589,1552616.0,0.01257999986410141,-0.0016299999551847577,0.003809999907389283,21.00200080871582
6868.979058478511,1552617.0,0.01095999963581562,-0.0020000000949949026,0.00044999999227002263,21.013999938964844
6868.980058250434,1552618.0,0.009340000338852406,-0.0017300000181421638,0.0002699999895412475,21.042999267578125
6868.981058022357,1552619.0,0.00800000037997961,-0.004900000058114529,-0.008270000107586384,21.11199951171875
6868.982057794279,1552620.0,0.007189999800175428,0.000539999979082495,-0.008170000277459621,21.139999389648438
6868.983057566203,1552621.0,0.00610999995842576,0.0031799999997019768,0.001769999973475933,20.66699981689453
6868.984057338125,1552622.0,0.004310000222176313,-0.003809999907389283,-0.0017300000181421638,21.082000732421875
6868.985057110048,1552623.0,0.0021100000012665987,0.00018000000272877514,-0.005040000192821026,21.184999465942383
6868.98605688197,1552624.0,0.001979999942705035,-0.000539999979082495,-0.004629999864846468,21.249000549316406
6868.987056653894,1552625.0,0.0028800000436604023,0.001180000021122396,-0.003220000071451068,21.100000381469727
6868.9880564258165,1552626.0,0.0031399999279528856,-0.001449999981559813,0.00044999999227002263,21.04199981689453
6868.989056197739,1552627.0,0.0030499999411404133,0.0016299999551847577,-0.002950000111013651,21.270999908447266
6868.990055969662,1552628.0,0.0027000000700354576,-0.00018000000272877514,0.000910000002477318,21.201000213623047
6868.991055741584,1552629.0,0.0034099998883903027,-0.00014000000373926014,0.00044999999227002263,21.149999618530273
6868.992055513507,1552630.0,0.004670000169426203,0.000910000002477318,0.001180000021122396,21.04199981689453
6868.99305528543,1552631.0,0.005969999823719263,0.0016299999551847577,-0.002360000042244792,21.326000213623047
6868.994055057353,1552632.0,0.00610999995842576,0.0031799999997019768,-0.0003600000054575503,21.18199920654297
6868.995054829275,1552633.0,0.004939999897032976,-0.0015399999683722854,0.0012700000079348683,20.97800064086914
6868.996054601198,1552634.0,0.0034099998883903027,-0.00018000000272877514,0.001449999981559813,20.809999465942383
6868.997054373121,1552635.0,0.003819999983534217,-0.005270000081509352,0.002589999930933118,21.204999923706055
6868.998054145044,1552636.0,0.004129999782890081,-0.00018000000272877514,0.0010900000343099236,21.214000701904297
6868.999053916967,1552637.0,0.0035500000230968,0.003909999970346689,0.0022299999836832285,20.898000717163086
6869.000053688889,1552638.0,0.0033199999015778303,0.000910000002477318,-0.004449999891221523,21.322999954223633
6869.001053460812,1552639.0,0.0035500000230968,-0.0019099999917671084,0.0028200000524520874,21.246000289916992
6869.002053232734,1552640.0,0.004490000195801258,0.001820000004954636,-0.0005000000237487257,21.283000946044922
6869.003053004657,1552641.0,0.004670000169426203,-0.002090000081807375,0.0010400000028312206,21.358999252319336
6869.0040527765805,1552642.0,0.005750000011175871,-0.0007699999841861427,-0.007269999943673611,21.31999969482422
6869.005052548503,1552643.0,0.006560000125318766,0.0062699997797608376,-0.0028200000524520874,21.39299964904785
6869.006052320426,1552644.0,0.007189999800175428,0.0015399999683722854,0.0030900000128895044,21.29800033569336
6869.007052092348,1552645.0,0.006649999879300594,0.0002699999895412475,-0.0027199999894946814,21.45400047302246
6869.008051864271,1552646.0,0.007009999826550484,-0.0020000000949949026,-0.006130000110715628,21.408000946044922
6869.009051636194,1552647.0,0.00795000046491623,0.000539999979082495,-0.0027199999894946814,21.33799934387207
6869.010051408117,1552648.0,0.010110000148415565,0.0011399999493733048,0.0003600000054575503,21.312999725341797
6869.011051180039,1552649.0,0.012670000083744526,0.004040000028908253,-0.00018000000272877514,21.386999130249023
6869.012050951962,1552650.0,0.014639999717473984,-0.003809999907389283,-0.0030900000128895044,21.42300033569336
6869.013050723885,1552651.0,0.017249999567866325,0.004540000110864639,-0.00018000000272877514,21.45400047302246
6869.014050495807,1552652.0,0.01931999996304512,-0.005270000081509352,-0.000910000002477318,21.45400047302246
6869.015050267731,1552653.0,0.02071000076830387,0.006089999806135893,0.0024500000290572643,21.402000427246094
6869.016050039653,1552654.0,0.019950000569224358,0.000910000002477318,-0.004449999891221523,21.350000381469727
6869.017049811576,1552655.0,0.018149999901652336,0.0024500000290572643,0.005040000192821026,21.283000946044922
6869.018049583498,1552656.0,0.0142000000923872,-0.0025400000158697367,-0.0036800000816583633,21.56399917602539
6869.019049355422,1552657.0,0.009519999846816063,0.002859999891370535,0.0013599999947473407,21.246000289916992
6869.0200491273445,1552658.0,0.008449999615550041,-0.0020000000949949026,0.002630000002682209,20.95599937438965
6869.021048899267,1552659.0,0.011590000241994858,0.002090000081807375,0.0003600000054575503,21.42300033569336
6869.02204867119,1552660.0,0.013120000250637531,0.0036299999337643385,-0.001449999981559813,21.57900047302246
6869.023048443112,1552661.0,0.012040000408887863,-0.0008200000156648457,-0.0059899999760091305,21.465999603271484
6869.024048215035,1552662.0,0.008799999952316284,-0.006579999811947346,0.0,21.010000228881836
6869.025047986958,1552663.0,0.004670000169426203,0.002859999891370535,0.0007300000288523734,21.447999954223633
6869.026047758881,1552664.0,0.002199999988079071,-0.003449999960139394,-0.003000000026077032,21.472000122070312
6869.027047530803,1552665.0,0.0002699999895412475,0.001820000004954636,-0.0025400000158697367,21.509000778198242
6869.028047302726,1552666.0,-0.0012600000482052565,0.003809999907389283,0.0030900000128895044,21.445999145507812
6869.029047074649,1552667.0,0.0007600000244565308,0.0007699999841861427,-0.003220000071451068,21.64900016784668
6869.030046846572,1552668.0,0.004269999917596579,-0.005630000028759241,-0.0033599999733269215,21.483999252319336
6869.031046618495,1552669.0,0.0071000000461936,0.0030900000128895044,-0.0025400000158697367,21.535999298095703
6869.032046390417,1552670.0,0.007189999800175428,-0.005900000222027302,-0.005270000081509352,21.552000045776367
6869.03304616234,1552671.0,0.006380000151693821,0.0016299999551847577,-0.004809999838471413,21.58799934387207
6869.034045934262,1552672.0,0.0052999998442828655,0.0063599999994039536,0.00018000000272877514,21.201000213623047
6869.035045706185,1552673.0,0.0035000001080334187,0.0007300000288523734,-0.0002699999895412475,21.67099952697754
6869.0360454781085,1552674.0,0.0006300000241026282,-0.004809999838471413,-0.004900000058114529,21.566999435424805
6869.037045250031,1552675.0,-0.0016199999954551458,0.000910000002477318,-0.005450000055134296,21.652000427246094
6869.038045021954,1552676.0,-0.001979999942705035,-0.004629999864846468,-0.003809999907389283,21.735000610351562
6869.039044793876,1552677.0,-0.0017099999822676182,0.0025400000158697367,0.0012700000079348683,21.655000686645508
6869.0400445658,1552678.0,-0.0003600000054575503,0.00018000000272877514,-0.0019099999917671084,21.69499969482422
6869.041044337722,1552679.0,0.00107999995816499,-0.005630000028759241,-0.004000000189989805,21.593000411987305
6869.042044109645,1552680.0,0.0016199999954551458,-0.0059899999760091305,0.0014100000262260437,21.636999130249023
6869.043043881567,1552681.0,0.004129999782890081,0.004000000189989805,0.003269999986514449,21.57900047302246
6869.04404365349,1552682.0,0.007369999773800373,-0.005450000055134296,0.004089999943971634,21.3439998626709
6869.045043425413,1552683.0,0.009519999846816063,-0.00044999999227002263,-0.0030900000128895044,21.636999130249023
6869.046043197336,1552684.0,0.009700000286102295,0.0031799999997019768,0.002630000002682209,21.535999298095703
6869.047042969259,1552685.0,0.010599999688565731,-0.004900000058114529,-0.0008200000156648457,21.808000564575195
6869.048042741181,1552686.0,0.011680000461637974,-0.003809999907389283,9.000000136438757e-05,21.701000213623047
6869.049042513104,1552687.0,0.01095999963581562,-0.0006799999973736703,-0.003719999920576811,21.683000564575195
6869.050042285026,1552688.0,0.010239999741315842,-0.004540000110864639,-0.004040000028908253,21.691999435424805
6869.05104205695,1552689.0,0.009970000013709068,0.001769999973475933,-0.007269999943673611,21.832000732421875
6869.0520418288725,1552690.0,0.010470000095665455,0.003809999907389283,-0.003000000026077032,21.697999954223633
6869.053041600795,1552691.0,0.012040000408887863,0.0036800000816583633,0.0022700000554323196,21.863000869750977
6869.054041372718,1552692.0,0.013930000364780426,0.002090000081807375,-9.000000136438757e-05,21.621999740600586
6869.05504114464,1552693.0,0.012760000303387642,-0.00418000016361475,0.00044999999227002263,21.597000122070312
6869.056040916563,1552694.0,0.007369999773800373,0.004360000137239695,0.00018000000272877514,21.395999908447266
6869.057040688486,1552695.0,0.004579999949783087,-0.004540000110864639,-0.005630000028759241,21.783000946044922
6869.058040460409,1552696.0,0.004939999897032976,-0.00418000016361475,0.0010900000343099236,21.301000595092773
6869.059040232331,1552697.0,0.007009999826550484,0.0030900000128895044,9.000000136438757e-05,21.802000045776367
6869.060040004254,1552698.0,0.009610000066459179,-9.000000136438757e-05,0.001500000013038516,21.77899932861328
6869.061039776177,1552699.0,0.011500000022351742,-0.0008200000156648457,0.0020000000949949026,21.790000915527344
6869.0620395481,1552700.0,0.010780000127851963,-0.00018000000272877514,-0.0033199999015778303,21.808000564575195
6869.063039320023,1552701.0,0.0083600003272295,-0.000539999979082495,0.0020000000949949026,21.770999908447266
6869.064039091945,1552702.0,0.006779999937862158,0.0010000000474974513,-0.005810000002384186,21.957000732421875
6869.065038863868,1552703.0,0.004939999897032976,0.000910000002477318,0.002360000042244792,21.81100082397461
6869.06603863579,1552704.0,0.0027000000700354576,-0.001180000021122396,-0.0008200000156648457,21.898000717163086
6869.067038407713,1552705.0,0.0007200000109151006,0.0059899999760091305,-0.0007300000288523734,21.966999053955078
6869.0680381796365,1552706.0,-0.0012600000482052565,-0.003000000026077032,-0.002360000042244792,21.996999740600586
6869.069037951559,1552707.0,-0.00215999991632998,-0.003449999960139394,0.0010400000028312206,21.836999893188477
6869.070037723482,1552708.0,-0.0030499999411404133,-0.004360000137239695,-0.006180000025779009,21.923999786376953
6869.071037495404,1552709.0,-0.006920000072568655,-0.000539999979082495,-0.007360000163316727,21.917999267578125
6869.072037267328,1552710.0,-0.010599999688565731,-0.007449999917298555,-0.010940000414848328,22.027999877929688
6869.07303703925,1552711.0,-0.013209999538958073,0.002090000081807375,-0.011719999834895134,22.03700065612793
6869.074036811173,1552712.0,-0.015990000218153,-0.006539999973028898,-0.002950000111013651,22.0310001373291
6869.075036583095,1552713.0,-0.01800999976694584,-0.005270000081509352,0.0064500002190470695,21.881000518798828
6869.076036355018,1552714.0,-0.020570000633597374,-0.001820000004954636,0.002360000042244792,21.729000091552734
6869.077036126941,1552715.0,-0.02425999939441681,-0.0010000000474974513,-0.0030900000128895044,22.052000045776367
6869.078035898864,1552716.0,-0.025340000167489052,-0.0052200001664459705,-0.0012700000079348683,22.014999389648438
6869.079035670787,1552717.0,-0.025830000638961792,0.0009500000160187483,-0.0036299999337643385,21.947999954223633
6869.080035442709,1552718.0,-0.026280000805854797,-0.004040000028908253,-0.001820000004954636,21.783000946044922
6869.081035214632,1552719.0,-0.026410000398755074,-0.0025400000158697367,-0.0059899999760091305,22.091999053955078
6869.082034986554,1552720.0,-0.02694999985396862,-0.00535999983549118,0.001449999981559813,21.95400047302246
6869.083034758478,1552721.0,-0.027310000732541084,-0.001180000021122396,-0.0025400000158697367,22.06100082397461
6869.0840345304005,1552722.0,-0.028209999203681946,0.0020000000949949026,-0.003719999920576811,22.06100082397461
6869.085034302323,1552723.0,-0.029200000688433647,-0.002950000111013651,-0.004129999782890081,22.069000244140625
6869.086034074246,1552724.0,-0.03109000064432621,0.006219999864697456,0.000910000002477318,21.871999740600586
6869.087033846168,1552725.0,-0.03162999823689461,-0.0027199999894946814,-0.004089999943971634,22.134000778198242
6869.088033618091,1552726.0,-0.028389999642968178,-0.004720000084489584,0.0059899999760091305,22.014999389648438
6869.089033390014,1552727.0,-0.02443999983370304,-0.001230000052601099,-0.0062699997797608376,22.1560001373291
6869.090033161937,1552728.0,-0.02443999983370304,-0.003719999920576811,-0.006630000192672014,22.167999267578125
6869.091032933859,1552729.0,-0.024080000817775726,-0.002360000042244792,-0.001820000004954636,22.136999130249023
6869.092032705782,1552730.0,-0.024080000817775726,0.0006399999838322401,0.0010000000474974513,21.70400047302246
6869.093032477705,1552731.0,-0.028209999203681946,0.0030900000128895044,-0.005090000107884407,22.197999954223633
6869.094032249628,1552732.0,-0.03109000064432621,0.004410000052303076,0.0030900000128895044,22.052000045776367
6869.095032021551,1552733.0,-0.03288000077009201,0.0059899999760091305,-0.004900000058114529,22.173999786376953
6869.096031793473,1552734.0,-0.03720000013709068,-0.005270000081509352,-0.00044999999227002263,22.141000747680664
6869.097031565396,1552735.0,-0.041280001401901245,0.002360000042244792,-0.0029100000392645597,22.113000869750977
6869.098031337318,1552736.0,-0.04276999831199646,-0.0013599999947473407,-0.000539999979082495,22.047000885009766
6869.099031109242,1552737.0,-0.04473999887704849,0.0006799999973736703,-0.004310000222176313,22.08300018310547
6869.1000308811645,1552738.0,-0.044520001858472824,0.0017300000181421638,-0.003909999970346689,22.165000915527344
6869.101030653087,1552739.0,-0.048700001090765,-0.00018000000272877514,-0.0063599999994039536,22.165000915527344
6869.10203042501,1552740.0,-0.05542999878525734,-0.004629999864846468,-0.004999999888241291,22.097999572753906
6869.103030196932,1552741.0,-0.06719999760389328,-0.0029100000392645597,0.000910000002477318,22.011999130249023
6869.104029968856,1552742.0,-0.07601000368595123,-0.005810000002384186,0.000539999979082495,22.149999618530273
6869.105029740778,1552743.0,-0.0826599970459938,-0.000910000002477318,0.003220000071451068,22.136999130249023
6869.106029512701,1552744.0,-0.08760000020265579,-0.001449999981559813,-0.006180000025779009,22.152999877929688
6869.107029284623,1552745.0,-0.09047000110149384,0.0016299999551847577,0.0007300000288523734,21.660999298095703
6869.108029056546,1552746.0,-0.09155000001192093,-0.004129999782890081,0.0027199999894946814,22.1299991607666
6869.109028828469,1552747.0,-0.08809000253677368,-0.006810000166296959,0.003590000094845891,22.141000747680664
6869.110028600392,1552748.0,-0.07959999889135361,0.00031999999191612005,-0.0036299999337643385,22.138999938964844
6869.111028372315,1552749.0,-0.07142999768257141,0.0002699999895412475,-0.003809999907389283,22.31399917602539
6869.112028144237,1552750.0,-0.06577000021934509,0.0011399999493733048,0.00018000000272877514,22.159000396728516
6869.11302791616,1552751.0,-0.061810001730918884,-0.006899999920278788,0.003220000071451068,22.222999572753906
6869.114027688082,1552752.0,-0.0573199987411499,0.0027199999894946814,0.0,22.240999221801758
6869.115027460006,1552753.0,-0.04991000145673752,-0.006219999864697456,0.00018000000272877514,22.260000228881836
6869.1160272319285,1552754.0,-0.04187000170350075,-0.003449999960139394,0.0019099999917671084,22.014999389648438
6869.117027003851,1552755.0,-0.030910000205039978,-0.004089999943971634,-0.003909999970346689,22.35700035095215
6869.118026775774,1552756.0,-0.01779000088572502,-0.0029100000392645597,0.0029100000392645597,22.200000762939453
6869.119026547696,1552757.0,-0.008449999615550041,0.001500000013038516,0.0010900000343099236,22.18899917602539
6869.120026319619,1552758.0,-0.0031900000758469105,-0.005489999894052744,-9.000000136438757e-05,22.229000091552734
6869.121026091542,1552759.0,0.004490000195801258,-0.001820000004954636,0.004540000110864639,22.25
6869.122025863465,1552760.0,0.015449999831616879,0.0016299999551847577,-0.0027199999894946814,21.95400047302246
6869.123025635387,1552761.0,0.027000000700354576,0.0002699999895412475,-0.004449999891221523,22.409000396728516
6869.12402540731,1552762.0,0.03759999945759773,0.00418000016361475,0.0012700000079348683,22.260000228881836
6869.1250251792335,1552763.0,0.04402000084519386,-0.0059899999760091305,0.0030900000128895044,22.260000228881836
6869.126024951156,1552764.0,0.04977000132203102,0.0010000000474974513,0.0016299999551847577,22.249000549316406
6869.127024723079,1552765.0,0.05561000108718872,-0.0020000000949949026,0.004540000110864639,22.246999740600586
6869.128024495001,1552766.0,0.05480999872088432,-0.0063599999994039536,0.0024999999441206455,22.35700035095215
6869.129024266924,1552767.0,0.05355000123381615,-0.0036299999337643385,-0.0030900000128895044,22.320999145507812
6869.130024038846,1552768.0,0.054090000689029694,-0.006180000025779009,0.0017300000181421638,22.266000747680664
6869.13102381077,1552769.0,0.056689999997615814,-0.0021800000686198473,0.003220000071451068,22.2810001373291
6869.132023582692,1552770.0,0.06074000149965286,-0.005630000028759241,0.0009500000160187483,22.31599998474121
6869.133023354615,1552771.0,0.06719999760389328,0.0027199999894946814,0.000910000002477318,21.871999740600586
6869.134023126538,1552772.0,0.07349000126123428,0.0027699999045580626,-9.000000136438757e-05,22.454999923706055
6869.13502289846,1552773.0,0.07879000157117844,-0.0008200000156648457,-0.005270000081509352,22.32699966430664
6869.136022670384,1552774.0,0.07964999973773956,-0.0021800000686198473,0.0006399999838322401,22.385000228881836
6869.137022442306,1552775.0,0.0773100033402443,-0.003719999920576811,0.0016799999866634607,22.363000869750977
6869.138022214229,1552776.0,0.07349000126123428,0.005630000028759241,0.0020000000949949026,22.4060001373291
6869.139021986151,1552777.0,0.06989999860525131,-0.000539999979082495,-0.003000000026077032,21.917999267578125
6869.140021758074,1552778.0,0.06559000164270401,0.0022299999836832285,0.002360000042244792,22.371000289916992
6869.141021529997,1552779.0,0.06095999851822853,-0.00041000000783242285,-0.005770000163465738,22.413999557495117
6869.14202130192,1552780.0,0.05552000179886818,0.0016299999551847577,0.003590000094845891,22.45800018310547
6869.143021073843,1552781.0,0.05076000094413757,-0.001449999981559813,0.0013599999947473407,22.4060001373291
6869.144020845765,1552782.0,0.04761999845504761,0.00018000000272877514,0.002950000111013651,22.36199951171875
6869.145020617688,1552783.0,0.043310001492500305,0.0003600000054575503,-0.003449999960139394,22.378999710083008
6869.14602038961,1552784.0,0.040070001035928726,0.003269999986514449,0.0031799999997019768,22.110000610351562
6869.147020161534,1552785.0,0.03660999983549118,0.0020000000949949026,-9.000000136438757e-05,22.527999877929688
6869.148019933456,1552786.0,0.03269999846816063,0.0029100000392645597,0.001180000021122396,22.118999481201172
6869.149019705379,1552787.0,0.03009999915957451,0.0013599999947473407,0.0007300000288523734,22.020999908447266
6869.150019477302,1552788.0,0.02857000008225441,-0.005630000028759241,-0.0031799999997019768,22.399999618530273
6869.151019249224,1552789.0,0.02807999961078167,-0.005539999809116125,0.0019099999917671084,22.54599952697754
6869.152019021147,1552790.0,0.02443999983370304,-0.004900000058114529,-0.00535999983549118,22.42099952697754
6869.15301879307,1552791.0,0.020889999344944954,-0.0007300000288523734,0.0016299999551847577,22.360000610351562
6869.154018564993,1552792.0,0.019770000129938126,-0.005810000002384186,-0.00014000000373926014,21.941999435424805
6869.155018336915,1552793.0,0.01671000011265278,0.0018599999602884054,-0.00418000016361475,22.42099952697754
6869.156018108838,1552794.0,0.013299999758601189,-0.004089999943971634,-0.005859999917447567,22.417999267578125
6869.1570178807615,1552795.0,0.012760000303387642,-0.002630000002682209,0.0024500000290572643,22.570999145507812
6869.158017652684,1552796.0,0.01221999991685152,-0.0022700000554323196,-0.003449999960139394,22.454999923706055
6869.159017424607,1552797.0,0.011189999990165234,-0.0063599999994039536,0.004629999864846468,22.437000274658203
6869.160017196529,1552798.0,0.010780000127851963,0.0006399999838322401,-0.001449999981559813,22.393999099731445
6869.161016968452,1552799.0,0.008980000391602516,-0.0059899999760091305,-0.0015399999683722854,22.363000869750977
6869.162016740374,1552800.0,0.008799999952316284,0.000539999979082495,-0.0029100000392645597,22.183000564575195
6869.163016512298,1552801.0,0.009879999794065952,0.004629999864846468,0.001449999981559813,22.62299919128418
6869.16401628422,1552802.0,0.011140000075101852,0.003269999986514449,-0.005090000107884407,22.469999313354492
6869.165016056143,1552803.0,0.011590000241994858,0.003539999946951866,-0.0007699999841861427,22.393999099731445
6869.166015828066,1552804.0,0.012079999782145023,-0.0027199999894946814,-0.004449999891221523,22.125
6869.167015599988,1552805.0,0.013120000250637531,0.0027199999894946814,-0.005859999917447567,22.479000091552734
6869.168015371912,1552806.0,0.012760000303387642,-0.0007699999841861427,-0.002950000111013651,22.461000442504883
6869.169015143834,1552807.0,0.010329999960958958,0.00018000000272877514,-0.0029100000392645597,22.552000045776367
6869.170014915757,1552808.0,0.00773000018671155,0.002360000042244792,0.0013599999947473407,22.555999755859375
6869.171014687679,1552809.0,0.005439999978989363,0.0010900000343099236,-0.003809999907389283,22.240999221801758
6869.172014459602,1552810.0,0.004490000195801258,-0.006490000057965517,-0.0034099998883903027,22.503999710083008
6869.173014231525,1552811.0,0.003949999809265137,0.00418000016361475,-0.002859999891370535,22.485000610351562
6869.174014003448,1552812.0,0.0023399998899549246,-0.004629999864846468,-0.002630000002682209,22.565000534057617
6869.175013775371,1552813.0,0.0003600000054575503,-0.004360000137239695,-0.006579999811947346,22.565000534057617
6869.176013547293,1552814.0,-0.0016199999954551458,-0.0013599999947473407,0.0024500000290572643,22.524999618530273
6869.177013319216,1552815.0,-0.00018000000272877514,-0.001769999973475933,-0.004540000110864639,22.527999877929688
6869.178013091139,1552816.0,0.0047599999234080315,0.0006399999838322401,-0.004900000058114529,22.540000915527344
6869.179012863062,1552817.0,0.008980000391602516,-0.00535999983549118,0.0024500000290572643,22.57699966430664
6869.180012634984,1552818.0,0.012040000408887863,-0.00044999999227002263,0.002589999930933118,22.631999969482422
6869.181012406907,1552819.0,0.013570000417530537,-0.005090000107884407,-0.004449999891221523,22.617000579833984
6869.18201217883,1552820.0,0.014109999872744083,-0.005630000028759241,-0.0016299999551847577,22.527999877929688
6869.183011950752,1552821.0,0.015860000625252724,-0.003539999946951866,0.0006799999973736703,22.665000915527344
6869.184011722676,1552822.0,0.014550000429153442,-0.001820000004954636,-0.002409999957308173,22.676000595092773
6869.185011494598,1552823.0,0.013930000364780426,-0.0006799999973736703,0.0016299999551847577,22.698999404907227
6869.186011266521,1552824.0,0.013120000250637531,0.0016299999551847577,-0.000910000002477318,22.42099952697754
6869.187011038443,1552825.0,0.010830000042915344,0.0029100000392645597,0.000910000002477318,22.687000274658203
6869.188010810366,1552826.0,0.007009999826550484,0.0020000000949949026,-0.004900000058114529,22.61400032043457
6869.1890105822895,1552827.0,0.0034099998883903027,0.004000000189989805,-0.0021800000686198473,22.67799949645996
6869.190010354212,1552828.0,0.0006699999794363976,0.0006399999838322401,-0.003909999970346689,22.555999755859375
6869.191010126135,1552829.0,0.0002699999895412475,-0.005179999861866236,-0.003719999920576811,22.344999313354492
6869.192009898057,1552830.0,0.00044999999227002263,-0.007360000163316727,-0.0024500000290572643,22.652999877929688
6869.19300966998,1552831.0,-0.00022000000171829015,-0.004089999943971634,0.0029100000392645597,22.152999877929688
6869.194009441902,1552832.0,0.00107999995816499,-0.0024500000290572643,0.0012700000079348683,22.690000534057617
6869.195009213826,1552833.0,0.003640000009909272,-0.003909999970346689,0.003809999907389283,22.329999923706055
6869.196008985748,1552834.0,0.0064199999906122684,0.0020000000949949026,0.00018000000272877514,22.61400032043457
6869.197008757671,1552835.0,0.008270000107586384,-0.0020000000949949026,-0.0021299999207258224,22.61400032043457
6869.198008529594,1552836.0,0.006649999879300594,-0.007809999864548445,-0.003000000026077032,22.628999710083008
6869.199008301516,1552837.0,0.003819999983534217,0.0002699999895412475,0.003449999960139394,22.698999404907227
6869.20000807344,1552838.0,0.0030499999411404133,-0.002360000042244792,-0.004540000110864639,22.625999450683594
6869.201007845362,1552839.0,0.004939999897032976,-0.000910000002477318,-0.002630000002682209,22.61400032043457
6869.202007617285,1552840.0,0.00674000009894371,-0.008170000277459621,-0.000539999979082495,22.604000091552734
6869.203007389207,1552841.0,0.007369999773800373,0.0017300000181421638,0.000910000002477318,22.61400032043457
6869.20400716113,1552842.0,0.008089999668300152,0.000910000002477318,-0.004809999838471413,22.49799919128418
6869.205006933053,1552843.0,0.008089999668300152,-0.005179999861866236,0.0012700000079348683,22.760000228881836
6869.206006704976,1552844.0,0.00646999990567565,-0.0063599999994039536,-0.005179999861866236,22.641000747680664
6869.207006476899,1552845.0,0.007189999800175428,0.002630000002682209,-0.002630000002682209,22.628999710083008
6869.208006248821,1552846.0,0.009429999627172947,0.004629999864846468,-0.0006399999838322401,22.63800048828125
6869.209006020744,1552847.0,0.009879999794065952,-0.000539999979082495,0.0006399999838322401,22.624000549316406
6869.210005792667,1552848.0,0.010689999908208847,-0.0002699999895412475,-0.0030900000128895044,22.56800079345703
6869.21100556459,1552849.0,0.012400000356137753,0.005630000028759241,0.001449999981559813,22.77199935913086
6869.212005336512,1552850.0,0.011049999855458736,0.00018000000272877514,-0.003000000026077032,22.320999145507812
6869.213005108435,1552851.0,0.010289999656379223,-0.004540000110864639,0.0028200000524520874,22.211000442504883
6869.214004880358,1552852.0,0.010599999688565731,0.0029100000392645597,0.001180000021122396,22.66200065612793
6869.21500465228,1552853.0,0.010329999960958958,-0.004720000084489584,-0.00041000000783242285,22.667999267578125
6869.216004424204,1552854.0,0.007459999993443489,-0.003449999960139394,-0.006490000057965517,22.437000274658203
6869.217004196126,1552855.0,0.004490000195801258,0.000910000002477318,0.00031999999191612005,22.812000274658203
6869.218003968049,1552856.0,0.0031399999279528856,-0.0003600000054575503,0.003809999907389283,22.674999237060547
6869.219003739971,1552857.0,0.0030499999411404133,0.0003600000054575503,-0.0014100000262260437,22.680999755859375
6869.220003511894,1552858.0,0.001979999942705035,-0.0030900000128895044,0.0007300000288523734,22.687000274658203
6869.2210032838175,1552859.0,0.000539999979082495,-0.003719999920576811,0.002409999957308173,22.698999404907227
6869.22200305574,1552860.0,0.0012600000482052565,-0.004720000084489584,0.004900000058114529,22.229000091552734
6869.223002827663,1552861.0,0.0031900000758469105,0.0017300000181421638,-0.00418000016361475,22.77199935913086
6869.224002599585,1552862.0,0.005210000090301037,-0.003719999920576811,0.0033599999733269215,22.277999877929688
6869.225002371508,1552863.0,0.00674000009894371,0.004310000222176313,0.0025400000158697367,22.29599952697754
6869.22600214343,1552864.0,0.006690000183880329,-0.004449999891221523,0.004310000222176313,22.235000610351562
6869.227001915354,1552865.0,0.0070500001311302185,-0.004900000058114529,-0.0063599999994039536,22.774999618530273
6869.228001687276,1552866.0,0.007590000052005053,-0.005590000189840794,0.000910000002477318,22.649999618530273
6869.229001459199,1552867.0,0.008089999668300152,-0.0030900000128895044,-0.0016299999551847577,22.711000442504883
6869.230001231122,1552868.0,0.0083600003272295,-0.004629999864846468,0.0002699999895412475,22.301000595092773
6869.231001003044,1552869.0,0.008630000054836273,0.0003600000054575503,0.003449999960139394,22.716999053955078
6869.232000774968,1552870.0,0.01051000040024519,-0.006089999806135893,-0.004310000222176313,22.70199966430664
6869.23300054689,1552871.0,0.01131999958306551,0.000910000002477318,0.00031999999191612005,22.822999954223633
6869.234000318813,1552872.0,0.01257999986410141,-0.005630000028759241,-0.005270000081509352,22.6560001373291
6869.235000090735,1552873.0,0.013930000364780426,-0.006719999946653843,0.002859999891370535,22.711000442504883
6869.235999862658,1552874.0,0.014999999664723873,0.0027199999894946814,0.000910000002477318,22.277999877929688
6869.236999634581,1552875.0,0.01621999964118004,-0.004900000058114529,0.00418000016361475,22.7189998626709
6869.237999406504,1552876.0,0.01679999940097332,0.0036800000816583633,-0.0012700000079348683,22.695999145507812
6869.238999178427,1552877.0,0.01779000088572502,0.000910000002477318,0.000910000002477318,22.80299949645996
6869.239998950349,1552878.0,0.015990000218153,0.00418000016361475,-0.005590000189840794,22.67799949645996
6869.240998722272,1552879.0,0.014689999632537365,0.0029100000392645597,0.00018000000272877514,22.481000900268555
6869.241998494195,1552880.0,0.013930000364780426,-0.0030900000128895044,-0.0020000000949949026,22.711000442504883
6869.242998266118,1552881.0,0.012529999949038029,0.0029100000392645597,-0.0029100000392645597,22.711000442504883
6869.24399803804,1552882.0,0.012260000221431255,-0.0002699999895412475,-0.005179999861866236,22.68199920654297
6869.244997809963,1552883.0,0.01217000000178814,-0.0012700000079348683,0.0031799999997019768,22.680999755859375
6869.245997581886,1552884.0,0.0129399998113513,0.0012700000079348683,0.0006399999838322401,22.799999237060547
6869.246997353808,1552885.0,0.01131999958306551,0.003909999970346689,-0.004449999891221523,22.704999923706055
6869.247997125732,1552886.0,0.009340000338852406,-0.00044999999227002263,-0.005270000081509352,22.698999404907227
6869.248996897654,1552887.0,0.007819999940693378,0.0027199999894946814,-0.004809999838471413,22.687000274658203
6869.249996669577,1552888.0,0.006870000157505274,0.0010900000343099236,-0.001449999981559813,22.704999923706055
6869.250996441499,1552889.0,0.0037700000684708357,-0.000539999979082495,-0.0036299999337643385,22.423999786376953
6869.251996213422,1552890.0,0.0017099999822676182,0.003269999986514449,0.0031799999997019768,22.839000701904297
6869.2529959853455,1552891.0,0.00215999991632998,0.002360000042244792,-0.004900000058114529,22.698999404907227
6869.253995757268,1552892.0,0.004670000169426203,-0.0044999998062849045,0.001449999981559813,22.722999572753906
6869.254995529191,1552893.0,0.005929999984800816,0.0019099999917671084,0.0013599999947473407,22.641000747680664
6869.255995301113,1552894.0,0.008129999972879887,-0.00494999997317791,-0.000539999979082495,22.690000534057617
6869.256995073036,1552895.0,0.010599999688565731,0.0027699999045580626,-0.003539999946951866,22.534000396728516
6869.257994844958,1552896.0,0.011680000461637974,0.0012700000079348683,-0.006630000192672014,22.849000930786133
6869.258994616882,1552897.0,0.012310000136494637,0.000910000002477318,0.000539999979082495,22.35700035095215
6869.259994388804,1552898.0,0.01221999991685152,-0.008170000277459621,0.00044999999227002263,22.260000228881836
6869.260994160727,1552899.0,0.01181000005453825,0.004900000058114529,0.000539999979082495,22.714000701904297
6869.26199393265,1552900.0,0.008980000391602516,-0.003000000026077032,-0.004449999891221523,22.739999771118164
6869.262993704573,1552901.0,0.007189999800175428,-0.0012700000079348683,0.0007300000288523734,22.22599983215332
6869.263993476496,1552902.0,0.0064199999906122684,0.005270000081509352,0.00018000000272877514,22.766000747680664
6869.264993248418,1552903.0,0.00674000009894371,0.003449999960139394,-0.0020000000949949026,22.707000732421875
6869.265993020341,1552904.0,0.007860000245273113,-0.004809999838471413,-0.005859999917447567,22.701000213623047
6869.266992792263,1552905.0,0.0071000000461936,-0.000539999979082495,-0.002589999930933118,22.679000854492188
6869.267992564186,1552906.0,0.004939999897032976,-0.005090000107884407,-0.004809999838471413,22.829999923706055
6869.2689923361095,1552907.0,0.0047599999234080315,-0.004040000028908253,-0.0012700000079348683,22.67799949645996
6869.269992108032,1552908.0,0.007009999826550484,-0.00044999999227002263,0.0008200000156648457,22.780000686645508
6869.270991879955,1552909.0,0.0088900001719594,-0.004000000189989805,0.002090000081807375,22.43000030517578
6869.271991651877,1552910.0,0.011500000022351742,0.002090000081807375,0.002360000042244792,22.716999053955078
6869.2729914238,1552911.0,0.011680000461637974,-0.005489999894052744,-0.0018599999602884054,22.68199920654297
6869.273991195723,1552912.0,0.011409999802708626,-0.005040000192821026,-0.004410000052303076,22.839000701904297
6869.274990967646,1552913.0,0.010739999823272228,-0.004000000189989805,-0.0076299998909235,22.66200065612793
6869.275990739568,1552914.0,0.009340000338852406,-0.002319999970495701,0.000910000002477318,22.540000915527344
6869.276990511491,1552915.0,0.00925000011920929,-0.004900000058114529,-0.003000000026077032,22.690000534057617
6869.277990283414,1552916.0,0.009789999574422836,0.0027699999045580626,-0.00418000016361475,22.667999267578125
6869.278990055336,1552917.0,0.008799999952316284,-0.0033599999733269215,-0.0027199999894946814,22.729000091552734
6869.27998982726,1552918.0,0.00674000009894371,-0.004269999917596579,-0.0012700000079348683,22.652999877929688
6869.280989599182,1552919.0,0.006649999879300594,0.004629999864846468,0.003269999986514449,22.67799949645996
6869.281989371105,1552920.0,0.007230000104755163,0.003220000071451068,0.0011399999493733048,22.820999145507812
6869.282989143027,1552921.0,0.00547999981790781,-0.006949999835342169,0.003860000055283308,22.760000228881836
6869.28398891495,1552922.0,0.003860000055283308,0.004629999864846468,0.002090000081807375,22.628999710083008
6869.2849886868735,1552923.0,0.004040000028908253,-0.0030900000128895044,-0.002630000002682209,22.466999053955078
6869.285988458796,1552924.0,0.004579999949783087,-0.004809999838471413,-0.010130000300705433,22.80299949645996
6869.286988230719,1552925.0,0.004129999782890081,0.003909999970346689,-0.009990000165998936,22.687000274658203
6869.287988002641,1552926.0,0.0070500001311302185,0.0012700000079348683,0.0002699999895412475,22.183000564575195
6869.288987774564,1552927.0,0.00925000011920929,-0.0016299999551847577,0.003539999946951866,22.631999969482422
6869.289987546486,1552928.0,0.010239999741315842,0.001500000013038516,0.00031999999191612005,22.617000579833984
6869.29098731841,1552929.0,0.010379999876022339,-0.0036800000816583633,0.000910000002477318,22.631999969482422
6869.291987090332,1552930.0,0.011409999802708626,-0.0036299999337643385,-0.0029100000392645597,22.56800079345703
6869.292986862255,1552931.0,0.013120000250637531,-0.004089999943971634,-0.0003600000054575503,22.797000885009766
6869.293986634178,1552932.0,0.013209999538958073,-0.006719999946653843,0.0007699999841861427,22.173999786376953
6869.294986406101,1552933.0,0.012400000356137753,0.0019099999917671084,0.000910000002477318,22.631999969482422
6869.295986178024,1552934.0,0.009789999574422836,-0.005770000163465738,0.004900000058114529,22.625999450683594
6869.296985949946,1552935.0,0.006289999932050705,-0.0012700000079348683,0.002589999930933118,22.74799919128418
6869.297985721869,1552936.0,0.0030499999411404133,-0.005590000189840794,0.0033199999015778303,22.674999237060547
6869.298985493791,1552937.0,-0.0017999999690800905,-0.003449999960139394,-0.005450000055134296,22.742000579833984
6869.299985265714,1552938.0,-0.004129999782890081,-0.0019099999917671084,0.004809999838471413,22.61400032043457
6869.3009850376375,1552939.0,-0.0034099998883903027,0.0011399999493733048,0.004900000058114529,22.594999313354492
6869.30198480956,1552940.0,-0.0017999999690800905,-0.007720000110566616,0.002090000081807375,22.628999710083008
6869.302984581483,1552941.0,-0.0028800000436604023,-0.00418000016361475,-0.003809999907389283,22.76300048828125
6869.303984353405,1552942.0,-0.0048500001430511475,-0.005270000081509352,-0.0036800000816583633,22.658000946044922
6869.304984125328,1552943.0,-0.0048500001430511475,-0.0029100000392645597,0.0025400000158697367,22.176000595092773
6869.305983897251,1552944.0,-0.0034099998883903027,-0.005859999917447567,-0.002589999930933118,22.63800048828125
6869.306983669174,1552945.0,-0.0017999999690800905,4.999999873689376e-05,-0.0051299999468028545,22.66200065612793
6869.307983441096,1552946.0,0.0006300000241026282,-0.002360000042244792,-0.0033199999015778303,22.60700035095215
6869.308983213019,1552947.0,0.0016199999954551458,0.0051299999468028545,-0.0033599999733269215,22.739999771118164
6869.309982984942,1552948.0,0.0016199999954551458,0.005270000081509352,-0.0019099999917671084,22.62299919128418
6869.310982756864,1552949.0,0.00279000005684793,-0.0006399999838322401,0.000910000002477318,22.57699966430664
6869.311982528788,1552950.0,0.004129999782890081,-0.0008200000156648457,0.0015399999683722854,22.58799934387207
6869.31298230071,1552951.0,0.005210000090301037,-0.006089999806135893,0.0006799999973736703,22.57699966430664
6869.313982072633,1552952.0,0.005210000090301037,0.0031799999997019768,-9.000000136438757e-05,22.570999145507812
6869.314981844555,1552953.0,0.005710000172257423,-0.0037700000684708357,-0.005770000163465738,22.74799919128418
6869.315981616479,1552954.0,0.003229999914765358,0.0016299999551847577,-0.0010400000028312206,22.591999053955078
6869.3169813884015,1552955.0,-0.0009899999713525176,0.000910000002477318,-0.003449999960139394,22.562000274658203
6869.317981160324,1552956.0,0.0013899999903514981,-0.004360000137239695,0.0003600000054575503,22.374000549316406
6869.318980932247,1552957.0,0.007189999800175428,0.003860000055283308,0.00018000000272877514,22.173999786376953
6869.319980704169,1552958.0,0.01095999963581562,-0.006539999973028898,0.006719999946653843,22.57699966430664
6869.320980476092,1552959.0,0.012040000408887863,-0.004310000222176313,-0.005489999894052744,22.714000701904297
6869.321980248015,1552960.0,0.011769999749958515,-0.0022299999836832285,-0.000910000002477318,22.5939998626709
6869.322980019938,1552961.0,0.011500000022351742,-0.0059899999760091305,0.000910000002477318,22.260000228881836
6869.32397979186,1552962.0,0.011500000022351742,0.004000000189989805,0.002360000042244792,22.159000396728516
6869.324979563783,1552963.0,0.011189999990165234,-0.004860000219196081,0.00418000016361475,22.143999099731445
6869.325979335706,1552964.0,0.009970000013709068,0.000910000002477318,0.0024500000290572643,22.076000213623047
6869.326979107629,1552965.0,0.010870000347495079,0.000539999979082495,-0.005270000081509352,22.704999923706055
6869.327978879552,1552966.0,0.01095999963581562,0.0016299999551847577,0.0016299999551847577,22.53700065612793
6869.328978651474,1552967.0,0.00925000011920929,0.0020000000949949026,0.002409999957308173,22.409000396728516
6869.329978423397,1552968.0,0.010329999960958958,-0.006719999946653843,0.0002699999895412475,22.320999145507812
6869.330978195319,1552969.0,0.012129999697208405,0.0011399999493733048,-0.00044999999227002263,22.131000518798828
6869.331977967242,1552970.0,0.011719999834895134,0.0010000000474974513,0.0006799999973736703,22.115999221801758
6869.3329777391655,1552971.0,0.011140000075101852,-0.00798999983817339,-0.003000000026077032,22.665000915527344
6869.333977511088,1552972.0,0.008980000391602516,-0.00571999978274107,0.0022299999836832285,22.5310001373291
6869.334977283011,1552973.0,0.007910000160336494,-0.005400000140070915,-0.0015399999683722854,22.570999145507812
6869.335977054933,1552974.0,0.008310000412166119,0.004269999917596579,-0.0027199999894946814,22.49799919128418
6869.336976826856,1552975.0,0.008089999668300152,-0.004809999838471413,0.000539999979082495,22.43000030517578
6869.337976598779,1552976.0,0.008539999835193157,0.0031799999997019768,0.0010900000343099236,22.027999877929688
6869.338976370702,1552977.0,0.010239999741315842,0.0028200000524520874,-0.006539999973028898,22.597000122070312
6869.339976142624,1552978.0,0.011009999550879002,-0.0027199999894946814,-0.0034099998883903027,22.527999877929688
6869.340975914547,1552979.0,0.011859999969601631,-0.0007699999841861427,0.0027199999894946814,22.490999221801758
6869.34197568647,1552980.0,0.012760000303387642,0.0036800000816583633,0.0007699999841861427,22.472999572753906
6869.342975458392,1552981.0,0.012400000356137753,0.0002699999895412475,0.0027199999894946814,22.423999786376953
6869.343975230316,1552982.0,0.01131999958306551,0.003809999907389283,-0.003809999907389283,22.461000442504883
6869.344975002238,1552983.0,0.008980000391602516,0.0013599999947473407,0.0016299999551847577,22.527999877929688
6869.345974774161,1552984.0,0.007369999773800373,4.999999873689376e-05,-0.004410000052303076,22.516000747680664
6869.346974546083,1552985.0,0.005929999984800816,0.0017300000181421638,0.003860000055283308,22.540000915527344
6869.347974318007,1552986.0,0.0071000000461936,-0.004720000084489584,0.000910000002477318,22.48200035095215
6869.3489740899295,1552987.0,0.013389999978244305,-0.0016299999551847577,0.0012700000079348683,22.466999053955078
6869.349973861852,1552988.0,0.015180000104010105,-0.0027199999894946814,-0.004449999891221523,22.423999786376953
6869.350973633775,1552989.0,0.014999999664723873,0.0029100000392645597,0.0059899999760091305,22.44300079345703
6869.351973405697,1552990.0,0.015270000323653221,0.0028200000524520874,-0.004540000110864639,22.552000045776367
6869.35297317762,1552991.0,0.0142000000923872,-0.004809999838471413,0.000910000002477318,22.402999877929688
6869.353972949543,1552992.0,0.011719999834895134,0.004449999891221523,-0.00044999999227002263,22.378999710083008
6869.354972721466,1552993.0,0.009340000338852406,-0.0052200001664459705,-0.00018000000272877514,22.323999404907227
6869.355972493388,1552994.0,0.00773000018671155,-0.006219999864697456,-0.0030900000128895044,22.41200065612793
6869.356972265311,1552995.0,0.006289999932050705,-0.005630000028759241,-0.0003600000054575503,22.393999099731445
6869.357972037234,1552996.0,0.00646999990567565,-0.003590000094845891,-0.005539999809116125,22.479000091552734
6869.358971809157,1552997.0,0.008539999835193157,0.0019099999917671084,-0.00571999978274107,22.552000045776367
6869.35997158108,1552998.0,0.010239999741315842,-0.006949999835342169,-0.005270000081509352,22.54599952697754
6869.360971353002,1552999.0,0.012400000356137753,0.0011399999493733048,-0.0027199999894946814,22.52199935913086
6869.361971124925,1553000.0,0.013299999758601189,-0.0020000000949949026,0.0012700000079348683,22.368999481201172
6869.362970896847,1553001.0,0.012400000356137753,0.002360000042244792,-0.005630000028759241,22.510000228881836
6869.36397066877,1553002.0,0.01095999963581562,0.0022700000554323196,0.003809999907389283,22.368999481201172
6869.3649704406935,1553003.0,0.010420000180602074,-0.0030900000128895044,-0.0020000000949949026,22.368999481201172
6869.365970212616,1553004.0,0.011859999969601631,0.0021800000686198473,-9.000000136438757e-05,22.35300064086914
6869.366969984539,1553005.0,0.0088900001719594,-0.005630000028759241,-0.006899999920278788,22.344999313354492
6869.367969756461,1553006.0,0.0064199999906122684,-0.006719999946653843,0.0,22.26300048828125
6869.368969528384,1553007.0,0.00646999990567565,-0.003220000071451068,0.0015399999683722854,22.48200035095215
6869.369969300307,1553008.0,0.006649999879300594,-0.005450000055134296,-0.003220000071451068,22.33300018310547
6869.37096907223,1553009.0,0.0070500001311302185,0.003269999986514449,-0.0028200000524520874,22.33300018310547
6869.371968844152,1553010.0,0.007189999800175428,-0.006130000110715628,-0.002360000042244792,22.323999404907227
6869.372968616075,1553011.0,0.009159999899566174,0.0017300000181421638,-0.003269999986514449,22.320999145507812
6869.373968387998,1553012.0,0.01131999958306551,0.002090000081807375,0.004089999943971634,22.10099983215332
6869.37496815992,1553013.0,0.013299999758601189,0.003449999960139394,-0.0016799999866634607,22.461000442504883
6869.375967931844,1553014.0,0.015809999778866768,0.0033599999733269215,-0.0007300000288523734,22.29599952697754
6869.376967703766,1553015.0,0.017430000007152557,0.0013599999947473407,0.0007699999841861427,22.29599952697754
6869.377967475689,1553016.0,0.01923000067472458,-4.999999873689376e-05,-0.003809999907389283,22.308000564575195
6869.378967247611,1553017.0,0.020169999450445175,-0.005810000002384186,-0.007720000110566616,22.385000228881836
6869.379967019535,1553018.0,0.019589999690651894,-0.006539999973028898,-0.006539999973028898,22.249000549316406
6869.3809667914575,1553019.0,0.017920000478625298,-0.00535999983549118,-0.0083600003272295,22.344999313354492
6869.38196656338,1553020.0,0.017160000279545784,-0.002319999970495701,-0.003719999920576811,22.26300048828125
6869.382966335303,1553021.0,0.016440000385046005,0.010080000385642052,-0.00018000000272877514,22.260000228881836
6869.383966107225,1553022.0,0.015359999611973763,-0.0072200000286102295,-0.001180000021122396,22.308000564575195
6869.384965879148,1553023.0,0.015270000323653221,0.0030900000128895044,-0.0033599999733269215,22.385000228881836
6869.385965651071,1553024.0,0.01730000041425228,0.003269999986514449,-0.0007699999841861427,22.222999572753906
6869.386965422994,1553025.0,0.0185100007802248,-0.003449999960139394,0.002090000081807375,22.16200065612793
6869.387965194916,1553026.0,0.017969999462366104,0.0012700000079348683,-0.004000000189989805,22.211000442504883
6869.388964966839,1553027.0,0.016349999234080315,-0.00418000016361475,-0.006949999835342169,22.20599937438965
6869.389964738762,1553028.0,0.015540000051259995,0.005309999920427799,-0.0022700000554323196,22.20199966430664
6869.390964510685,1553029.0,0.01860000006854534,-0.0012700000079348683,0.0002699999895412475,22.320999145507812
6869.391964282608,1553030.0,0.022690000012516975,9.000000136438757e-05,0.0006399999838322401,22.197999954223633
6869.39296405453,1553031.0,0.025919999927282333,0.00418000016361475,0.003590000094845891,21.895999908447266
6869.393963826453,1553032.0,0.027489999309182167,0.0007300000288523734,-0.004679999779909849,22.165000915527344
6869.394963598375,1553033.0,0.02507000043988228,0.0007300000288523734,-0.0019499999471008778,22.166000366210938
6869.395963370298,1553034.0,0.022099999710917473,-0.005770000163465738,-0.004449999891221523,22.16200065612793
6869.3969631422215,1553035.0,0.019859999418258667,-0.006990000139921904,-0.0016799999866634607,22.29599952697754
6869.397962914144,1553036.0,0.01779000088572502,-0.00418000016361475,-0.004449999891221523,22.136999130249023
6869.398962686067,1553037.0,0.01779000088572502,-0.0033599999733269215,-0.0012700000079348683,21.89299964904785
6869.399962457989,1553038.0,0.018149999901652336,-0.004000000189989805,-0.006719999946653843,22.118999481201172
6869.400962229913,1553039.0,0.015990000218153,-0.0016299999551847577,-0.004449999891221523,22.121999740600586
6869.401962001835,1553040.0,0.013030000030994415,0.001820000004954636,-0.000539999979082495,22.136999130249023
6869.402961773758,1553041.0,0.009970000013709068,0.0024500000290572643,0.0025400000158697367,22.14699935913086
6869.40396154568,1553042.0,0.00773000018671155,-0.0013599999947473407,-0.007269999943673611,22.121000289916992
6869.404961317603,1553043.0,0.00610999995842576,-0.000539999979082495,-0.0022299999836832285,21.87299919128418
6869.405961089526,1553044.0,0.005210000090301037,0.000539999979082495,-0.005040000192821026,22.10700035095215
6869.406960861449,1553045.0,0.00547999981790781,-0.0016299999551847577,-0.0012700000079348683,22.10099983215332
6869.407960633372,1553046.0,0.0037700000684708357,-0.004000000189989805,-0.006490000057965517,22.086000442504883
6869.408960405294,1553047.0,0.0006300000241026282,-0.003809999907389283,0.0012700000079348683,22.204999923706055
6869.409960177217,1553048.0,-0.0016199999954551458,-0.005090000107884407,0.0016299999551847577,22.02899932861328
6869.410959949139,1553049.0,-0.003860000055283308,-0.002630000002682209,-0.0059899999760091305,22.076000213623047
6869.411959721063,1553050.0,-0.004220000002533197,0.001769999973475933,-0.004629999864846468,22.06399917602539
6869.4129594929855,1553051.0,-0.004129999782890081,-0.004540000110864639,-0.005309999920427799,22.09600067138672
6869.413959264908,1553052.0,-0.0027000000700354576,0.0030900000128895044,-0.005450000055134296,22.027999877929688
6869.414959036831,1553053.0,-0.00018000000272877514,0.003949999809265137,0.0027199999894946814,22.125
6869.415958808753,1553054.0,0.0014400000218302011,0.000539999979082495,0.00041000000783242285,21.969999313354492
6869.416958580676,1553055.0,0.0014400000218302011,-0.001180000021122396,-0.005040000192821026,22.052000045776367
6869.417958352599,1553056.0,0.0007200000109151006,-0.003719999920576811,-0.004000000189989805,21.996999740600586
6869.418958124522,1553057.0,-0.0003600000054575503,-9.000000136438757e-05,-0.006310000084340572,21.89299964904785
6869.419957896444,1553058.0,-0.0012100000167265534,-0.0020000000949949026,-0.005630000028759241,21.764999389648438
6869.420957668367,1553059.0,-0.0012100000167265534,-0.0008200000156648457,0.005630000028759241,22.08099937438965
6869.42195744029,1553060.0,-0.001120000029914081,0.00044999999227002263,0.0012700000079348683,21.917999267578125
6869.422957212213,1553061.0,-0.00018000000272877514,-0.001769999973475933,-0.0015399999683722854,22.09600067138672
6869.423956984136,1553062.0,3.9999998989515007e-05,0.003269999986514449,0.001230000052601099,22.06999969482422
6869.424956756058,1553063.0,0.0007600000244565308,-0.0020000000949949026,0.000539999979082495,22.06399917602539
6869.425956527981,1553064.0,0.00107999995816499,-0.0020000000949949026,-0.0033599999733269215,21.941999435424805
6869.426956299903,1553065.0,0.00022000000171829015,-0.004809999838471413,0.004900000058114529,21.941999435424805
6869.427956071826,1553066.0,-0.0008999999845400453,-0.005859999917447567,-0.0022299999836832285,21.410999298095703
6869.4289558437495,1553067.0,-0.0008999999845400453,-0.0051299999468028545,0.003809999907389283,21.97599983215332
6869.429955615672,1553068.0,-0.0007200000109151006,-0.0008200000156648457,0.004269999917596579,22.027999877929688
6869.430955387595,1553069.0,-0.0009899999713525176,-0.0006799999973736703,0.000539999979082495,21.979000091552734
6869.431955159517,1553070.0,-0.0007200000109151006,0.0030900000128895044,-0.00798999983817339,21.451000213623047
6869.432954931441,1553071.0,-0.0006699999794363976,0.004540000110864639,9.000000136438757e-05,21.947999954223633
6869.433954703363,1553072.0,0.0003600000054575503,0.00571999978274107,-0.0027199999894946814,21.868999481201172
6869.434954475286,1553073.0,-0.0012600000482052565,-0.0008200000156648457,0.0016299999551847577,21.93000030517578
6869.435954247208,1553074.0,-0.004040000028908253,-9.000000136438757e-05,-0.0006399999838322401,21.92099952697754
6869.436954019131,1553075.0,-0.004040000028908253,-0.002630000002682209,0.0016299999551847577,21.85700035095215
6869.437953791054,1553076.0,-0.004129999782890081,-0.005630000028759241,-0.006130000110715628,21.79599952697754
6869.438953562977,1553077.0,-0.004579999949783087,-0.003809999907389283,0.004310000222176313,21.538999557495117
6869.4399533349,1553078.0,-0.004579999949783087,-0.002090000081807375,0.0019099999917671084,21.89299964904785
6869.440953106822,1553079.0,-0.0037700000684708357,-0.004809999838471413,-0.00018000000272877514,21.660999298095703
6869.441952878745,1553080.0,-0.00107999995816499,0.0017300000181421638,0.0031799999997019768,21.61400032043457
6869.442952650667,1553081.0,0.0030499999411404133,-0.0029100000392645597,0.0010900000343099236,21.54400062561035
6869.443952422591,1553082.0,0.00418000016361475,-0.002090000081807375,-0.00267999991774559,21.868999481201172
6869.4449521945135,1553083.0,0.0027000000700354576,-0.003269999986514449,0.001449999981559813,21.709999084472656
6869.445951966436,1553084.0,0.0014400000218302011,-0.0030900000128895044,-0.0007300000288523734,21.849000930786133
6869.446951738359,1553085.0,0.0020699999295175076,0.004629999864846468,0.0018599999602884054,21.780000686645508
6869.447951510281,1553086.0,0.0016199999954551458,-0.0062699997797608376,0.0024500000290572643,21.770999908447266
6869.448951282204,1553087.0,0.0018899999558925629,-0.0018599999602884054,0.002859999891370535,21.761999130249023
6869.449951054127,1553088.0,0.0017999999690800905,0.0024500000290572643,-0.0051299999468028545,21.66900062561035
6869.45095082605,1553089.0,0.0034099998883903027,0.0006799999973736703,0.0014100000262260437,21.600000381469727
6869.451950597972,1553090.0,0.005210000090301037,0.0027199999894946814,-0.004900000058114529,21.783000946044922
6869.452950369895,1553091.0,0.007369999773800373,-0.005539999809116125,-0.005090000107884407,21.802000045776367
6869.453950141818,1553092.0,0.008449999615550041,0.0016299999551847577,-0.005489999894052744,21.783000946044922
6869.454949913741,1553093.0,0.008980000391602516,-0.0010900000343099236,-0.00418000016361475,21.76099967956543
6869.455949685664,1553094.0,0.01095999963581562,-0.005270000081509352,-0.0059899999760091305,21.604999542236328
6869.456949457586,1553095.0,0.011590000241994858,-0.001820000004954636,0.0012700000079348683,21.489999771118164
6869.457949229509,1553096.0,0.011769999749958515,-0.0008200000156648457,-0.004000000189989805,21.71299934387207
6869.458949001431,1553097.0,0.01257999986410141,-0.00044999999227002263,-0.001230000052601099,21.735000610351562
6869.459948773355,1553098.0,0.01131999958306551,-0.006990000139921904,-0.004089999943971634,21.71299934387207
6869.4609485452775,1553099.0,0.008449999615550041,9.000000136438757e-05,9.000000136438757e-05,21.613000869750977
6869.4619483172,1553100.0,0.007410000078380108,-0.0037700000684708357,-0.004360000137239695,21.68899917602539
6869.462948089123,1553101.0,0.006649999879300594,-0.005090000107884407,-0.004540000110864639,21.527000427246094
6869.463947861045,1553102.0,0.006020000204443932,-0.000539999979082495,0.003719999920576811,21.552000045776367
6869.464947632969,1553103.0,0.005570000037550926,0.004269999917596579,0.003809999907389283,21.496999740600586
6869.465947404891,1553104.0,0.0048500001430511475,-0.005630000028759241,0.0029100000392645597,21.270999908447266
6869.466947176814,1553105.0,0.0028800000436604023,-0.0002699999895412475,-9.000000136438757e-05,21.47800064086914
6869.467946948736,1553106.0,0.0020699999295175076,-0.009630000218749046,0.000910000002477318,21.43199920654297
6869.468946720659,1553107.0,-0.0008999999845400453,-0.005810000002384186,-0.004860000219196081,21.56999969482422
6869.469946492582,1553108.0,-0.0028800000436604023,-0.002360000042244792,0.0007300000288523734,21.31999969482422
6869.470946264505,1553109.0,-0.0016199999954551458,-0.0005000000237487257,0.0021299999207258224,21.155000686645508
6869.471946036428,1553110.0,0.0029200001154094934,-0.0008200000156648457,-0.0020000000949949026,21.038999557495117
6869.47294580835,1553111.0,0.008449999615550041,0.004269999917596579,0.003909999970346689,21.483999252319336
6869.473945580273,1553112.0,0.009879999794065952,0.0030900000128895044,0.0010000000474974513,21.384000778198242
6869.474945352195,1553113.0,0.007410000078380108,0.0019099999917671084,-0.0036299999337643385,21.36199951171875
6869.475945124119,1553114.0,0.005260000005364418,-0.00018000000272877514,0.0006799999973736703,21.389999389648438
6869.4769448960415,1553115.0,0.004040000028908253,-0.003719999920576811,0.0017300000181421638,21.41699981689453
6869.477944667964,1553116.0,0.0023399998899549246,0.004540000110864639,0.0024999999441206455,21.465999603271484
6869.478944439887,1553117.0,-9.000000136438757e-05,0.0033599999733269215,-0.005090000107884407,21.242000579833984
6869.479944211809,1553118.0,-0.004579999949783087,0.0010400000028312206,0.0031799999997019768,21.483999252319336
6869.480943983732,1553119.0,-0.006560000125318766,0.003809999907389283,-0.0013599999947473407,21.334999084472656
6869.481943755655,1553120.0,-0.007189999800175428,0.002360000042244792,-0.0014100000262260437,21.413000106811523
6869.482943527578,1553121.0,-0.005840000230818987,0.0007300000288523734,0.0025400000158697367,21.39299964904785
6869.4839432995,1553122.0,-0.0048500001430511475,0.0020000000949949026,0.005270000081509352,21.43600082397461
6869.484943071423,1553123.0,-0.0028299998957663774,-0.004769999999552965,-0.0012700000079348683,20.82200050354004
6869.4859428433465,1553124.0,0.000539999979082495,-0.002090000081807375,0.0012700000079348683,21.39299964904785
6869.486942615269,1553125.0,0.001979999942705035,-0.00041000000783242285,-0.0006799999973736703,21.259000778198242
6869.487942387192,1553126.0,0.0024300001095980406,-0.005179999861866236,0.003590000094845891,21.34600067138672
6869.488942159114,1553127.0,0.00018000000272877514,-0.0014100000262260437,0.003909999970346689,21.384000778198242
6869.489941931037,1553128.0,-0.0013500000350177288,-0.001180000021122396,0.004629999864846468,21.381000518798828
6869.490941702959,1553129.0,-0.0017099999822676182,-0.005090000107884407,-0.002630000002682209,21.209999084472656
6869.491941474883,1553130.0,-0.0008099999977275729,-0.004360000137239695,0.001820000004954636,21.332000732421875
6869.4929412468055,1553131.0,0.0008999999845400453,-0.004360000137239695,-0.009630000218749046,21.17300033569336
6869.493941018728,1553132.0,0.0013500000350177288,0.0017300000181421638,-0.0063599999994039536,21.17300033569336
6869.494940790651,1553133.0,0.0006699999794363976,-0.006899999920278788,0.000910000002477318,21.197999954223633
6869.495940562573,1553134.0,-0.0014400000218302011,0.002630000002682209,0.0016799999866634607,21.197999954223633
6869.496940334497,1553135.0,-0.001979999942705035,0.0028200000524520874,-0.004089999943971634,20.68899917602539
6869.497940106419,1553136.0,-0.0017999999690800905,0.005630000028759241,0.003000000026077032,21.2549991607666
6869.498939878342,1553137.0,-0.0003600000054575503,0.0027199999894946814,-0.0025400000158697367,21.100000381469727
6869.499939650264,1553138.0,0.001979999942705035,-0.0059899999760091305,-0.0018599999602884054,21.082000732421875
6869.500939422187,1553139.0,0.005840000230818987,-0.00018000000272877514,-0.003539999946951866,21.06599998474121
6869.50193919411,1553140.0,0.006200000178068876,-0.0044999998062849045,-0.001820000004954636,21.075000762939453
6869.502938966033,1553141.0,0.0047599999234080315,-0.000539999979082495,-0.0022299999836832285,20.847000122070312
6869.503938737956,1553142.0,0.003590000094845891,0.0002699999895412475,0.003809999907389283,21.19099998474121
6869.504938509878,1553143.0,0.004310000222176313,0.002630000002682209,-0.003719999920576811,20.624000549316406
6869.505938281801,1553144.0,0.004989999812096357,-0.00044999999227002263,-0.0025400000158697367,20.641000747680664
6869.506938053723,1553145.0,0.004579999949783087,0.00044999999227002263,-0.003449999960139394,21.033000946044922
6869.507937825647,1553146.0,0.003860000055283308,-0.0036299999337643385,-0.004900000058114529,20.989999771118164
6869.5089375975695,1553147.0,0.0023399998899549246,-0.004410000052303076,-0.0030900000128895044,20.954999923706055
6869.509937369492,1553148.0,0.00018000000272877514,-0.0018599999602884054,0.0003600000054575503,21.034000396728516
6869.510937141415,1553149.0,0.00018000000272877514,-0.004310000222176313,-0.005590000189840794,20.944000244140625
6869.511936913337,1553150.0,-0.0003100000030826777,-0.001449999981559813,-0.006130000110715628,20.91699981689453
6869.51293668526,1553151.0,-0.0007600000244565308,0.001820000004954636,-0.004900000058114529,20.836999893188477
6869.513936457183,1553152.0,0.0002699999895412475,0.0016299999551847577,-0.0027199999894946814,20.92300033569336
6869.514936229106,1553153.0,0.0027000000700354576,0.0029100000392645597,0.0003600000054575503,20.871000289916992
6869.515936001028,1553154.0,0.005929999984800816,0.007449999917298555,0.000539999979082495,20.952999114990234
6869.516935772951,1553155.0,0.00795000046491623,-0.0015399999683722854,0.005630000028759241,20.92300033569336
6869.5179355448745,1553156.0,0.008270000107586384,-0.004679999779909849,0.0027199999894946814,20.86199951171875
6869.518935316797,1553157.0,0.009970000013709068,-0.00031999999191612005,-0.0019099999917671084,20.80699920654297
6869.51993508872,1553158.0,0.009519999846816063,-0.0030900000128895044,-0.00418000016361475,20.825000762939453
6869.520934860642,1553159.0,0.008449999615550041,-0.0002699999895412475,0.0002699999895412475,20.714000701904297
6869.521934632565,1553160.0,0.00773000018671155,0.0030900000128895044,0.00798999983817339,20.937999725341797
6869.522934404487,1553161.0,0.00610999995842576,-0.001180000021122396,-0.0008200000156648457,20.708999633789062
6869.523934176411,1553162.0,0.005210000090301037,0.0006399999838322401,-0.004629999864846468,20.55699920654297
6869.5249339483335,1553163.0,0.0048500001430511475,-0.002859999891370535,-0.002630000002682209,20.42799949645996
6869.525933720256,1553164.0,0.004000000189989805,-0.00418000016361475,-0.002360000042244792,20.899999618530273
6869.526933492179,1553165.0,0.0034099998883903027,0.00018000000272877514,-0.005090000107884407,20.704999923706055
6869.527933264101,1553166.0,0.003229999914765358,0.002859999891370535,-0.0016299999551847577,20.513999938964844
6869.528933036025,1553167.0,0.002520000096410513,-0.003809999907389283,-0.0063599999994039536,20.708999633789062
6869.529932807947,1553168.0,0.000539999979082495,-0.0013599999947473407,-0.0021800000686198473,20.69700050354004
6869.53093257987,1553169.0,-0.0007200000109151006,0.000910000002477318,-0.0030900000128895044,20.69700050354004
6869.531932351792,1553170.0,-0.0023399998899549246,0.00018000000272877514,0.000539999979082495,20.479999542236328
6869.532932123715,1553171.0,-0.001979999942705035,0.006180000025779009,0.0014100000262260437,20.795000076293945
6869.533931895638,1553172.0,0.00018000000272877514,-0.000910000002477318,-0.006579999811947346,20.67300033569336
6869.534931667561,1553173.0,0.0017999999690800905,0.0003600000054575503,0.0010900000343099236,20.757999420166016
6869.535931439484,1553174.0,0.004579999949783087,-0.004000000189989805,0.0025400000158697367,20.67300033569336
6869.536931211406,1553175.0,0.005929999984800816,0.00018000000272877514,0.00418000016361475,20.298999786376953
6869.537930983329,1553176.0,0.0052999998442828655,0.000539999979082495,0.002090000081807375,20.677000045776367
6869.538930755252,1553177.0,0.006380000151693821,-0.004860000219196081,-0.0063599999994039536,20.599000930786133
6869.539930527175,1553178.0,0.008270000107586384,-0.002859999891370535,-0.0025400000158697367,20.52899932861328
6869.540930299097,1553179.0,0.009159999899566174,0.0020000000949949026,-0.0031799999997019768,20.54599952697754
6869.54193007102,1553180.0,0.009340000338852406,-0.00018000000272877514,-0.0024500000290572643,20.613000869750977
6869.542929842943,1553181.0,0.008310000412166119,-0.00872000027447939,-0.003449999960139394,20.631000518798828
6869.543929614865,1553182.0,0.0052999998442828655,-0.003719999920576811,-0.003000000026077032,20.517000198364258
6869.544929386789,1553183.0,0.005210000090301037,-0.001820000004954636,0.0030900000128895044,20.45599937438965
6869.545929158711,1553184.0,0.006200000178068876,0.004360000137239695,-0.0036800000816583633,20.56999969482422
6869.546928930634,1553185.0,0.005080000031739473,-0.007809999864548445,0.002360000042244792,20.50200080871582
6869.547928702556,1553186.0,0.0048500001430511475,-0.00041000000783242285,0.0030900000128895044,20.398000717163086
6869.548928474479,1553187.0,0.006289999932050705,-0.0063599999994039536,0.002950000111013651,20.062000274658203
6869.5499282464025,1553188.0,0.006380000151693821,-0.0027199999894946814,0.0007300000288523734,20.452999114990234
6869.550928018325,1553189.0,0.008270000107586384,0.0017300000181421638,-0.0030900000128895044,20.444000244140625
6869.551927790248,1553190.0,0.009610000066459179,0.0016299999551847577,0.0016299999551847577,20.275999069213867
6869.55292756217,1553191.0,0.00872000027447939,-0.006219999864697456,0.0003600000054575503,20.155000686645508
6869.553927334093,1553192.0,0.0063299997709691525,0.00571999978274107,0.0013599999947473407,20.367000579833984
6869.554927106015,1553193.0,0.0028800000436604023,-0.002090000081807375,-0.002630000002682209,20.44700050354004
6869.555926877939,1553194.0,0.0003600000054575503,0.003590000094845891,-9.000000136438757e-05,20.27899932861328
6869.556926649861,1553195.0,-0.0012100000167265534,0.0027199999894946814,0.001449999981559813,20.14900016784668
6869.557926421784,1553196.0,-0.0008099999977275729,0.005489999894052744,0.000539999979082495,20.273000717163086
6869.558926193707,1553197.0,-0.0003600000054575503,-0.005859999917447567,-0.006219999864697456,20.273000717163086
6869.559925965629,1553198.0,0.0009399999980814755,0.001820000004954636,-0.003220000071451068,20.273000717163086
6869.560925737553,1553199.0,0.0028800000436604023,-0.0020000000949949026,-0.0030900000128895044,20.333999633789062
6869.561925509475,1553200.0,0.0037700000684708357,0.0029100000392645597,-0.005040000192821026,20.26099967956543
6869.562925281398,1553201.0,0.004579999949783087,0.0024500000290572643,0.0033199999015778303,20.232999801635742
6869.56392505332,1553202.0,0.008449999615550041,0.0028200000524520874,-0.004900000058114529,20.232999801635742
6869.564924825243,1553203.0,0.012400000356137753,-0.000539999979082495,-0.0051299999468028545,20.2450008392334
6869.565924597166,1553204.0,0.013790000230073929,0.0029100000392645597,-0.006219999864697456,20.240999221801758
6869.566924369089,1553205.0,0.013570000417530537,0.00571999978274107,0.0022299999836832285,19.982999801635742
6869.567924141012,1553206.0,0.010780000127851963,0.001500000013038516,0.004269999917596579,20.270000457763672
6869.568923912934,1553207.0,0.0088900001719594,-0.0010900000343099236,-0.004900000058114529,20.104999542236328
6869.569923684857,1553208.0,0.007009999826550484,0.0006399999838322401,-0.0024500000290572643,20.163000106811523
6869.57092345678,1553209.0,0.003949999809265137,-0.0021800000686198473,-0.00418000016361475,20.12299919128418
6869.571923228703,1553210.0,0.0017999999690800905,0.0007300000288523734,-0.00571999978274107,20.18600082397461
6869.572923000625,1553211.0,0.0007200000109151006,0.00018000000272877514,0.003809999907389283,19.649999618530273
6869.573922772548,1553212.0,0.0012600000482052565,0.0031300000846385956,0.0013599999947473407,20.135000228881836
6869.574922544471,1553213.0,0.004490000195801258,0.0010000000474974513,-0.002360000042244792,20.016000747680664
6869.575922316393,1553214.0,0.005750000011175871,-0.003539999946951866,0.00018000000272877514,20.070999145507812
6869.576922088317,1553215.0,0.0065100002102553844,-0.0027199999894946814,-0.0030900000128895044,20.062000274658203
6869.577921860239,1553216.0,0.0088900001719594,-0.002630000002682209,-0.004360000137239695,20.047000885009766
6869.578921632162,1553217.0,0.009159999899566174,-0.003809999907389283,0.0010900000343099236,19.534000396728516
6869.579921404084,1553218.0,0.00872000027447939,0.0012700000079348683,-0.007809999864548445,20.058000564575195
6869.580921176007,1553219.0,0.00773000018671155,0.000910000002477318,-0.009449999779462814,19.916000366210938
6869.5819209479305,1553220.0,0.007009999826550484,-0.005090000107884407,-0.007449999917298555,19.891000747680664
6869.582920719853,1553221.0,0.007369999773800373,0.0010000000474974513,-0.006630000192672014,19.87299919128418
6869.583920491776,1553222.0,0.005659999791532755,-0.008080000057816505,-0.000910000002477318,19.92799949645996
6869.584920263698,1553223.0,0.005570000037550926,-0.0012700000079348683,0.004360000137239695,19.843000411987305
6869.585920035621,1553224.0,0.007369999773800373,0.0016299999551847577,0.0027199999894946814,19.854999542236328
6869.586919807543,1553225.0,0.00795000046491623,-0.0007699999841861427,-0.001449999981559813,19.847000122070312
6869.587919579467,1553226.0,0.007009999826550484,-0.002589999930933118,-0.007180000189691782,19.881000518798828
6869.588919351389,1553227.0,0.007590000052005053,0.0010000000474974513,-0.005539999809116125,19.94499969482422
6869.589919123312,1553228.0,0.008799999952316284,-0.0021800000686198473,-0.002859999891370535,19.867000579833984
6869.590918895235,1553229.0,0.0083600003272295,-0.004540000110864639,-0.0007300000288523734,19.788000106811523
6869.591918667157,1553230.0,0.007009999826550484,-0.0010400000028312206,0.003539999946951866,19.760000228881836
6869.592918439081,1553231.0,0.004490000195801258,0.0007300000288523734,-0.000910000002477318,19.867000579833984
6869.593918211003,1553232.0,0.003860000055283308,0.0017300000181421638,-0.0021299999207258224,19.83300018310547
6869.594917982926,1553233.0,0.004129999782890081,-0.004900000058114529,-0.0017300000181421638,19.791000366210938
6869.595917754848,1553234.0,0.004579999949783087,-0.0025400000158697367,0.0020000000949949026,19.701000213623047
6869.596917526771,1553235.0,0.004490000195801258,-0.005270000081509352,-0.005270000081509352,19.70800018310547
6869.597917298694,1553236.0,0.005210000090301037,-0.005590000189840794,0.00418000016361475,19.659000396728516
6869.598917070617,1553237.0,0.006200000178068876,-0.0063599999994039536,-0.005630000028759241,19.74799919128418
6869.59991684254,1553238.0,0.008270000107586384,0.004449999891221523,-0.00571999978274107,19.732999801635742
6869.600916614462,1553239.0,0.00773000018671155,-0.0064500002190470695,-0.007360000163316727,19.719999313354492
6869.601916386385,1553240.0,0.004670000169426203,0.0002699999895412475,0.005270000081509352,19.503999710083008
6869.602916158308,1553241.0,0.0031399999279528856,-0.001820000004954636,-0.003449999960139394,19.687000274658203
6869.603915930231,1553242.0,0.004129999782890081,-0.005450000055134296,-0.0030900000128895044,19.54199981689453
6869.604915702153,1553243.0,0.005929999984800816,-0.0030900000128895044,0.0020000000949949026,19.652999877929688
6869.605915474076,1553244.0,0.007550000213086605,0.00041000000783242285,-0.0014100000262260437,19.63800048828125
6869.606915245999,1553245.0,0.007550000213086605,0.003269999986514449,0.0006399999838322401,19.635000228881836
6869.607915017921,1553246.0,0.006649999879300594,0.00803999975323677,-0.0027199999894946814,19.066999435424805
6869.608914789845,1553247.0,0.004220000002533197,0.0027199999894946814,0.0006799999973736703,19.569000244140625
6869.609914561767,1553248.0,0.004490000195801258,0.0007699999841861427,-0.003000000026077032,19.427000045776367
6869.61091433369,1553249.0,0.007009999826550484,0.0009500000160187483,0.000539999979082495,19.500999450683594
6869.611914105612,1553250.0,0.010329999960958958,-0.004089999943971634,0.0012700000079348683,19.464000701904297
6869.612913877535,1553251.0,0.012760000303387642,-0.000539999979082495,0.0020000000949949026,19.415000915527344
6869.6139136494585,1553252.0,0.011500000022351742,-0.005179999861866236,-0.00018000000272877514,19.308000564575195
6869.614913421381,1553253.0,0.008449999615550041,-0.0022700000554323196,-0.0011399999493733048,19.382999420166016
6869.615913193304,1553254.0,0.0052999998442828655,-9.000000136438757e-05,-0.0012700000079348683,19.089000701904297
6869.616912965226,1553255.0,0.004269999917596579,-0.0036299999337643385,-0.005630000028759241,19.354000091552734
6869.617912737149,1553256.0,0.007009999826550484,-0.0010900000343099236,-0.004040000028908253,18.968000411987305
6869.618912509071,1553257.0,0.007369999773800373,-0.001449999981559813,-0.003809999907389283,18.933000564575195
6869.619912280995,1553258.0,0.00773000018671155,-0.0002699999895412475,-0.0015399999683722854,19.415000915527344
6869.620912052917,1553259.0,0.007369999773800373,-0.005090000107884407,0.0036299999337643385,19.23699951171875
6869.62191182484,1553260.0,0.0071000000461936,-0.004540000110864639,-0.002360000042244792,19.011999130249023
6869.622911596763,1553261.0,0.007819999940693378,0.003449999960139394,0.0006799999973736703,18.878000259399414
6869.623911368686,1553262.0,0.008179999887943268,-0.004040000028908253,-0.00018000000272877514,19.235000610351562
6869.624911140609,1553263.0,0.008630000054836273,0.0059899999760091305,0.00031999999191612005,19.183000564575195
6869.625910912531,1553264.0,0.007910000160336494,-0.001769999973475933,-0.0036299999337643385,19.121999740600586
6869.626910684454,1553265.0,0.008179999887943268,-0.005179999861866236,-0.004540000110864639,19.246999740600586
6869.627910456376,1553266.0,0.008089999668300152,-0.004809999838471413,-9.000000136438757e-05,18.816999435424805
6869.628910228299,1553267.0,0.008449999615550041,0.0029100000392645597,0.0030900000128895044,19.13800048828125
6869.6299100002225,1553268.0,0.008089999668300152,-0.005590000189840794,0.002360000042244792,19.115999221801758
6869.630909772145,1553269.0,0.006380000151693821,0.0045900000259280205,0.003220000071451068,19.05500030517578
6869.631909544068,1553270.0,0.004220000002533197,0.0020000000949949026,-0.002090000081807375,19.011999130249023
6869.63290931599,1553271.0,0.004360000137239695,-0.0016299999551847577,-0.005489999894052744,19.091999053955078
6869.633909087913,1553272.0,0.0035000001080334187,0.002950000111013651,-0.000910000002477318,19.003000259399414
6869.634908859836,1553273.0,0.0023399998899549246,-0.005450000055134296,-0.0016299999551847577,19.06100082397461
6869.635908631759,1553274.0,0.00215999991632998,0.005450000055134296,0.0021800000686198473,19.072999954223633
6869.636908403681,1553275.0,0.0016199999954551458,0.0017300000181421638,0.004089999943971634,18.85700035095215
6869.637908175604,1553276.0,0.0016199999954551458,0.00267999991774559,-0.004900000058114529,19.017000198364258
6869.638907947527,1553277.0,0.004310000222176313,0.003809999907389283,-0.0021800000686198473,18.927000045776367
6869.639907719449,1553278.0,0.006200000178068876,-0.00267999991774559,-0.0063599999994039536,18.993999481201172
6869.640907491373,1553279.0,0.007009999826550484,-0.0027199999894946814,-0.0036299999337643385,19.017000198364258
6869.641907263295,1553280.0,0.007459999993443489,-0.004089999943971634,-0.004089999943971634,19.020000457763672
6869.642907035218,1553281.0,0.008089999668300152,-0.006719999946653843,-0.0002699999895412475,18.80500030517578
6869.64390680714,1553282.0,0.008449999615550041,-0.0059899999760091305,-0.0028200000524520874,18.927000045776367
6869.644906579063,1553283.0,0.0101500004529953,-0.002360000042244792,-0.002630000002682209,18.798999786376953
6869.6459063509865,1553284.0,0.009970000013709068,-0.006539999973028898,-0.002409999957308173,18.889999389648438
6869.646906122909,1553285.0,0.009159999899566174,-0.0021800000686198473,-0.00418000016361475,18.915000915527344
6869.647905894832,1553286.0,0.009159999899566174,-0.0028200000524520874,-0.0022299999836832285,18.895999908447266
6869.648905666754,1553287.0,0.008449999615550041,0.0012700000079348683,0.0028200000524520874,18.610000610351562
6869.649905438677,1553288.0,0.007770000025629997,-0.0062699997797608376,-0.004540000110864639,18.861000061035156
6869.650905210599,1553289.0,0.008089999668300152,-0.0059899999760091305,-0.004540000110864639,18.707000732421875
6869.651904982523,1553290.0,0.008449999615550041,0.0030900000128895044,-0.004809999838471413,18.735000610351562
6869.652904754445,1553291.0,0.009700000286102295,-0.004809999838471413,-0.0063599999994039536,18.726999282836914
6869.653904526368,1553292.0,0.009519999846816063,0.003809999907389283,-0.005539999809116125,18.743999481201172
6869.654904298291,1553293.0,0.008799999952316284,0.003949999809265137,0.0016299999551847577,18.475000381469727
6869.655904070214,1553294.0,0.009340000338852406,0.002360000042244792,-0.001820000004954636,18.764999389648438
6869.656903842137,1553295.0,0.011140000075101852,0.004900000058114529,-0.0016299999551847577,18.584999084472656
6869.657903614059,1553296.0,0.012489999644458294,-0.004040000028908253,-0.0027199999894946814,18.572999954223633
6869.658903385982,1553297.0,0.014019999653100967,0.008539999835193157,-0.006089999806135893,18.54199981689453
6869.659903157904,1553298.0,0.014019999653100967,-0.009630000218749046,-0.0027199999894946814,18.535999298095703
6869.660902929827,1553299.0,0.013120000250637531,-0.0031799999997019768,0.004540000110864639,18.548999786376953
6869.6619027017505,1553300.0,0.012310000136494637,-0.0051299999468028545,-0.008170000277459621,18.5
6869.662902473673,1553301.0,0.009879999794065952,-0.003719999920576811,-0.001820000004954636,18.492000579833984
6869.663902245596,1553302.0,0.008089999668300152,0.002409999957308173,-0.004269999917596579,18.552000045776367
6869.664902017518,1553303.0,0.0064199999906122684,-0.004089999943971634,-0.0005000000237487257,18.597000122070312
6869.665901789441,1553304.0,0.00646999990567565,0.002630000002682209,0.0036299999337643385,18.562000274658203
6869.666901561364,1553305.0,0.0064199999906122684,0.0025400000158697367,-0.0012700000079348683,18.05699920654297
6869.667901333287,1553306.0,0.006380000151693821,-0.003719999920576811,-0.0016299999551847577,18.511999130249023
6869.668901105209,1553307.0,0.0070500001311302185,0.003269999986514449,0.0003600000054575503,18.41699981689453
6869.669900877132,1553308.0,0.008449999615550041,-0.007269999943673611,0.001769999973475933,18.389999389648438
6869.670900649055,1553309.0,0.00925000011920929,-0.0012700000079348683,0.0036800000816583633,18.381000518798828
6869.671900420977,1553310.0,0.011049999855458736,-0.005489999894052744,0.004720000084489584,18.312000274658203
6869.672900192901,1553311.0,0.01131999958306551,-0.0020000000949949026,-0.0027699999045580626,18.26799964904785
6869.673899964823,1553312.0,0.009700000286102295,-0.005630000028759241,-0.0030900000128895044,18.378000259399414
6869.674899736746,1553313.0,0.008630000054836273,0.0002699999895412475,0.0002699999895412475,18.090999603271484
6869.675899508668,1553314.0,0.008089999668300152,0.000910000002477318,0.0019099999917671084,18.059999465942383
6869.676899280592,1553315.0,0.006649999879300594,-0.0036800000816583633,-0.0016299999551847577,17.957000732421875
6869.6778990525145,1553316.0,0.003100000089034438,-0.004310000222176313,0.0006399999838322401,18.2189998626709
6869.678898824437,1553317.0,0.0003100000030826777,-0.004129999782890081,0.0020000000949949026,18.158000946044922
6869.67989859636,1553318.0,-0.00039999998989515007,4.999999873689376e-05,-0.004540000110864639,18.285999298095703
6869.680898368282,1553319.0,-0.0023399998899549246,0.003000000026077032,-0.00018000000272877514,18.082000732421875
6869.681898140205,1553320.0,-0.003010000102221966,0.0002699999895412475,-0.0005000000237487257,18.01799964904785
6869.682897912128,1553321.0,-0.0023399998899549246,-0.001820000004954636,0.004410000052303076,17.937999725341797
6869.683897684051,1553322.0,9.000000136438757e-05,-0.004809999838471413,-0.0006799999973736703,18.084999084472656
6869.684897455973,1553323.0,0.006649999879300594,-0.003909999970346689,0.0008200000156648457,17.94099998474121
6869.685897227896,1553324.0,0.011189999990165234,-0.004900000058114529,-0.007079999893903732,18.20400047302246
6869.686896999819,1553325.0,0.011950000189244747,-0.0076299998909235,-0.0051299999468028545,18.02400016784668
6869.687896771742,1553326.0,0.012040000408887863,-0.0029100000392645597,-0.0037700000684708357,18.014999389648438
6869.688896543665,1553327.0,0.011409999802708626,-4.999999873689376e-05,-0.0021800000686198473,17.934999465942383
6869.689896315587,1553328.0,0.0101500004529953,0.004900000058114529,0.00418000016361475,17.98699951171875
6869.69089608751,1553329.0,0.01095999963581562,0.001180000021122396,-0.003269999986514449,17.950000762939453
6869.691895859432,1553330.0,0.009750000201165676,-0.001180000021122396,-0.003809999907389283,17.98900032043457
6869.692895631355,1553331.0,0.006649999879300594,-0.00014000000373926014,-0.00795000046491623,18.100000381469727
6869.6938954032785,1553332.0,0.004220000002533197,-0.003590000094845891,-0.0031799999997019768,18.038999557495117
6869.694895175201,1553333.0,0.0013500000350177288,-0.0003600000054575503,-0.002859999891370535,18.01799964904785
6869.695894947124,1553334.0,-0.0008999999845400453,-0.0031799999997019768,0.002950000111013651,17.739999771118164
6869.696894719046,1553335.0,-0.0015300000086426735,-0.0020000000949949026,-0.00418000016361475,18.01099967956543
6869.697894490969,1553336.0,3.9999998989515007e-05,0.004269999917596579,0.0025400000158697367,17.833999633789062
6869.698894262892,1553337.0,0.002469999948516488,-0.006089999806135893,0.0,17.833999633789062
6869.699894034815,1553338.0,0.00279000005684793,0.006990000139921904,-0.002630000002682209,17.85300064086914
6869.700893806737,1553339.0,0.00215999991632998,-0.004540000110864639,-0.000910000002477318,17.858999252319336
6869.70189357866,1553340.0,0.0006699999794363976,-0.0059899999760091305,0.0020000000949949026,17.483999252319336
6869.702893350583,1553341.0,-0.001930000027641654,-0.008539999835193157,-0.005179999861866236,17.82200050354004
6869.703893122505,1553342.0,-0.004129999782890081,-0.001820000004954636,0.000910000002477318,17.700000762939453
6869.704892894429,1553343.0,-0.0027000000700354576,0.001180000021122396,0.001180000021122396,17.731000900268555
6869.705892666351,1553344.0,0.0006699999794363976,-0.0011399999493733048,-0.00031999999191612005,17.70599937438965
6869.706892438274,1553345.0,0.0035000001080334187,0.0036800000816583633,-0.00018000000272877514,17.648000717163086
6869.707892210196,1553346.0,0.004129999782890081,0.0020000000949949026,-0.0083600003272295,17.53499984741211
6869.70889198212,1553347.0,0.0035000001080334187,-0.000910000002477318,0.0013200000394135714,17.780000686645508
6869.7098917540425,1553348.0,0.0027000000700354576,-0.003809999907389283,0.0025400000158697367,17.621999740600586
6869.710891525965,1553349.0,0.0017099999822676182,-0.0019499999471008778,-0.001180000021122396,17.59600067138672
6869.711891297888,1553350.0,0.001979999942705035,-0.003719999920576811,0.0031799999997019768,17.57200050354004
6869.71289106981,1553351.0,0.0030499999411404133,0.003449999960139394,0.002630000002682209,17.53499984741211
6869.713890841733,1553352.0,0.003590000094845891,0.00018000000272877514,-0.0030900000128895044,17.44099998474121
6869.714890613656,1553353.0,0.0052999998442828655,0.00418000016361475,0.0016299999551847577,17.656999588012695
6869.715890385579,1553354.0,0.006289999932050705,0.0033599999733269215,-0.0029100000392645597,17.150999069213867
6869.716890157501,1553355.0,0.006649999879300594,0.000910000002477318,-0.005630000028759241,17.145000457763672
6869.717889929424,1553356.0,0.006829999852925539,-0.0008200000156648457,-0.004540000110864639,17.1200008392334
6869.718889701347,1553357.0,0.005969999823719263,-0.0063599999994039536,-0.004089999943971634,17.409000396728516
6869.71988947327,1553358.0,0.004720000084489584,-0.004040000028908253,-0.004540000110864639,17.371000289916992
6869.720889245193,1553359.0,0.006289999932050705,-0.004629999864846468,0.000910000002477318,17.422000885009766
6869.721889017115,1553360.0,0.007910000160336494,-0.005179999861866236,-0.0011399999493733048,17.45599937438965
6869.722888789038,1553361.0,0.008089999668300152,-9.000000136438757e-05,-0.0015399999683722854,17.46500015258789
6869.72388856096,1553362.0,0.007860000245273113,-0.0012700000079348683,-0.00418000016361475,17.400999069213867
6869.724888332883,1553363.0,0.007369999773800373,0.0024500000290572643,-0.0063599999994039536,17.03499984741211
6869.7258881048065,1553364.0,0.007009999826550484,0.0025400000158697367,0.0016299999551847577,17.395000457763672
6869.726887876729,1553365.0,0.006829999852925539,0.0010900000343099236,0.0013599999947473407,17.259000778198242
6869.727887648652,1553366.0,0.005929999984800816,0.003000000026077032,0.004089999943971634,17.426000595092773
6869.728887420574,1553367.0,0.00646999990567565,-0.0059899999760091305,0.0030900000128895044,17.40999984741211
6869.729887192497,1553368.0,0.008449999615550041,-9.000000136438757e-05,0.002950000111013651,17.371000289916992
6869.73088696442,1553369.0,0.009879999794065952,-0.004720000084489584,-0.008129999972879887,17.075000762939453
6869.731886736343,1553370.0,0.010239999741315842,-0.0027199999894946814,0.0028200000524520874,17.327999114990234
6869.732886508265,1553371.0,0.010599999688565731,-0.0008200000156648457,-0.0027199999894946814,17.229999542236328
6869.733886280188,1553372.0,0.010420000180602074,-0.004900000058114529,0.0010900000343099236,17.132999420166016
6869.734886052111,1553373.0,0.01051000040024519,0.001449999981559813,0.003269999986514449,17.121999740600586
6869.735885824033,1553374.0,0.009519999846816063,-0.003809999907389283,0.0033599999733269215,17.107999801635742
6869.736885595957,1553375.0,0.009519999846816063,0.0003600000054575503,-0.00571999978274107,17.145000457763672
6869.737885367879,1553376.0,0.01051000040024519,-0.0063599999994039536,0.004769999999552965,17.08799934387207
6869.738885139802,1553377.0,0.010599999688565731,-0.006990000139921904,-0.0030900000128895044,16.81800079345703
6869.739884911724,1553378.0,0.009750000201165676,0.003449999960139394,-0.0020000000949949026,17.047000885009766
6869.740884683648,1553379.0,0.009519999846816063,-0.004809999838471413,0.0019099999917671084,17.08099937438965
6869.7418844555705,1553380.0,0.009519999846816063,0.000539999979082495,0.0003600000054575503,16.701000213623047
6869.742884227493,1553381.0,0.009700000286102295,-0.001820000004954636,-0.0002699999895412475,17.132999420166016
6869.743883999416,1553382.0,0.007369999773800373,0.0013599999947473407,-0.0008200000156648457,16.6200008392334
6869.744883771338,1553383.0,0.004989999812096357,-0.0003600000054575503,-0.004310000222176313,17.07200050354004
6869.745883543261,1553384.0,0.003100000089034438,-0.0016299999551847577,-0.006089999806135893,17.05299949645996
6869.746883315184,1553385.0,0.0016199999954551458,-0.004089999943971634,-0.004769999999552965,17.010000228881836
6869.747883087107,1553386.0,-0.000539999979082495,0.003269999986514449,-0.002859999891370535,16.891000747680664
6869.748882859029,1553387.0,-0.003860000055283308,0.007269999943673611,0.0013599999947473407,16.690000534057617
6869.749882630952,1553388.0,-0.0033199999015778303,0.003449999960139394,-0.0030900000128895044,16.992000579833984
6869.750882402875,1553389.0,-0.0022499999031424522,0.008170000277459621,0.0016299999551847577,16.53700065612793
6869.751882174798,1553390.0,-0.0017999999690800905,-0.005270000081509352,0.004089999943971634,16.608999252319336
6869.752881946721,1553391.0,0.0012600000482052565,0.003809999907389283,0.0020000000949949026,16.631999969482422
6869.753881718643,1553392.0,0.006289999932050705,-0.0028200000524520874,0.005270000081509352,16.562000274658203
6869.754881490566,1553393.0,0.010780000127851963,-0.007040000054985285,-0.0015399999683722854,16.857999801635742
6869.755881262488,1553394.0,0.012400000356137753,-0.006990000139921904,0.0021299999207258224,16.44300079345703
6869.756881034411,1553395.0,0.0088900001719594,-0.00418000016361475,-0.008539999835193157,16.851999282836914
6869.7578808063345,1553396.0,0.005210000090301037,0.0029100000392645597,-0.00949000008404255,16.86400032043457
6869.758880578257,1553397.0,0.0064199999906122684,-0.004900000058114529,-0.008899999782443047,16.81800079345703
6869.75988035018,1553398.0,0.005210000090301037,0.003909999970346689,0.0010900000343099236,16.756999969482422
6869.760880122102,1553399.0,0.0030499999411404133,0.0021299999207258224,-0.003539999946951866,16.57900047302246
6869.761879894026,1553400.0,0.000539999979082495,0.0,0.004900000058114529,16.511999130249023
6869.762879665948,1553401.0,-0.001930000027641654,0.003809999907389283,-0.002360000042244792,16.551000595092773
6869.763879437871,1553402.0,-0.003640000009909272,-0.006630000192672014,-0.004809999838471413,16.5310001373291
6869.764879209793,1553403.0,-0.0035500000230968,0.0029100000392645597,-0.002630000002682209,16.52199935913086
6869.765878981716,1553404.0,-0.002520000096410513,0.0,-0.0021800000686198473,16.680999755859375
6869.766878753639,1553405.0,-0.0013500000350177288,0.0025400000158697367,0.002360000042244792,16.461000442504883
6869.767878525562,1553406.0,-0.000539999979082495,0.0022299999836832285,0.0010000000474974513,16.461000442504883
6869.768878297485,1553407.0,-0.0016199999954551458,-0.0033599999733269215,0.002630000002682209,16.52199935913086
6869.769878069407,1553408.0,-0.0008999999845400453,0.0021800000686198473,0.003809999907389283,16.48900032043457
6869.77087784133,1553409.0,0.0002699999895412475,-0.006719999946653843,0.0021299999207258224,16.47599983215332
6869.771877613252,1553410.0,0.0008999999845400453,0.0002300000051036477,-0.0020000000949949026,16.45400047302246
6869.772877385176,1553411.0,0.0017999999690800905,0.0003600000054575503,-0.000910000002477318,16.048999786376953
6869.7738771570985,1553412.0,0.0027000000700354576,-0.0071299998089671135,-0.006630000192672014,16.49799919128418
6869.774876929021,1553413.0,0.001979999942705035,0.005309999920427799,-0.003809999907389283,16.4060001373291
6869.775876700944,1553414.0,0.0020699999295175076,-0.004900000058114529,-0.004900000058114529,16.437000274658203
6869.776876472866,1553415.0,0.004310000222176313,-0.000539999979082495,-0.0021299999207258224,16.417999267578125
6869.777876244789,1553416.0,0.004360000137239695,-0.0027199999894946814,-0.003449999960139394,16.034000396728516
6869.778876016712,1553417.0,0.004579999949783087,-0.001230000052601099,-0.0027199999894946814,16.448999404907227
6869.779875788635,1553418.0,0.0035000001080334187,0.002409999957308173,0.0010000000474974513,16.266000747680664
6869.780875560557,1553419.0,0.004399999976158142,-0.00418000016361475,0.003590000094845891,16.22599983215332
6869.78187533248,1553420.0,0.0071000000461936,0.003449999960139394,-0.000910000002477318,16.240999221801758
6869.782875104403,1553421.0,0.009879999794065952,0.00535999983549118,-0.0024500000290572643,15.845999717712402
6869.783874876326,1553422.0,0.011859999969601631,0.0012700000079348683,-0.003809999907389283,16.290000915527344
6869.784874648249,1553423.0,0.011719999834895134,0.003860000055283308,0.002090000081807375,15.883000373840332
6869.785874420171,1553424.0,0.010420000180602074,0.003000000026077032,-0.0020000000949949026,16.290000915527344
6869.786874192094,1553425.0,0.007369999773800373,-0.0030900000128895044,-0.000539999979082495,16.260000228881836
6869.787873964016,1553426.0,0.0030499999411404133,-9.000000136438757e-05,-0.0010400000028312206,16.27199935913086
6869.788873735939,1553427.0,-0.002469999948516488,-0.001449999981559813,-0.004720000084489584,16.229000091552734
6869.7898735078625,1553428.0,-0.006060000043362379,0.000539999979082495,-0.000910000002477318,16.017000198364258
6869.790873279785,1553429.0,-0.007369999773800373,0.0,-9.000000136438757e-05,15.935999870300293
6869.791873051708,1553430.0,-0.007910000160336494,0.002630000002682209,-0.005450000055134296,16.08300018310547
6869.79287282363,1553431.0,-0.007009999826550484,-0.005179999861866236,-0.004900000058114529,16.10099983215332
6869.793872595554,1553432.0,-0.005929999984800816,0.003809999907389283,-0.0030900000128895044,16.125
6869.794872367476,1553433.0,-0.005080000031739473,-0.001180000021122396,-0.0033599999733269215,16.094999313354492
6869.795872139399,1553434.0,-0.00215999991632998,-0.005950000137090683,-0.00044999999227002263,15.88700008392334
6869.796871911321,1553435.0,0.0002699999895412475,-0.007079999893903732,0.0003600000054575503,15.842000007629395
6869.797871683244,1553436.0,0.0035000001080334187,-0.004410000052303076,-0.0059899999760091305,15.875
6869.798871455167,1553437.0,0.005080000031739473,0.0010400000028312206,-0.0030900000128895044,15.829000473022461
6869.79987122709,1553438.0,0.005030000116676092,-0.005630000028759241,-0.003000000026077032,15.826000213623047
6869.800870999013,1553439.0,0.0033199999015778303,0.0021299999207258224,-0.00418000016361475,15.793000221252441
6869.801870770935,1553440.0,0.0024300001095980406,0.005400000140070915,-0.002859999891370535,15.685999870300293
6869.802870542858,1553441.0,0.00018000000272877514,0.002360000042244792,-0.004410000052303076,15.88700008392334
6869.80387031478,1553442.0,-0.00107999995816499,0.0002699999895412475,0.000910000002477318,15.656000137329102
6869.804870086704,1553443.0,-0.0008999999845400453,-0.002090000081807375,0.0030900000128895044,15.552000045776367
6869.8058698586265,1553444.0,-0.0012100000167265534,0.005450000055134296,0.0045900000259280205,15.569999694824219
