LSL_Time,PLUX_P1_nSeq,PLUX_P1_ECG0,PLUX_P1_EMG1,PLUX_P1_EMG2,PLUX_P1_RESPIRATION3
6481.006177260308,1163405.0,-0.009970000013709068,-0.0045900000259280205,0.005040000192821026,0.43977001309394836
6481.007177032523,1163406.0,-0.010420000180602074,-0.010940000414848328,-0.0027699999045580626,0.43977001309394836
6481.0081768047385,1163407.0,-0.011049999855458736,0.00031999999191612005,-0.007309999782592058,0.4368000030517578
6481.009176576954,1163408.0,-0.015449999831616879,-0.0013200000394135714,-0.0063599999994039536,0.44196999073028564
6481.010176349169,1163409.0,-0.02345000021159649,-0.0016299999551847577,0.0002300000051036477,0.4349200129508972
6481.011176121385,1163410.0,-0.028929999098181725,0.005309999920427799,0.0016299999551847577,0.44192999601364136
6481.012175893599,1163411.0,-0.032340001314878464,0.0022299999836832285,0.00031999999191612005,0.4349699914455414
6481.013175665815,1163412.0,-0.03342000022530556,0.004720000084489584,-0.004410000052303076,0.44150999188423157
6481.01417543803,1163413.0,-0.032839998602867126,-0.002360000042244792,0.00031999999191612005,0.4264500141143799
6481.015175210246,1163414.0,-0.03127000108361244,-0.0002699999895412475,-0.000590000010561198,0.43849000334739685
6481.016174982461,1163415.0,-0.029200000688433647,-0.000590000010561198,0.001820000004954636,0.4232900142669678
6481.017174754676,1163416.0,-0.02889000065624714,0.0020000000949949026,-0.0007699999841861427,0.4397299885749817
6481.018174526891,1163417.0,-0.02776000089943409,0.01104000024497509,-0.002319999970495701,0.43230998516082764
6481.019174299106,1163418.0,-0.026149999350309372,0.0071299998089671135,-0.000590000010561198,0.4327700138092041
6481.020174071322,1163419.0,-0.02507000043988228,0.005770000163465738,0.0037700000684708357,0.4375799894332886
6481.021173843537,1163420.0,-0.024210000410676003,0.004310000222176313,0.0019099999917671084,0.43094000220298767
6481.022173615753,1163421.0,-0.021199999377131462,-0.0018599999602884054,0.00031999999191612005,0.4299300014972687
6481.023173387967,1163422.0,-0.015449999831616879,-0.001500000013038516,-0.001769999973475933,0.433459997177124
6481.024173160183,1163423.0,-0.010200000368058681,-0.004860000219196081,4.999999873689376e-05,0.4302099943161011
6481.025172932398,1163424.0,-0.005710000172257423,-0.01063000038266182,-0.0033599999733269215,0.42923998832702637
6481.026172704614,1163425.0,-0.00215999991632998,-0.01711999997496605,0.005450000055134296,0.4339100122451782
6481.027172476829,1163426.0,-0.003590000094845891,-0.0045900000259280205,0.0024500000290572643,0.41536998748779297
6481.028172249044,1163427.0,-0.009840000420808792,0.011939999647438526,-0.004410000052303076,0.430620014667511
6481.029172021259,1163428.0,-0.01779000088572502,0.006130000110715628,-0.0063599999994039536,0.4315299987792969
6481.030171793474,1163429.0,-0.0243500005453825,0.004410000052303076,-0.005950000137090683,0.4125800132751465
6481.03117156569,1163430.0,-0.029200000688433647,-0.002589999930933118,0.0010400000028312206,0.42952001094818115
6481.032171337905,1163431.0,-0.03189999982714653,-0.007079999893903732,-0.0011399999493733048,0.42493999004364014
6481.033171110121,1163432.0,-0.03423000127077103,-0.003719999920576811,-0.0013599999947473407,0.42407000064849854
6481.034170882335,1163433.0,-0.03539999946951866,0.003949999809265137,0.0011399999493733048,0.4274100065231323
6481.035170654551,1163434.0,-0.03612000122666359,0.010400000028312206,0.0019499999471008778,0.4268600046634674
6481.036170426766,1163435.0,-0.03508000075817108,0.010850000195205212,0.0030900000128895044,0.41047999262809753
6481.037170198982,1163436.0,-0.034860000014305115,0.008129999972879887,0.00031999999191612005,0.42480000853538513
6481.038169971197,1163437.0,-0.0340999998152256,0.006810000166296959,0.0019499999471008778,0.42677000164985657
6481.039169743412,1163438.0,-0.03149000182747841,0.0015899999998509884,-0.00041000000783242285,0.4197700023651123
6481.040169515627,1163439.0,-0.027310000732541084,-0.0019099999917671084,-0.00041000000783242285,0.42594999074935913
6481.041169287842,1163440.0,-0.02314000017940998,0.000859999970998615,0.002360000042244792,0.4195899963378906
6481.042169060058,1163441.0,-0.018689999356865883,-0.0031300000846385956,-0.00044999999227002263,0.4109799861907959
6481.043168832273,1163442.0,-0.0142000000923872,0.0019099999917671084,0.001230000052601099,0.421779990196228
6481.044168604488,1163443.0,-0.008980000391602516,-0.0012700000079348683,-0.004040000028908253,0.42113998532295227
6481.045168376703,1163444.0,-0.0027000000700354576,0.0013200000394135714,-0.0033199999015778303,0.40452998876571655
6481.046168148919,1163445.0,-0.00044999999227002263,0.0010000000474974513,-0.0010400000028312206,0.41753000020980835
6481.047167921134,1163446.0,-0.0008999999845400453,-0.002319999970495701,0.00031999999191612005,0.4206799864768982
6481.04816769335,1163447.0,-0.004579999949783087,-0.0007699999841861427,-0.003539999946951866,0.4148299992084503
6481.049167465565,1163448.0,-0.011590000241994858,-0.007670000195503235,-0.0022700000554323196,0.4138199985027313
6481.0501672377795,1163449.0,-0.021290000528097153,-0.0072200000286102295,-0.003220000071451068,0.4196299910545349
6481.051167009995,1163450.0,-0.030009999871253967,-0.0063599999994039536,-0.005539999809116125,0.41244998574256897
6481.05216678221,1163451.0,-0.033240001648664474,-0.0052200001664459705,-0.0036800000816583633,0.41409000754356384
6481.053166554426,1163452.0,-0.033560000360012054,-0.00418000016361475,9.000000136438757e-05,0.4163399934768677
6481.054166326641,1163453.0,-0.030910000205039978,-0.002589999930933118,0.0013599999947473407,0.41043001413345337
6481.055166098856,1163454.0,-0.02857000008225441,0.003949999809265137,0.002859999891370535,0.40988001227378845
6481.056165871071,1163455.0,-0.02655000053346157,0.006769999861717224,0.004809999838471413,0.4156999886035919
6481.057165643287,1163456.0,-0.024800000712275505,-0.0007699999841861427,0.0016799999866634607,0.408050000667572
6481.058165415502,1163457.0,-0.022779999300837517,0.004999999888241291,-0.004129999782890081,0.4086500108242035
6481.059165187718,1163458.0,-0.020659999921917915,0.0037700000684708357,-0.005489999894052744,0.41321998834609985
6481.060164959932,1163459.0,-0.021199999377131462,0.00018000000272877514,-0.0022700000554323196,0.4092400074005127
6481.0611647321475,1163460.0,-0.02201000042259693,-0.0019499999471008778,-0.003449999960139394,0.4057199954986572
6481.062164504363,1163461.0,-0.023310000076889992,0.003809999907389283,-0.0016299999551847577,0.3963800072669983
6481.063164276578,1163462.0,-0.022369999438524246,-0.001500000013038516,0.0021299999207258224,0.4031499922275543
6481.064164048794,1163463.0,-0.018330000340938568,0.004679999779909849,-0.0011399999493733048,0.40900999307632446
6481.065163821009,1163464.0,-0.015809999778866768,0.0020000000949949026,0.005040000192821026,0.4046199917793274
6481.066163593224,1163465.0,-0.017249999567866325,0.0010400000028312206,0.0018599999602884054,0.39820998907089233
6481.067163365439,1163466.0,-0.019770000129938126,-0.002360000042244792,-0.0003600000054575503,0.40755000710487366
6481.068163137655,1163467.0,-0.023269999772310257,-0.0033199999015778303,-0.001500000013038516,0.4025999903678894
6481.06916290987,1163468.0,-0.02978000044822693,-0.0033199999015778303,-0.0019099999917671084,0.3946399986743927
6481.0701626820855,1163469.0,-0.03756000101566315,-0.0011399999493733048,-0.005539999809116125,0.405349999666214
6481.0711624543,1163470.0,-0.04569000005722046,-0.0003600000054575503,-0.0036800000816583633,0.40062999725341797
6481.0721622265155,1163471.0,-0.05201999843120575,-4.999999873689376e-05,-0.0002300000051036477,0.39656001329421997
6481.073161998731,1163472.0,-0.0553399994969368,-0.0016799999866634607,-0.00014000000373926014,0.39673998951911926
6481.074161770946,1163473.0,-0.055080000311136246,-0.0003600000054575503,0.0024999999441206455,0.400409996509552
6481.075161543162,1163474.0,-0.05400000140070915,-0.0037700000684708357,0.002319999970495701,0.39948999881744385
6481.076161315377,1163475.0,-0.05570000037550926,-0.0036800000816583633,0.0035000001080334187,0.3958300054073334
6481.077161087592,1163476.0,-0.056779999285936356,-0.001820000004954636,0.004679999779909849,0.39267000555992126
6481.078160859807,1163477.0,-0.05516999959945679,-0.00041000000783242285,0.0002699999895412475,0.39157000184059143
6481.079160632023,1163478.0,-0.052469998598098755,0.001769999973475933,0.003590000094845891,0.3983500003814697
6481.080160404238,1163479.0,-0.050039999186992645,0.006310000084340572,0.003719999920576811,0.39212000370025635
6481.0811601764535,1163480.0,-0.05138999968767166,-0.0011399999493733048,0.002090000081807375,0.38978999853134155
6481.082159948668,1163481.0,-0.052379999309778214,0.006130000110715628,-0.0011399999493733048,0.39399999380111694
6481.0831597208835,1163482.0,-0.05067000165581703,0.010809999890625477,-0.0005000000237487257,0.3763299882411957
6481.084159493099,1163483.0,-0.04569000005722046,0.009949999861419201,-9.000000136438757e-05,0.39184999465942383
6481.085159265314,1163484.0,-0.038270000368356705,0.01334999967366457,0.003220000071451068,0.3899199962615967
6481.08615903753,1163485.0,-0.03288000077009201,0.014670000411570072,-0.002589999930933118,0.37376001477241516
6481.087158809745,1163486.0,-0.03198999911546707,0.016300000250339508,-0.007079999893903732,0.3894200026988983
6481.08815858196,1163487.0,-0.03522000089287758,0.004129999782890081,-0.004040000028908253,0.38703998923301697
6481.089158354175,1163488.0,-0.041510000824928284,-0.011309999972581863,-0.0006399999838322401,0.3753199875354767
6481.090158126391,1163489.0,-0.04608999937772751,-0.013670000247657299,0.001769999973475933,0.38909998536109924
6481.091157898606,1163490.0,-0.048650000244379044,-0.012400000356137753,0.006089999806135893,0.38264000415802
6481.0921576708215,1163491.0,-0.051979999989271164,-0.010080000385642052,0.0031799999997019768,0.3811799883842468
6481.093157443036,1163492.0,-0.055969998240470886,-0.010040000081062317,0.001820000004954636,0.38666999340057373
6481.0941572152515,1163493.0,-0.05906999856233597,-0.0033199999015778303,-0.0009500000160187483,0.37970998883247375
6481.095156987467,1163494.0,-0.05974999815225601,-0.0018599999602884054,-0.00418000016361475,0.37852001190185547
6481.096156759682,1163495.0,-0.05857999995350838,0.003220000071451068,-0.003539999946951866,0.3855299949645996
6481.097156531898,1163496.0,-0.056779999285936356,0.0031300000846385956,-0.000859999970998615,0.37751999497413635
6481.098156304113,1163497.0,-0.05552000179886818,-0.0009500000160187483,0.00031999999191612005,0.37766000628471375
6481.099156076328,1163498.0,-0.05620000138878822,0.0017300000181421638,0.0021299999207258224,0.3829199969768524
6481.100155848543,1163499.0,-0.05525999888777733,0.00031999999191612005,0.0022299999836832285,0.3778400123119354
6481.101155620759,1163500.0,-0.053950000554323196,-0.005900000222027302,0.00031999999191612005,0.3700999915599823
6481.102155392974,1163501.0,-0.05260000005364418,0.001180000021122396,-0.0003600000054575503,0.37970998883247375
6481.1031551651895,1163502.0,-0.046629998832941055,0.00031999999191612005,-0.005489999894052744,0.3770099878311157
6481.104154937404,1163503.0,-0.04021000117063522,0.004900000058114529,-0.005489999894052744,0.36103999614715576
6481.1051547096195,1163504.0,-0.033959999680519104,0.003000000026077032,-0.00041000000783242285,0.3753199875354767
6481.106154481835,1163505.0,-0.03117999993264675,-0.004220000002533197,0.0027699999045580626,0.3753199875354767
6481.10715425405,1163506.0,-0.0301900003105402,0.0012700000079348683,0.005770000163465738,0.3711499869823456
6481.108154026266,1163507.0,-0.03162999823689461,0.00267999991774559,-0.00031999999191612005,0.37422001361846924
6481.10915379848,1163508.0,-0.036389999091625214,-0.008630000054836273,-0.0015399999683722854,0.3734000027179718
6481.110153570696,1163509.0,-0.040789999067783356,-0.004999999888241291,-0.0024999999441206455,0.36932000517845154
6481.111153342911,1163510.0,-0.04276999831199646,-0.0011399999493733048,-0.00014000000373926014,0.3738600015640259
6481.112153115127,1163511.0,-0.04383999854326248,-0.0022299999836832285,0.0013200000394135714,0.371289998292923
6481.113152887342,1163512.0,-0.04569000005722046,-0.0037700000684708357,0.0028200000524520874,0.3605799973011017
6481.1141526595575,1163513.0,-0.04416000097990036,0.005309999920427799,4.999999873689376e-05,0.37070000171661377
6481.115152431772,1163514.0,-0.04075000062584877,0.013260000385344028,0.00031999999191612005,0.37316998839378357
6481.116152203987,1163515.0,-0.035670001059770584,0.016209999099373817,0.00031999999191612005,0.3690899908542633
6481.117151976203,1163516.0,-0.03215999901294708,0.010040000081062317,-0.004900000058114529,0.3567799925804138
6481.118151748418,1163517.0,-0.028929999098181725,0.005309999920427799,-0.0029100000392645597,0.3709299862384796
6481.119151520634,1163518.0,-0.0243500005453825,0.004310000222176313,-0.0027699999045580626,0.367900013923645
6481.120151292848,1163519.0,-0.022190000861883163,-0.003809999907389283,0.001769999973475933,0.35701000690460205
6481.121151065064,1163520.0,-0.02565000019967556,-0.009990000165998936,-0.0015399999683722854,0.36629998683929443
6481.122150837279,1163521.0,-0.0301900003105402,-0.011490000411868095,0.001500000013038516,0.36726000905036926
6481.123150609495,1163522.0,-0.031039999797940254,-0.00031999999191612005,0.003590000094845891,0.3512899875640869
6481.12415038171,1163523.0,-0.03189999982714653,0.004540000110864639,-0.002090000081807375,0.3628700077533722
6481.1251501539255,1163524.0,-0.03215999901294708,0.00686000008136034,-0.001449999981559813,0.3655700087547302
6481.12614992614,1163525.0,-0.02986999973654747,-0.0008200000156648457,-0.0015899999998509884,0.36118000745773315
6481.127149698355,1163526.0,-0.029829999431967735,-0.005489999894052744,-0.002589999930933118,0.35947999358177185
6481.128149470571,1163527.0,-0.03109000064432621,-0.004410000052303076,-0.00041000000783242285,0.3668999969959259
6481.129149242786,1163528.0,-0.03423000127077103,-0.004410000052303076,-0.0019099999917671084,0.3616800010204315
6481.130149015002,1163529.0,-0.04016000032424927,-0.008310000412166119,-0.0045900000259280205,0.354449987411499
6481.131148787216,1163530.0,-0.046539999544620514,-0.013170000165700912,0.0011399999493733048,0.36465001106262207
6481.132148559432,1163531.0,-0.05260000005364418,-0.015399999916553497,-0.002589999930933118,0.361270010471344
6481.133148331647,1163532.0,-0.054760001599788666,-0.015119999647140503,0.003220000071451068,0.3471199870109558
6481.134148103863,1163533.0,-0.052650000900030136,-0.005590000189840794,0.005539999809116125,0.3601199984550476
6481.135147876078,1163534.0,-0.05076000094413757,0.004129999782890081,0.0019499999471008778,0.3569599986076355
6481.1361476482925,1163535.0,-0.04851999878883362,0.013530000112950802,-0.0028200000524520874,0.3623200058937073
6481.137147420508,1163536.0,-0.04627000167965889,0.02247999981045723,-0.0002699999895412475,0.356550008058548
6481.138147192723,1163537.0,-0.0427200011909008,0.011939999647438526,0.0013599999947473407,0.3630099892616272
6481.139146964939,1163538.0,-0.03853999823331833,0.012350000441074371,0.0009500000160187483,0.344650000333786
6481.140146737154,1163539.0,-0.03720000013709068,0.01484999991953373,0.00031999999191612005,0.36177000403404236
6481.14114650937,1163540.0,-0.03773999959230423,0.003860000055283308,-4.999999873689376e-05,0.343639999628067
6481.142146281584,1163541.0,-0.03756000101566315,0.003719999920576811,0.00031999999191612005,0.36103999614715576
6481.1431460538,1163542.0,-0.035349998623132706,0.001769999973475933,-0.0020000000949949026,0.34259000420570374
6481.144145826015,1163543.0,-0.029829999431967735,-0.0002300000051036477,-0.0013599999947473407,0.3588399887084961
6481.145145598231,1163544.0,-0.021970000118017197,0.0008200000156648457,-0.0031799999997019768,0.34749001264572144
6481.146145370446,1163545.0,-0.016440000385046005,-0.002589999930933118,-0.005489999894052744,0.3598499894142151
6481.1471451426605,1163546.0,-0.014019999653100967,0.0031300000846385956,-0.0031300000846385956,0.34419000148773193
6481.148144914876,1163547.0,-0.014329999685287476,-0.005489999894052744,-0.0007300000288523734,0.3588399887084961
6481.149144687091,1163548.0,-0.016979999840259552,-0.006949999835342169,0.00031999999191612005,0.34286001324653625
6481.150144459307,1163549.0,-0.020659999921917915,-0.007309999782592058,0.001769999973475933,0.35929998755455017
6481.151144231522,1163550.0,-0.02676999941468239,-0.012400000356137753,-4.999999873689376e-05,0.34071001410484314
6481.152144003738,1163551.0,-0.030910000205039978,-0.006810000166296959,-0.0028200000524520874,0.3573800027370453
6481.153143775952,1163552.0,-0.032660000026226044,-0.00798999983817339,-0.0020000000949949026,0.34676000475883484
6481.154143548168,1163553.0,-0.03162999823689461,-0.002589999930933118,-0.001230000052601099,0.35846999287605286
6481.155143320383,1163554.0,-0.029200000688433647,-0.005489999894052744,-9.000000136438757e-05,0.35065001249313354
6481.1561430925985,1163555.0,-0.023360000923275948,0.002319999970495701,-0.0010400000028312206,0.3569200038909912
6481.157142864814,1163556.0,-0.017650000751018524,0.006130000110715628,-0.004540000110864639,0.35097000002861023
6481.1581426370285,1163557.0,-0.015629999339580536,0.004679999779909849,-0.0007699999841861427,0.356550008058548
6481.159142409244,1163558.0,-0.015270000323653221,-0.0010400000028312206,-0.0031799999997019768,0.3498699963092804
6481.160142181459,1163559.0,-0.015270000323653221,-0.000859999970998615,-0.002090000081807375,0.3562299907207489
6481.161141953675,1163560.0,-0.014150000177323818,-0.004040000028908253,0.001769999973475933,0.350600004196167
6481.16214172589,1163561.0,-0.011140000075101852,-0.0063599999994039536,0.001769999973475933,0.3518800139427185
6481.163141498106,1163562.0,-0.005210000090301037,0.012310000136494637,-0.005270000081509352,0.3533500134944916
6481.16414127032,1163563.0,0.0027000000700354576,0.014619999565184116,-0.001500000013038516,0.34455999732017517
6481.165141042536,1163564.0,0.011049999855458736,0.006949999835342169,0.00031999999191612005,0.3551799952983856
6481.166140814751,1163565.0,0.014379999600350857,0.006490000057965517,-0.002589999930933118,0.33855998516082764
6481.1671405869665,1163566.0,0.013120000250637531,0.01030999980866909,-0.007309999782592058,0.3559100031852722
6481.168140359182,1163567.0,0.01181000005453825,0.003220000071451068,-0.002409999957308173,0.34808000922203064
6481.1691401313965,1163568.0,0.009069999679923058,-0.0037700000684708357,-0.0002300000051036477,0.3549000024795532
6481.170139903612,1163569.0,0.0035000001080334187,-0.012900000438094139,0.00031999999191612005,0.34894999861717224
6481.171139675827,1163570.0,-0.0034099998883903027,-0.004860000219196081,0.0013599999947473407,0.35069000720977783
6481.172139448043,1163571.0,-0.00930000003427267,-0.004999999888241291,0.0016799999866634607,0.3496899902820587
6481.173139220258,1163572.0,-0.014059999957680702,0.00031999999191612005,0.0015399999683722854,0.35065001249313354
6481.174138992473,1163573.0,-0.015449999831616879,0.003220000071451068,-0.002319999970495701,0.350600004196167
6481.175138764688,1163574.0,-0.011230000294744968,0.004310000222176313,4.999999873689376e-05,0.34894999861717224
6481.176138536904,1163575.0,-0.0034099998883903027,-0.00044999999227002263,0.00031999999191612005,0.3505600094795227
6481.177138309119,1163576.0,0.004540000110864639,-0.003909999970346689,0.00031999999191612005,0.3491800129413605
6481.1781380813345,1163577.0,0.011590000241994858,0.003220000071451068,-0.001230000052601099,0.35065001249313354
6481.17913785355,1163578.0,0.0185100007802248,0.0013200000394135714,-0.0011399999493733048,0.34038999676704407
6481.1801376257645,1163579.0,0.021379999816417694,0.00031999999191612005,-0.00267999991774559,0.3508799970149994
6481.18113739798,1163580.0,0.020659999921917915,-0.006579999811947346,-0.00014000000373926014,0.3504199981689453
6481.182137170195,1163581.0,0.02133999951183796,-0.00913000013679266,0.0072200000286102295,0.33994001150131226
6481.183136942411,1163582.0,0.02694999985396862,-0.002589999930933118,0.0034099998883903027,0.3518800139427185
6481.184136714626,1163583.0,0.034370001405477524,0.00203999993391335,0.0008200000156648457,0.3500500023365021
6481.185136486841,1163584.0,0.041689999401569366,-0.0016799999866634607,-0.002589999930933118,0.33869999647140503
6481.186136259056,1163585.0,0.045010000467300415,-0.005489999894052744,-0.003000000026077032,0.3518800139427185
6481.187136031272,1163586.0,0.04340000078082085,-0.003860000055283308,-0.005539999809116125,0.34749001264572144
6481.188135803487,1163587.0,0.04052000120282173,-0.00571999978274107,-0.001820000004954636,0.3444199860095978
6481.1891355757025,1163588.0,0.035760000348091125,-0.007309999782592058,0.0016799999866634607,0.3518800139427185
6481.190135347918,1163589.0,0.028750000521540642,0.009580000303685665,-0.0019099999917671084,0.34749001264572144
6481.1911351201325,1163590.0,0.021789999678730965,0.004769999999552965,-0.0007300000288523734,0.34345999360084534
6481.192134892348,1163591.0,0.02092999964952469,0.004629999864846468,-0.00203999993391335,0.35109999775886536
6481.193134664563,1163592.0,0.02353999949991703,0.008489999920129776,0.00031999999191612005,0.34400999546051025
6481.194134436779,1163593.0,0.028389999642968178,0.018120000138878822,-0.00571999978274107,0.3445099890232086
6481.195134208994,1163594.0,0.030820000916719437,0.014399999752640724,0.001769999973475933,0.34937000274658203
6481.196133981209,1163595.0,0.03468000143766403,0.003220000071451068,0.005179999861866236,0.34547001123428345
6481.197133753424,1163596.0,0.038359999656677246,0.0044999998062849045,0.00267999991774559,0.33535999059677124
6481.19813352564,1163597.0,0.04173000156879425,-0.004040000028908253,0.002859999891370535,0.3443799912929535
6481.199133297855,1163598.0,0.04114999994635582,-0.0011399999493733048,0.0015899999998509884,0.34749001264572144
6481.2001330700705,1163599.0,0.03844999894499779,0.00014000000373926014,-0.0019099999917671084,0.3405799865722656
6481.201132842285,1163600.0,0.03756000101566315,-0.0036800000816583633,-0.000590000010561198,0.33504000306129456
6481.2021326145,1163601.0,0.03953000158071518,-0.0028200000524520874,-0.00041000000783242285,0.34112998843193054
6481.203132386716,1163602.0,0.04276999831199646,0.001500000013038516,-0.0011399999493733048,0.34588998556137085
6481.204132158931,1163603.0,0.048700001090765,-0.0011399999493733048,-0.001500000013038516,0.34226998686790466
6481.205131931147,1163604.0,0.0559299997985363,0.006089999806135893,0.00031999999191612005,0.3383300006389618
6481.206131703362,1163605.0,0.061810001730918884,-0.0007699999841861427,-0.0009500000160187483,0.3338499963283539
6481.207131475577,1163606.0,0.06414999812841415,0.00031999999191612005,0.00031999999191612005,0.3386099934577942
6481.208131247792,1163607.0,0.06306999921798706,-0.013120000250637531,0.0071299998089671135,0.3413099944591522
6481.209131020008,1163608.0,0.0588500015437603,-0.00989999994635582,0.0021299999207258224,0.33820000290870667
6481.210130792223,1163609.0,0.05192999914288521,-0.006039999891072512,-0.0010000000474974513,0.3314700126647949
6481.2111305644385,1163610.0,0.04464999958872795,0.00031999999191612005,-0.0015899999998509884,0.3410800099372864
6481.212130336653,1163611.0,0.03971000015735626,-0.002589999930933118,0.003590000094845891,0.33577001094818115
6481.213130108868,1163612.0,0.03799999877810478,-0.002090000081807375,0.00031999999191612005,0.32771000266075134
6481.214129881084,1163613.0,0.039400000125169754,9.000000136438757e-05,-0.0013599999947473407,0.3361400067806244
6481.215129653299,1163614.0,0.043129999190568924,-0.0051299999468028545,0.0013200000394135714,0.335860013961792
6481.216129425515,1163615.0,0.048969998955726624,0.004900000058114529,0.00014000000373926014,0.32117000222206116
6481.21712919773,1163616.0,0.053950000554323196,0.004220000002533197,0.0014100000262260437,0.33105000853538513
6481.218128969945,1163617.0,0.058889999985694885,0.004310000222176313,0.0024500000290572643,0.3351700007915497
6481.21912874216,1163618.0,0.06549999862909317,-0.003949999809265137,0.00203999993391335,0.3296799957752228
6481.220128514376,1163619.0,0.07134000211954117,-0.012670000083744526,-0.0007300000288523734,0.329910010099411
6481.221128286591,1163620.0,0.07462000101804733,-0.0002699999895412475,-0.002589999930933118,0.3343000113964081
6481.222128058806,1163621.0,0.07686000317335129,0.009399999864399433,-0.004129999782890081,0.3274799883365631
6481.223127831021,1163622.0,0.08229999989271164,0.009220000356435776,-0.003809999907389283,0.3266099989414215
6481.224127603236,1163623.0,0.08885999768972397,0.004129999782890081,-0.0027199999894946814,0.3326599895954132
6481.225127375452,1163624.0,0.09392999857664108,0.002319999970495701,-0.0011399999493733048,0.328029990196228
6481.226127147667,1163625.0,0.09720999747514725,0.0024500000290572643,9.000000136438757e-05,0.3202100098133087
6481.227126919883,1163626.0,0.09784000366926193,-0.005950000137090683,0.003220000071451068,0.33013999462127686
6481.228126692098,1163627.0,0.09505999833345413,-0.001449999981559813,-0.0029100000392645597,0.3241899907588959
6481.229126464313,1163628.0,0.08970999717712402,-0.006219999864697456,-0.0014100000262260437,0.3231799900531769
6481.230126236528,1163629.0,0.08284000307321548,-0.004629999864846468,-0.0013599999947473407,0.3284499943256378
6481.231126008744,1163630.0,0.07372000068426132,-0.004540000110864639,-0.0022700000554323196,0.32510000467300415
6481.232125780959,1163631.0,0.06541000306606293,-0.008949999697506428,0.0009500000160187483,0.31558001041412354
6481.233125553174,1163632.0,0.06046999990940094,-0.0002300000051036477,-0.0036800000816583633,0.3274799883365631
6481.234125325389,1163633.0,0.06019999831914902,0.00031999999191612005,-0.0019099999917671084,0.32030001282691956
6481.235125097604,1163634.0,0.06366000324487686,0.002360000042244792,0.0021299999207258224,0.3196600079536438
6481.23612486982,1163635.0,0.06881999969482422,0.004999999888241291,-0.0022299999836832285,0.32405000925064087
6481.237124642035,1163636.0,0.07492999732494354,0.010490000247955322,-0.0021800000686198473,0.30908000469207764
6481.238124414251,1163637.0,0.0806799978017807,0.008670000359416008,-0.0008200000156648457,0.3225899934768677
6481.239124186465,1163638.0,0.08624999970197678,0.007400000002235174,-0.0011399999493733048,0.32291001081466675
6481.240123958681,1163639.0,0.091279998421669,0.003220000071451068,0.0009500000160187483,0.316540002822876
6481.241123730896,1163640.0,0.09640000015497208,-0.003860000055283308,-0.0006399999838322401,0.31804999709129333
6481.2421235031115,1163641.0,0.10053999722003937,-0.0019099999917671084,0.003000000026077032,0.3199799954891205
6481.243123275327,1163642.0,0.10745999962091446,0.007079999893903732,0.0015399999683722854,0.30990999937057495
6481.244123047542,1163643.0,0.11266999691724777,0.003220000071451068,0.0010000000474974513,0.32203999161720276
6481.245122819757,1163644.0,0.11531999707221985,0.008489999920129776,0.003539999946951866,0.31452998518943787
6481.246122591972,1163645.0,0.11788000166416168,-9.000000136438757e-05,-0.0010000000474974513,0.3196600079536438
6481.247122364188,1163646.0,0.11751999706029892,0.005900000222027302,-0.0013599999947473407,0.30428001284599304
6481.248122136403,1163647.0,0.11355999857187271,-0.002589999930933118,-0.0031300000846385956,0.31975001096725464
6481.249121908619,1163648.0,0.10763999819755554,-0.010759999975562096,-0.0037700000684708357,0.3048200011253357
6481.250121680833,1163649.0,0.10210999846458435,-0.01298999972641468,0.0018599999602884054,0.31685999035835266
6481.251121453049,1163650.0,0.09847000241279602,-0.010940000414848328,-0.0012700000079348683,0.311599999666214
6481.252121225264,1163651.0,0.09415999799966812,-0.006769999861717224,0.0021299999207258224,0.31398001313209534
6481.2531209974795,1163652.0,0.09200000017881393,-0.0044999998062849045,-0.002409999957308173,0.31672999262809753
6481.254120769695,1163653.0,0.09164000302553177,-0.005179999861866236,-0.000539999979082495,0.30601999163627625
6481.25512054191,1163654.0,0.09380000084638596,-0.010219999589025974,0.00875999964773655,0.3134300112724304
6481.256120314125,1163655.0,0.09927999973297119,0.003809999907389283,-4.999999873689376e-05,0.3093999922275543
6481.25712008634,1163656.0,0.10638000071048737,0.01331000030040741,-0.0031300000846385956,0.3103199899196625
6481.258119858556,1163657.0,0.1137399971485138,0.009759999811649323,0.00031999999191612005,0.3123300075531006
6481.259119630771,1163658.0,0.12128999829292297,-0.0006399999838322401,0.00031999999191612005,0.31064000725746155
6481.260119402987,1163659.0,0.12709000706672668,-0.009949999861419201,-0.0013599999947473407,0.30257999897003174
6481.261119175201,1163660.0,0.13269999623298645,-0.00880999956279993,-0.002409999957308173,0.31169000267982483
6481.262118947417,1163661.0,0.1362999975681305,0.010130000300705433,-0.0006399999838322401,0.30976998805999756
6481.263118719632,1163662.0,0.14056000113487244,0.02321000024676323,0.00014000000373926014,0.3012999892234802
6481.2641184918475,1163663.0,0.14470000565052032,0.012400000356137753,-0.0013200000394135714,0.3108699917793274
6481.265118264063,1163664.0,0.14837999641895294,0.008670000359416008,0.00418000016361475,0.3073900043964386
6481.2661180362775,1163665.0,0.14985999464988708,0.009759999811649323,-0.0007699999841861427,0.30125001072883606
6481.267117808493,1163666.0,0.1459999978542328,0.011939999647438526,-0.003000000026077032,0.30904000997543335
6481.268117580708,1163667.0,0.1390800029039383,0.0024999999441206455,0.0013200000394135714,0.29475000500679016
6481.269117352924,1163668.0,0.13117000460624695,-0.005179999861866236,0.0027699999045580626,0.306659996509552
6481.270117125139,1163669.0,0.12258999794721603,-0.01071999967098236,-0.002589999930933118,0.2918199896812439
6481.271116897355,1163670.0,0.11751999706029892,-0.014209999702870846,-0.0011399999493733048,0.30395999550819397
6481.272116669569,1163671.0,0.11640000343322754,-0.011130000464618206,0.003220000071451068,0.30500999093055725
6481.273116441785,1163672.0,0.1163100004196167,-0.005489999894052744,0.00031999999191612005,0.29082000255584717
6481.274116214,1163673.0,0.11788000166416168,-0.0033599999733269215,-0.0008200000156648457,0.3047800064086914
6481.2751159862155,1163674.0,0.12120000272989273,-0.005950000137090683,-0.001230000052601099,0.2991499900817871
6481.276115758431,1163675.0,0.1269499957561493,0.006089999806135893,-0.0009500000160187483,0.29218998551368713
6481.2771155306455,1163676.0,0.13198000192642212,0.014759999699890614,-0.00044999999227002263,0.2991499900817871
6481.278115302861,1163677.0,0.1362999975681305,0.006719999946653843,0.00031999999191612005,0.29864999651908875
6481.279115075076,1163678.0,0.14024999737739563,0.003719999920576811,0.003590000094845891,0.28898999094963074
6481.280114847292,1163679.0,0.14559000730514526,-0.005679999943822622,-4.999999873689376e-05,0.29818999767303467
6481.281114619507,1163680.0,0.15142999589443207,-0.00880999956279993,-0.0019099999917671084,0.29690998792648315
6481.282114391723,1163681.0,0.15911999344825745,-0.0011399999493733048,-4.999999873689376e-05,0.28363001346588135
6481.283114163937,1163682.0,0.16746999323368073,0.007770000025629997,-0.00044999999227002263,0.29214000701904297
6481.284113936153,1163683.0,0.17434999346733093,0.011629999615252018,-0.007180000189691782,0.2967199981212616
6481.285113708368,1163684.0,0.1784300059080124,0.011939999647438526,-0.0028200000524520874,0.29100000858306885
6481.2861134805835,1163685.0,0.17896999418735504,0.00686000008136034,-0.00203999993391335,0.28867000341415405
6481.287113252799,1163686.0,0.1785700023174286,-0.0014100000262260437,0.0024500000290572643,0.2939800024032593
6481.288113025013,1163687.0,0.1739400029182434,-0.004449999891221523,0.003719999920576811,0.290910005569458
6481.289112797229,1163688.0,0.1655000001192093,-0.006089999806135893,-0.0018599999602884054,0.28450000286102295
6481.290112569444,1163689.0,0.15624000132083893,-0.00875999964773655,-0.003220000071451068,0.288349986076355
6481.29111234166,1163690.0,0.14901000261306763,-0.00875999964773655,0.0013599999947473407,0.2903600037097931
6481.292112113875,1163691.0,0.14455999433994293,-0.0006399999838322401,0.0006799999973736703,0.28404000401496887
6481.293111886091,1163692.0,0.14159999787807465,0.008539999835193157,-0.0028200000524520874,0.2825799882411957
6481.294111658305,1163693.0,0.13934999704360962,0.002090000081807375,-0.0013599999947473407,0.2874299883842468
6481.295111430521,1163694.0,0.1385899931192398,0.0002300000051036477,-0.0036800000816583633,0.2841799855232239
6481.296111202736,1163695.0,0.13912999629974365,-0.005810000002384186,-0.001180000021122396,0.2735599875450134
6481.2971109749515,1163696.0,0.13979999721050262,-0.005859999917447567,-0.004540000110864639,0.27814000844955444
6481.298110747167,1163697.0,0.14187000691890717,-0.0020000000949949026,0.0014100000262260437,0.2827099859714508
6481.299110519381,1163698.0,0.1453700065612793,0.00031999999191612005,0.00031999999191612005,0.27913999557495117
6481.300110291597,1163699.0,0.14806999266147614,-0.0064500002190470695,0.001500000013038516,0.2741999924182892
6481.301110063812,1163700.0,0.14834000170230865,-0.0036800000816583633,0.005900000222027302,0.2808400094509125
6481.302109836028,1163701.0,0.14834000170230865,-0.0007699999841861427,0.001449999981559813,0.27570998668670654
6481.303109608243,1163702.0,0.15219999849796295,0.012529999949038029,-0.003539999946951866,0.27164000272750854
6481.304109380458,1163703.0,0.15776999294757843,0.015300000086426735,-0.00041000000783242285,0.2773599922657013
6481.305109152673,1163704.0,0.16414999961853027,0.01370999962091446,0.0019499999471008778,0.262800008058548
6481.306108924889,1163705.0,0.1662999987602234,0.0072200000286102295,-0.000539999979082495,0.2682499885559082
6481.307108697104,1163706.0,0.1637900024652481,0.001449999981559813,0.00267999991774559,0.2707200050354004
6481.308108469319,1163707.0,0.15956999361515045,0.00031999999191612005,0.00031999999191612005,0.273470014333725
6481.309108241535,1163708.0,0.15390999615192413,-0.00686000008136034,-0.000539999979082495,0.27121999859809875
6481.310108013749,1163709.0,0.14483000338077545,-0.010490000247955322,-0.00203999993391335,0.2698499858379364
6481.311107785965,1163710.0,0.13504000008106232,-0.00494999997317791,-0.003220000071451068,0.2662400007247925
6481.31210755818,1163711.0,0.12685999274253845,-0.0002300000051036477,-0.00418000016361475,0.25745001435279846
6481.313107330396,1163712.0,0.12011999636888504,-0.0015899999998509884,-0.0045900000259280205,0.2636300027370453
6481.314107102611,1163713.0,0.11553999781608582,-0.001449999981559813,-0.0021299999207258224,0.26787999272346497
6481.315106874826,1163714.0,0.11437000334262848,-0.0002300000051036477,0.0030400000978261232,0.26311999559402466
6481.316106647041,1163715.0,0.11625999957323074,0.0018599999602884054,0.0021299999207258224,0.25360000133514404
6481.317106419257,1163716.0,0.11823999881744385,0.0,-0.001820000004954636,0.2610599994659424
6481.318106191472,1163717.0,0.11886999756097794,-0.0021800000686198473,0.003590000094845891,0.2624799907207489
6481.319105963687,1163718.0,0.11715999990701675,-0.00803999975323677,0.006180000025779009,0.25290998816490173
6481.320105735903,1163719.0,0.1132500022649765,-0.005900000222027302,-0.002589999930933118,0.262800008058548
6481.321105508117,1163720.0,0.11068999767303467,-0.013489999808371067,-0.004410000052303076,0.25547999143600464
6481.322105280333,1163721.0,0.11078000068664551,-0.006579999811947346,-0.000590000010561198,0.2540600001811981
6481.323105052548,1163722.0,0.11495999991893768,0.003590000094845891,-0.0011399999493733048,0.2587299942970276
6481.324104824764,1163723.0,0.11886999756097794,0.01370999962091446,-0.004860000219196081,0.2563000023365021
6481.325104596979,1163724.0,0.11985000222921371,0.015530000440776348,0.003220000071451068,0.2493399977684021
6481.326104369194,1163725.0,0.12026000022888184,0.018799999728798866,0.00535999983549118,0.25734999775886536
6481.327104141409,1163726.0,0.11948999762535095,0.023569999262690544,-0.0015899999998509884,0.2507599890232086
6481.328103913625,1163727.0,0.11683999747037888,0.014310000464320183,-0.001820000004954636,0.24970999360084534
6481.32910368584,1163728.0,0.1098800003528595,0.0030400000978261232,-0.0003600000054575503,0.2539199888706207
6481.330103458055,1163729.0,0.09990999847650528,0.001820000004954636,-0.004410000052303076,0.2496200054883957
6481.33110323027,1163730.0,0.08948999643325806,-0.0003600000054575503,-0.007860000245273113,0.2454500049352646
6481.332103002485,1163731.0,0.08059000223875046,-0.005859999917447567,-0.0031799999997019768,0.25154000520706177
6481.333102774701,1163732.0,0.07357999682426453,-0.00875999964773655,-0.001500000013038516,0.2513999938964844
6481.334102546916,1163733.0,0.06909000128507614,-0.005489999894052744,-0.0024500000290572643,0.24709999561309814
6481.335102319132,1163734.0,0.06791999936103821,0.00031999999191612005,-0.002950000111013651,0.2368900030851364
6481.336102091347,1163735.0,0.06764999777078629,0.00031999999191612005,-0.006130000110715628,0.24408000707626343
6481.337101863562,1163736.0,0.06586000323295593,-0.002630000002682209,-0.0006399999838322401,0.24532000720500946
6481.338101635777,1163737.0,0.06419000029563904,-0.0036299999337643385,-0.005489999894052744,0.24898000061511993
6481.3391014079925,1163738.0,0.060830000787973404,-0.001500000013038516,-0.0012700000079348683,0.24695999920368195
6481.340101180208,1163739.0,0.05525999888777733,-0.006399999838322401,0.00031999999191612005,0.24416999518871307
6481.341100952423,1163740.0,0.05138999968767166,-0.0019099999917671084,-0.0033599999733269215,0.23469999432563782
6481.342100724638,1163741.0,0.05048999935388565,-0.005489999894052744,-0.0017300000181421638,0.24018999934196472
6481.343100496853,1163742.0,0.05490000173449516,-0.00018000000272877514,0.003000000026077032,0.24640999734401703
6481.344100269069,1163743.0,0.057500001043081284,0.009630000218749046,0.0,0.24247999489307404
6481.345100041284,1163744.0,0.0559299997985363,0.013030000030994415,-0.0031300000846385956,0.23643000423908234
6481.3460998135,1163745.0,0.05067000165581703,0.01730000041425228,-0.004410000052303076,0.2429800033569336
6481.347099585715,1163746.0,0.042319998145103455,0.004540000110864639,-0.0036800000816583633,0.24233999848365784
6481.34809935793,1163747.0,0.03311000019311905,-0.00418000016361475,-0.0021800000686198473,0.23273000121116638
6481.349099130145,1163748.0,0.02425999939441681,-0.01711999997496605,0.0045900000259280205,0.23569999635219574
6481.3500989023605,1163749.0,0.01549999974668026,-0.006310000084340572,0.00031999999191612005,0.24289000034332275
6481.351098674576,1163750.0,0.007639999967068434,-0.0013599999947473407,0.0008200000156648457,0.24041999876499176
6481.352098446791,1163751.0,0.0006300000241026282,-0.007400000002235174,-0.0014100000262260437,0.23322999477386475
6481.353098219006,1163752.0,-0.006020000204443932,-0.0013200000394135714,0.0021299999207258224,0.23537999391555786
6481.354097991221,1163753.0,-0.011409999802708626,0.0002300000051036477,0.0024500000290572643,0.24045999348163605
6481.355097763437,1163754.0,-0.015270000323653221,0.001769999973475933,0.00031999999191612005,0.24018999934196472
6481.356097535652,1163755.0,-0.015990000218153,0.002409999957308173,-0.004040000028908253,0.2367600053548813
6481.357097307868,1163756.0,-0.01671000011265278,-0.0003600000054575503,0.00031999999191612005,0.22992999851703644
6481.358097080083,1163757.0,-0.017430000007152557,0.0027699999045580626,-9.000000136438757e-05,0.23259000480175018
6481.359096852298,1163758.0,-0.01981000043451786,-0.001500000013038516,-0.0036299999337643385,0.23853999376296997
6481.360096624513,1163759.0,-0.021700000390410423,0.004540000110864639,-0.0022299999836832285,0.23799000680446625
6481.3610963967285,1163760.0,-0.021649999544024467,-0.00267999991774559,-0.0020000000949949026,0.2256300002336502
6481.362096168944,1163761.0,-0.018959999084472656,-0.0006399999838322401,-0.0031300000846385956,0.23322999477386475
6481.363095941159,1163762.0,-0.0129399998113513,0.004769999999552965,0.0002699999895412475,0.23643000423908234
6481.364095713374,1163763.0,-0.006870000157505274,0.0022700000554323196,0.005859999917447567,0.23368999361991882
6481.365095485589,1163764.0,-0.00279000005684793,0.0072200000286102295,0.004809999838471413,0.22719000279903412
6481.366095257805,1163765.0,-0.0017999999690800905,0.0072200000286102295,-0.00041000000783242285,0.22879000008106232
6481.36709503002,1163766.0,-0.003590000094845891,0.003909999970346689,0.004129999782890081,0.2292499989271164
6481.368094802236,1163767.0,-0.006920000072568655,-0.0011399999493733048,-0.0013599999947473407,0.23061999678611755
6481.36909457445,1163768.0,-0.0129399998113513,-0.0064500002190470695,-0.0037700000684708357,0.23331999778747559
6481.370094346666,1163769.0,-0.020659999921917915,-0.008860000409185886,-0.007809999864548445,0.23643000423908234
6481.371094118881,1163770.0,-0.02776000089943409,-0.008990000002086163,-0.0031300000846385956,0.23543000221252441
6481.3720938910965,1163771.0,-0.0350399985909462,0.00031999999191612005,-0.008580000139772892,0.2328599989414215
6481.373093663312,1163772.0,-0.039980001747608185,0.0019099999917671084,-0.0035000001080334187,0.22168999910354614
6481.374093435527,1163773.0,-0.041689999401569366,-0.0022299999836832285,0.001820000004954636,0.22774000465869904
6481.375093207742,1163774.0,-0.040300000458955765,0.0044999998062849045,0.003949999809265137,0.23405000567436218
6481.376092979957,1163775.0,-0.03844999894499779,0.006130000110715628,-0.000539999979082495,0.22951999306678772
6481.377092752173,1163776.0,-0.03714999929070473,0.004269999917596579,0.00031999999191612005,0.2256300002336502
6481.378092524388,1163777.0,-0.03621000051498413,0.0012700000079348683,0.0021299999207258224,0.2250799983739853
6481.379092296604,1163778.0,-0.03531000018119812,-0.00041000000783242285,0.00535999983549118,0.23162999749183655
6481.380092068818,1163779.0,-0.0368800014257431,-0.0015399999683722854,0.002859999891370535,0.23276999592781067
6481.381091841034,1163780.0,-0.04061000049114227,-0.00494999997317791,0.00031999999191612005,0.23021000623703003
6481.382091613249,1163781.0,-0.0413299985229969,-0.00041000000783242285,-0.0033199999015778303,0.22842000424861908
6481.3830913854645,1163782.0,-0.036570001393556595,-0.0037700000684708357,0.0012700000079348683,0.22658999264240265
6481.38409115768,1163783.0,-0.02914999984204769,0.0002300000051036477,-0.0011399999493733048,0.22472000122070312
6481.385090929895,1163784.0,-0.02133999951183796,0.008630000054836273,-0.002859999891370535,0.2306700050830841
6481.38609070211,1163785.0,-0.018279999494552612,0.006130000110715628,-0.0018599999602884054,0.22879000008106232
6481.387090474325,1163786.0,-0.020479999482631683,0.004679999779909849,-0.002630000002682209,0.2259099930524826
6481.388090246541,1163787.0,-0.023269999772310257,0.007079999893903732,0.002319999970495701,0.22237999737262726
6481.389090018756,1163788.0,-0.028750000521540642,-0.001500000013038516,4.999999873689376e-05,0.2301200032234192
6481.390089790972,1163789.0,-0.034460000693798065,-0.005679999943822622,-0.00018000000272877514,0.22443999350070953
6481.391089563186,1163790.0,-0.04024999961256981,-0.01561999972909689,0.0031300000846385956,0.22224000096321106
6481.392089335402,1163791.0,-0.04496999830007553,-0.006310000084340572,-0.0021299999207258224,0.22846999764442444
6481.393089107617,1163792.0,-0.0485600009560585,0.0033599999733269215,-0.0037700000684708357,0.22407999634742737
6481.394088879832,1163793.0,-0.05048999935388565,0.003590000094845891,4.999999873689376e-05,0.22059999406337738
6481.395088652048,1163794.0,-0.04941999912261963,0.0010000000474974513,0.003909999970346689,0.22585999965667725
6481.396088424262,1163795.0,-0.04735000059008598,-0.0007699999841861427,0.005770000163465738,0.2246199995279312
6481.397088196478,1163796.0,-0.04438000172376633,-0.006579999811947346,0.0036299999337643385,0.21657000482082367
6481.398087968693,1163797.0,-0.0451899990439415,0.006769999861717224,-0.000859999970998615,0.22472000122070312
6481.399087740909,1163798.0,-0.0485600009560585,0.00031999999191612005,-0.002090000081807375,0.22297999262809753
6481.400087513124,1163799.0,-0.04991000145673752,-0.000590000010561198,0.00014000000373926014,0.2151000052690506
6481.40108728534,1163800.0,-0.04967999830842018,0.004679999779909849,-0.0013200000394135714,0.2171200066804886
6481.402087057554,1163801.0,-0.04887999966740608,-0.0018599999602884054,0.003860000055283308,0.22374999523162842
6481.40308682977,1163802.0,-0.04569000005722046,-0.0002300000051036477,0.004129999782890081,0.22064000368118286
6481.404086601985,1163803.0,-0.04222999885678291,-0.0024999999441206455,0.002319999970495701,0.20997999608516693
6481.4050863742,1163804.0,-0.03674999997019768,-0.0022700000554323196,0.0014100000262260437,0.21565000712871552
6481.406086146416,1163805.0,-0.03198999911546707,0.010850000195205212,-0.0033199999015778303,0.22136999666690826
6481.40708591863,1163806.0,-0.0301900003105402,0.0021299999207258224,-0.00418000016361475,0.2171200066804886
6481.408085690846,1163807.0,-0.030820000916719437,-0.002319999970495701,-0.002950000111013651,0.21097999811172485
6481.409085463061,1163808.0,-0.033959999680519104,0.002319999970495701,-0.004310000222176313,0.21665999293327332
6481.410085235277,1163809.0,-0.039889998733997345,-0.00044999999227002263,0.0010400000028312206,0.2171200066804886
6481.411085007492,1163810.0,-0.04707999899983406,-0.0002300000051036477,-0.0015399999683722854,0.2054000049829483
6481.412084779708,1163811.0,-0.052379999309778214,0.00031999999191612005,-0.004900000058114529,0.21025000512599945
6481.413084551922,1163812.0,-0.05516999959945679,0.00031999999191612005,-0.0027199999894946814,0.21560999751091003
6481.414084324138,1163813.0,-0.05234000086784363,-0.001449999981559813,-0.0015399999683722854,0.21126000583171844
6481.415084096353,1163814.0,-0.04617999866604805,-0.006579999811947346,0.0021299999207258224,0.2071399986743927
6481.416083868568,1163815.0,-0.04196000099182129,-0.013899999670684338,0.0051299999468028545,0.20979000627994537
6481.417083640784,1163816.0,-0.040070001035928726,-0.004360000137239695,0.003220000071451068,0.2117599993944168
6481.418083412998,1163817.0,-0.03912999853491783,0.011760000139474869,0.002409999957308173,0.2006399929523468
6481.419083185214,1163818.0,-0.038270000368356705,0.00803999975323677,-0.004129999782890081,0.20476000010967255
6481.420082957429,1163819.0,-0.03602999821305275,0.002630000002682209,-0.0013599999947473407,0.21056999266147614
6481.421082729645,1163820.0,-0.03269999846816063,0.004310000222176313,-0.002360000042244792,0.20795999467372894
6481.42208250186,1163821.0,-0.028710000216960907,0.0083600003272295,-0.0007300000288523734,0.19954000413417816
6481.423082274076,1163822.0,-0.023229999467730522,0.009039999917149544,-0.000590000010561198,0.1980700045824051
6481.42408204629,1163823.0,-0.01940999925136566,0.005040000192821026,-0.005270000081509352,0.1998099982738495
6481.4250818185055,1163824.0,-0.015809999778866768,0.002859999891370535,0.004089999943971634,0.20273999869823456
6481.426081590721,1163825.0,-0.015720000490546227,-0.005179999861866236,0.0045900000259280205,0.20316000282764435
6481.427081362936,1163826.0,-0.016979999840259552,-0.005950000137090683,0.003000000026077032,0.1966100037097931
6481.428081135152,1163827.0,-0.018239999189972878,-0.002589999930933118,0.0010000000474974513,0.2035199999809265
6481.429080907366,1163828.0,-0.021199999377131462,0.004860000219196081,-0.000859999970998615,0.1913899928331375
6481.430080679582,1163829.0,-0.022460000589489937,-0.001500000013038516,-0.0007300000288523734,0.1990399956703186
6481.431080451797,1163830.0,-0.021379999816417694,-0.004860000219196081,-0.001500000013038516,0.19652000069618225
6481.432080224013,1163831.0,-0.019139999523758888,-0.01071999967098236,0.0021299999207258224,0.19303999841213226
6481.433079996228,1163832.0,-0.017470000311732292,-0.00949000008404255,0.002859999891370535,0.19564999639987946
6481.434079768443,1163833.0,-0.014379999600350857,-0.007449999917298555,-0.0007300000288523734,0.19368000328540802
6481.435079540658,1163834.0,-0.011049999855458736,-0.006949999835342169,-0.0030900000128895044,0.19271999597549438
6481.4360793128735,1163835.0,-0.0083600003272295,0.006130000110715628,-0.0015899999998509884,0.18863999843597412
6481.437079085089,1163836.0,-0.007910000160336494,0.006949999835342169,-0.0017300000181421638,0.19179999828338623
6481.438078857304,1163837.0,-0.009340000338852406,0.010040000081062317,-0.006630000192672014,0.19221000373363495
6481.43907862952,1163838.0,-0.014109999872744083,0.005950000137090683,-0.003590000094845891,0.1892399936914444
6481.440078401734,1163839.0,-0.02273000031709671,0.007309999782592058,9.000000136438757e-05,0.18443000316619873
6481.44107817395,1163840.0,-0.03162999823689461,-4.999999873689376e-05,0.0014100000262260437,0.18946999311447144
6481.442077946165,1163841.0,-0.034049998968839645,0.006630000192672014,-0.0012700000079348683,0.18854999542236328
6481.443077718381,1163842.0,-0.025699999183416367,0.00839999970048666,-0.004769999999552965,0.17746999859809875
6481.444077490596,1163843.0,-0.015230000019073486,0.0024500000290572643,-0.0013599999947473407,0.1808599978685379
6481.445077262811,1163844.0,-0.0028800000436604023,-0.00031999999191612005,0.001500000013038516,0.18483999371528625
6481.446077035026,1163845.0,0.00875999964773655,-0.006630000192672014,0.0033599999733269215,0.18268999457359314
6481.4470768072415,1163846.0,0.014820000156760216,0.003590000094845891,-0.003719999920576811,0.18082000315189362
6481.448076579457,1163847.0,0.014109999872744083,-0.002589999930933118,-0.006399999838322401,0.18007999658584595
6481.449076351672,1163848.0,0.006560000125318766,-0.005489999894052744,-0.0006799999973736703,0.1801300048828125
6481.450076123888,1163849.0,-0.004490000195801258,-0.005489999894052744,0.0027199999894946814,0.17238999903202057
6481.451075896102,1163850.0,-0.017880000174045563,-0.0037700000684708357,0.0010000000474974513,0.18122999370098114
6481.452075668318,1163851.0,-0.03172000125050545,-0.009669999592006207,-0.0014100000262260437,0.1710200011730194
6481.453075440533,1163852.0,-0.04097000136971474,-0.002630000002682209,-0.0019099999917671084,0.1792600005865097
6481.454075212749,1163853.0,-0.04487999901175499,-0.0034099998883903027,-0.005489999894052744,0.16936999559402466
6481.455074984964,1163854.0,-0.044199999421834946,-0.0010000000474974513,-0.0045900000259280205,0.17775000631809235
6481.456074757179,1163855.0,-0.04173000156879425,0.001230000052601099,0.0024999999441206455,0.16662999987602234
6481.457074529394,1163856.0,-0.038770001381635666,0.002319999970495701,0.00014000000373926014,0.1698800027370453
6481.4580743016095,1163857.0,-0.03773999959230423,-0.0022299999836832285,0.004269999917596579,0.17496000230312347
6481.459074073825,1163858.0,-0.037289999425411224,-0.0030400000978261232,0.004040000028908253,0.17215999960899353
6481.46007384604,1163859.0,-0.036660000681877136,-0.0011399999493733048,0.00031999999191612005,0.1643799990415573
6481.461073618255,1163860.0,-0.03773999959230423,0.00031999999191612005,-0.002090000081807375,0.16603000462055206
6481.46207339047,1163861.0,-0.039400000125169754,0.010449999943375587,0.00031999999191612005,0.17197999358177185
6481.463073162686,1163862.0,-0.03598000109195709,0.009039999917149544,0.001500000013038516,0.16730999946594238
6481.464072934901,1163863.0,-0.029829999431967735,0.008489999920129776,0.0022299999836832285,0.1623699963092804
6481.465072707117,1163864.0,-0.023719999939203262,0.015209999866783619,-0.0007699999841861427,0.16850000619888306
6481.466072479332,1163865.0,-0.02402999997138977,0.013030000030994415,0.0010400000028312206,0.1668500006198883
6481.467072251547,1163866.0,-0.029829999431967735,0.003809999907389283,0.0015399999683722854,0.15839000046253204
6481.468072023762,1163867.0,-0.0364300012588501,-0.005489999894052744,-0.0005000000237487257,0.16187000274658203
6481.4690717959775,1163868.0,-0.04569000005722046,-0.006719999946653843,-0.004220000002533197,0.16419999301433563
6481.470071568193,1163869.0,-0.0557899996638298,-0.008310000412166119,-0.0036800000816583633,0.1548600047826767
6481.471071340408,1163870.0,-0.06486999988555908,-0.00418000016361475,-0.004040000028908253,0.15724000334739685
6481.472071112623,1163871.0,-0.07259999960660934,-0.01257999986410141,-0.000590000010561198,0.16350999474525452
6481.473070884838,1163872.0,-0.0762299969792366,-0.008129999972879887,0.0034099998883903027,0.15994000434875488
6481.474070657054,1163873.0,-0.07547000050544739,-0.006990000139921904,0.003909999970346689,0.15449999272823334
6481.475070429269,1163874.0,-0.07321999967098236,-0.0009500000160187483,0.00031999999191612005,0.16181999444961548
6481.476070201485,1163875.0,-0.07044000178575516,0.006089999806135893,-0.0033599999733269215,0.15056000649929047
6481.4770699737,1163876.0,-0.06869000196456909,0.0010400000028312206,-0.0002699999895412475,0.1555899977684021
6481.478069745915,1163877.0,-0.07071000337600708,0.0045900000259280205,0.0033599999733269215,0.15756000578403473
6481.47906951813,1163878.0,-0.07152000069618225,0.006130000110715628,0.001230000052601099,0.14972999691963196
6481.480069290345,1163879.0,-0.07470999658107758,0.003220000071451068,-0.0010000000474974513,0.1565999984741211
6481.481069062561,1163880.0,-0.07780999690294266,0.004629999864846468,-0.004269999917596579,0.14972999691963196
6481.482068834776,1163881.0,-0.07887999713420868,-0.0002699999895412475,-0.001230000052601099,0.1550000011920929
6481.483068606991,1163882.0,-0.0748400017619133,0.003719999920576811,0.00031999999191612005,0.14794999361038208
6481.484068379206,1163883.0,-0.06577000021934509,0.006130000110715628,-0.0024999999441206455,0.1541299968957901
6481.485068151422,1163884.0,-0.055879998952150345,0.003719999920576811,-0.0011399999493733048,0.1467999964952469
6481.486067923637,1163885.0,-0.05067000165581703,0.006130000110715628,0.0002699999895412475,0.1525299996137619
6481.487067695853,1163886.0,-0.05319000035524368,0.016669999808073044,0.000910000002477318,0.14478999376296997
6481.488067468068,1163887.0,-0.060419999063014984,0.010850000195205212,-0.001180000021122396,0.15174999833106995
6481.489067240283,1163888.0,-0.06981000304222107,0.00014000000373926014,0.00031999999191612005,0.1441500037908554
6481.490067012498,1163889.0,-0.0826599970459938,-0.0036800000816583633,-0.0022299999836832285,0.15033000707626343
6481.491066784713,1163890.0,-0.09492000192403793,-0.006680000107735395,-0.00535999983549118,0.1418199986219406
6481.492066556929,1163891.0,-0.10430999845266342,-0.011900000274181366,-0.0027699999045580626,0.14826999604701996
6481.493066329144,1163892.0,-0.11068999767303467,-0.021209999918937683,0.003220000071451068,0.14203999936580658
6481.494066101359,1163893.0,-0.11473000049591064,-0.02311999909579754,-0.00018000000272877514,0.1391099989414215
6481.495065873574,1163894.0,-0.11788000166416168,-0.02906000055372715,0.006130000110715628,0.1451600044965744
6481.49606564579,1163895.0,-0.11931999772787094,-0.014800000004470348,-0.0003600000054575503,0.1378300040960312
6481.497065418005,1163896.0,-0.11706999689340591,0.007579999975860119,0.0022700000554323196,0.1466200053691864
6481.498065190221,1163897.0,-0.11428000032901764,0.009309999644756317,0.005630000028759241,0.13801999390125275
6481.499064962435,1163898.0,-0.11321000009775162,0.011939999647438526,0.0027199999894946814,0.1456100046634674
6481.500064734651,1163899.0,-0.11333999782800674,0.019120000302791595,-0.002859999891370535,0.14332999289035797
6481.501064506866,1163900.0,-0.11285000294446945,0.009399999864399433,-0.002090000081807375,0.14080999791622162
6481.502064279081,1163901.0,-0.11168000102043152,0.00875999964773655,-0.004860000219196081,0.13508999347686768
6481.503064051297,1163902.0,-0.10548000037670135,0.01844000071287155,-0.007720000110566616,0.13654999434947968
6481.504063823512,1163903.0,-0.09523999691009521,0.013399999588727951,-0.0033599999733269215,0.13985000550746918
6481.505063595727,1163904.0,-0.08481000363826752,0.012489999644458294,-0.0031799999997019768,0.14061999320983887
6481.506063367942,1163905.0,-0.07910999655723572,0.0129399998113513,0.0019499999471008778,0.13393999636173248
6481.507063140158,1163906.0,-0.07906000316143036,0.011309999972581863,0.00031999999191612005,0.14094999432563782
6481.508062912373,1163907.0,-0.08324000239372253,0.00031999999191612005,-0.0013599999947473407,0.1372399926185608
6481.509062684589,1163908.0,-0.09119000285863876,-0.0059899999760091305,-0.0027699999045580626,0.13344000279903412
6481.510062456803,1163909.0,-0.09900999814271927,-0.007360000163316727,-0.0025400000158697367,0.13947999477386475
6481.5110622290185,1163910.0,-0.10548000037670135,-0.015490000136196613,0.00031999999191612005,0.1304599940776825
6481.512062001234,1163911.0,-0.11082000285387039,-0.013489999808371067,0.0030400000978261232,0.13384999334812164
6481.513061773449,1163912.0,-0.11640000343322754,-0.007449999917298555,-0.0015899999998509884,0.13646000623703003
6481.514061545665,1163913.0,-0.11948999762535095,-0.010759999975562096,-0.0010000000474974513,0.13032999634742737
6481.51506131788,1163914.0,-0.12093000113964081,0.000859999970998615,-0.000910000002477318,0.1370999962091446
6481.516061090095,1163915.0,-0.11931999772787094,0.004679999779909849,0.004720000084489584,0.13379999995231628
6481.51706086231,1163916.0,-0.11698000133037567,-0.008129999972879887,0.001180000021122396,0.12793999910354614
6481.518060634526,1163917.0,-0.11248999834060669,0.00031999999191612005,-0.0011399999493733048,0.13508999347686768
6481.519060406741,1163918.0,-0.10920999944210052,0.008129999972879887,-0.004040000028908253,0.12575000524520874
6481.520060178957,1163919.0,-0.10777000337839127,0.0024999999441206455,-0.002589999930933118,0.12922999262809753
6481.521059951171,1163920.0,-0.1074099987745285,-0.0010000000474974513,-0.0002300000051036477,0.13283999264240265
6481.5220597233865,1163921.0,-0.1040399968624115,-0.001820000004954636,-0.005489999894052744,0.12511000037193298
6481.523059495602,1163922.0,-0.09810999780893326,0.00031999999191612005,-0.0016299999551847577,0.12621000409126282
6481.524059267817,1163923.0,-0.09375,0.0031300000846385956,0.001769999973475933,0.13106000423431396
6481.525059040033,1163924.0,-0.08975999802350998,0.005400000140070915,0.0030900000128895044,0.12336999922990799
6481.526058812247,1163925.0,-0.08760000020265579,0.005770000163465738,0.0024500000290572643,0.125560000538826
6481.527058584463,1163926.0,-0.0869700014591217,0.007579999975860119,0.0002699999895412475,0.13120000064373016
6481.528058356678,1163927.0,-0.08660999685525894,0.003909999970346689,-0.005270000081509352,0.1288599967956543
6481.529058128894,1163928.0,-0.09168999642133713,0.0037700000684708357,-0.002950000111013651,0.12116999924182892
6481.530057901109,1163929.0,-0.09743999689817429,-0.0064500002190470695,0.0045900000259280205,0.121629998087883
6481.5310576733245,1163930.0,-0.10283000022172928,0.006130000110715628,-0.0011399999493733048,0.12364000082015991
6481.532057445539,1163931.0,-0.10638000071048737,0.003539999946951866,-0.004449999891221523,0.12876999378204346
6481.5330572177545,1163932.0,-0.1071000024676323,-0.000859999970998615,-0.001820000004954636,0.12263000011444092
6481.53405698997,1163933.0,-0.1054299995303154,-0.009580000303685665,-0.0014100000262260437,0.12043999880552292
6481.535056762185,1163934.0,-0.10183999687433243,-0.0031799999997019768,-0.0019499999471008778,0.12657000124454498
6481.536056534401,1163935.0,-0.09955000132322311,-0.005489999894052744,-0.00267999991774559,0.1253799945116043
6481.537056306615,1163936.0,-0.0982000008225441,-0.005539999809116125,0.004310000222176313,0.11750999838113785
6481.538056078831,1163937.0,-0.09802000224590302,-0.00749000022187829,0.0045900000259280205,0.11750999838113785
6481.539055851046,1163938.0,-0.0986500009894371,-4.999999873689376e-05,0.003220000071451068,0.12043999880552292
6481.540055623262,1163939.0,-0.09775000065565109,0.004310000222176313,-0.00018000000272877514,0.12424000352621078
6481.541055395477,1163940.0,-0.09792999923229218,0.004679999779909849,0.0015899999998509884,0.12134999781847
6481.5420551676925,1163941.0,-0.09487999975681305,0.011939999647438526,0.000859999970998615,0.11654999852180481
6481.543054939907,1163942.0,-0.08817999809980392,0.005679999943822622,-0.000539999979082495,0.12043999880552292
6481.5440547121225,1163943.0,-0.07884000241756439,0.013439999893307686,-0.004040000028908253,0.122359998524189
6481.545054484338,1163944.0,-0.07169999927282333,0.014670000411570072,0.00031999999191612005,0.11494000256061554
6481.546054256553,1163945.0,-0.06541000306606293,0.010130000300705433,0.0,0.11818999797105789
6481.547054028769,1163946.0,-0.06306999921798706,0.004310000222176313,-0.004000000189989805,0.12116999924182892
6481.548053800983,1163947.0,-0.06235000118613243,-0.003539999946951866,0.00031999999191612005,0.11315999925136566
6481.549053573199,1163948.0,-0.06774000078439713,-0.00749000022187829,-0.001820000004954636,0.11429999768733978
6481.550053345414,1163949.0,-0.07601000368595123,-0.007449999917298555,-0.0005000000237487257,0.1200300008058548
6481.55105311763,1163950.0,-0.08332999795675278,-0.0028200000524520874,-0.000539999979082495,0.12011999636888504
6481.552052889845,1163951.0,-0.09015999734401703,-0.010040000081062317,0.003949999809265137,0.1126599982380867
6481.5530526620605,1163952.0,-0.09452000260353088,-0.00839999970048666,-9.000000136438757e-05,0.11580999940633774
6481.554052434275,1163953.0,-0.09515000134706497,-0.001230000052601099,0.00031999999191612005,0.11851999908685684
6481.5550522064905,1163954.0,-0.09550999850034714,-0.002950000111013651,0.00031999999191612005,0.1116499975323677
6481.556051978706,1163955.0,-0.09523999691009521,0.0021299999207258224,-0.0027199999894946814,0.11750999838113785
6481.557051750921,1163956.0,-0.09213999658823013,0.0,0.002409999957308173,0.11750999838113785
6481.558051523137,1163957.0,-0.0895799994468689,0.006130000110715628,0.005539999809116125,0.11118999868631363
6481.559051295351,1163958.0,-0.08449999988079071,0.00031999999191612005,0.0021299999207258224,0.11595000326633453
6481.560051067567,1163959.0,-0.07924000173807144,0.00018000000272877514,-0.003909999970346689,0.11672999709844589
6481.561050839782,1163960.0,-0.07709000259637833,0.0028200000524520874,-0.004089999943971634,0.11078000068664551
6481.562050611998,1163961.0,-0.07511000335216522,-0.001230000052601099,-0.0036800000816583633,0.11626999825239182
6481.563050384213,1163962.0,-0.07026000320911407,0.005679999943822622,-0.0016299999551847577,0.11682000011205673
6481.564050156428,1163963.0,-0.06253000348806381,0.0016799999866634607,-0.0019099999917671084,0.1092199981212616
6481.565049928643,1163964.0,-0.05341000109910965,0.004000000189989805,0.003909999970346689,0.1131099984049797
6481.5660497008585,1163965.0,-0.04797999933362007,0.00031999999191612005,0.0030400000978261232,0.11568000167608261
6481.567049473074,1163966.0,-0.04698999971151352,-0.0019499999471008778,0.00031999999191612005,0.10909000039100647
6481.568049245289,1163967.0,-0.0516199991106987,-0.0027699999045580626,-0.0007300000288523734,0.11664000153541565
6481.569049017505,1163968.0,-0.05934000015258789,-0.0033599999733269215,-0.002630000002682209,0.11406999826431274
6481.570048789719,1163969.0,-0.06774000078439713,-0.0033599999733269215,0.0016799999866634607,0.10871999710798264
6481.571048561935,1163970.0,-0.07259999960660934,0.0008200000156648457,-0.0021800000686198473,0.1131099984049797
6481.57204833415,1163971.0,-0.07402999699115753,-0.0011399999493733048,-0.004220000002533197,0.11530999839305878
6481.573048106366,1163972.0,-0.07474999874830246,0.007400000002235174,-0.000539999979082495,0.10798999667167664
6481.574047878581,1163973.0,-0.07224000245332718,0.0013599999947473407,0.0030900000128895044,0.10954000055789948
6481.575047650796,1163974.0,-0.06586000323295593,0.004679999779909849,0.0012700000079348683,0.11545000225305557
6481.576047423011,1163975.0,-0.05773000046610832,-0.00044999999227002263,0.002319999970495701,0.10802999883890152
6481.577047195226,1163976.0,-0.050039999186992645,0.003220000071451068,-0.000590000010561198,0.10853999853134155
6481.578046967442,1163977.0,-0.04388999938964844,-0.0022299999836832285,-0.0009500000160187483,0.11017999798059464
6481.579046739657,1163978.0,-0.03683999925851822,-0.011850000359117985,-0.005090000107884407,0.11530999839305878
6481.580046511873,1163979.0,-0.03413999825716019,-0.011350000277161598,-0.0011399999493733048,0.10693000257015228
6481.581046284087,1163980.0,-0.03612000122666359,-0.003860000055283308,0.004220000002533197,0.10830999910831451
6481.582046056303,1163981.0,-0.03711000084877014,0.005400000140070915,0.003590000094845891,0.11540000140666962
6481.583045828518,1163982.0,-0.035760000348091125,0.013899999670684338,-0.00041000000783242285,0.11275000125169754
6481.584045600734,1163983.0,-0.03099999949336052,0.011529999785125256,-0.000859999970998615,0.10807999968528748
6481.585045372949,1163984.0,-0.026319999247789383,0.005770000163465738,-0.0014100000262260437,0.11613000184297562
6481.586045145164,1163985.0,-0.02305000089108944,0.0044999998062849045,0.0037700000684708357,0.10779999941587448
6481.587044917379,1163986.0,-0.023000000044703484,0.00031999999191612005,0.004679999779909849,0.11032000184059143
6481.588044689594,1163987.0,-0.0258799996227026,-0.004410000052303076,-0.0007300000288523734,0.1142600029706955
6481.58904446181,1163988.0,-0.03130999952554703,-0.00494999997317791,-0.0051299999468028545,0.10812000185251236
6481.590044234025,1163989.0,-0.03809000179171562,-0.003220000071451068,-0.0045900000259280205,0.11507999897003174
6481.59104400624,1163990.0,-0.04438000172376633,-0.007269999943673611,-0.003000000026077032,0.10843999683856964
6481.592043778455,1163991.0,-0.04780000075697899,-0.014349999837577343,0.0010900000343099236,0.11210999637842178
6481.593043550671,1163992.0,-0.04958999902009964,-0.012129999697208405,0.003220000071451068,0.11507999897003174
6481.594043322886,1163993.0,-0.04887999966740608,-0.0006399999838322401,-0.002950000111013651,0.10798999667167664
6481.595043095102,1163994.0,-0.04797999933362007,0.0010400000028312206,0.007540000136941671,0.11014000326395035
6481.596042867317,1163995.0,-0.048969998955726624,0.006490000057965517,0.00267999991774559,0.11591000109910965
6481.5970426395315,1163996.0,-0.04851999878883362,0.011939999647438526,0.0016799999866634607,0.11343000084161758
6481.598042411747,1163997.0,-0.04698999971151352,0.0129399998113513,0.0019099999917671084,0.10903999954462051
6481.599042183962,1163998.0,-0.043310001492500305,0.008899999782443047,0.003539999946951866,0.11591000109910965
6481.600041956178,1163999.0,-0.03943999856710434,0.011579999700188637,0.000859999970998615,0.10909000039100647
6481.601041728393,1164000.0,-0.037060000002384186,0.005590000189840794,-0.0036800000816583633,0.11691000312566757
6481.602041500608,1164001.0,-0.03378000110387802,0.005590000189840794,-0.0033199999015778303,0.10858000069856644
6481.603041272823,1164002.0,-0.026009999215602875,0.008580000139772892,0.001769999973475933,0.11677999794483185
6481.604041045039,1164003.0,-0.01931999996304512,0.006130000110715628,0.00203999993391335,0.10903999954462051
6481.605040817254,1164004.0,-0.014550000429153442,0.00031999999191612005,0.005489999894052744,0.1139800027012825
6481.60604058947,1164005.0,-0.012040000408887863,-0.005489999894052744,-0.0013200000394135714,0.1143999993801117
6481.607040361685,1164006.0,-0.012260000221431255,-0.00798999983817339,0.00031999999191612005,0.11234000325202942
6481.6080401338995,1164007.0,-0.014639999717473984,-0.004809999838471413,-0.004000000189989805,0.1151299998164177
6481.609039906115,1164008.0,-0.020349999889731407,-0.004540000110864639,-0.0037700000684708357,0.11159999668598175
6481.61003967833,1164009.0,-0.030910000205039978,-0.0063599999994039536,-0.00494999997317791,0.11494000256061554
6481.611039450546,1164010.0,-0.040070001035928726,-0.00839999970048666,0.004410000052303076,0.11379999667406082
6481.612039222761,1164011.0,-0.04667000100016594,-0.006630000192672014,0.0031799999997019768,0.11608999967575073
6481.613038994976,1164012.0,-0.05067000165581703,-0.00839999970048666,-0.0021299999207258224,0.11298000067472458
6481.614038767191,1164013.0,-0.050939999520778656,-0.002589999930933118,-0.0017300000181421638,0.11603999882936478
6481.615038539407,1164014.0,-0.048920001834630966,0.0014100000262260437,-0.003000000026077032,0.11270000040531158
6481.616038311622,1164015.0,-0.046810001134872437,0.002859999891370535,-0.0007699999841861427,0.11668000370264053
6481.6170380838375,1164016.0,-0.04447000101208687,0.0021299999207258224,0.0027699999045580626,0.11361999809741974
6481.618037856053,1164017.0,-0.042410001158714294,4.999999873689376e-05,0.0010000000474974513,0.11704999953508377
6481.6190376282675,1164018.0,-0.0413299985229969,-0.006180000025779009,0.001769999973475933,0.11348000168800354
6481.620037400483,1164019.0,-0.04016000032424927,-0.005679999943822622,-0.0011399999493733048,0.11750999838113785
6481.621037172698,1164020.0,-0.03880999982357025,-0.0033199999015778303,-0.0022299999836832285,0.11191999912261963
6481.622036944914,1164021.0,-0.03629999980330467,0.0021299999207258224,-0.0013200000394135714,0.11896999925374985
6481.623036717129,1164022.0,-0.030319999903440475,0.007579999975860119,0.0033599999733269215,0.11260999739170074
6481.624036489344,1164023.0,-0.024080000817775726,0.011169999837875366,0.00686000008136034,0.12043999880552292
6481.625036261559,1164024.0,-0.01769999973475933,0.010490000247955322,0.0020000000949949026,0.11283999681472778
6481.626036033775,1164025.0,-0.015449999831616879,0.015119999647140503,0.001180000021122396,0.11548999696969986
6481.62703580599,1164026.0,-0.017430000007152557,0.013489999808371067,-0.002319999970495701,0.11924999952316284
6481.6280355782055,1164027.0,-0.023269999772310257,0.008310000412166119,-0.0027699999045580626,0.11421000212430954
6481.62903535042,1164028.0,-0.030910000205039978,0.00031999999191612005,-0.0009500000160187483,0.12080000340938568
6481.6300351226355,1164029.0,-0.03751000016927719,-0.00839999970048666,-0.006310000084340572,0.11906000226736069
6481.631034894851,1164030.0,-0.04253999888896942,-0.012079999782145023,-0.004860000219196081,0.11623000353574753
6481.632034667066,1164031.0,-0.04546000063419342,-0.01331000030040741,0.0019099999917671084,0.11929000169038773
6481.633034439282,1164032.0,-0.05057999864220619,-0.008630000054836273,0.0035000001080334187,0.11494000256061554
6481.634034211497,1164033.0,-0.05390999838709831,-0.0013200000394135714,0.0030900000128895044,0.12111999839544296
6481.635033983712,1164034.0,-0.05521000176668167,-4.999999873689376e-05,0.00031999999191612005,0.12030000239610672
6481.636033755927,1164035.0,-0.05282999947667122,-0.004769999999552965,0.0011399999493733048,0.1142600029706955
6481.637033528143,1164036.0,-0.052650000900030136,0.0013200000394135714,-0.006089999806135893,0.12056999653577805
6481.638033300358,1164037.0,-0.05372999981045723,0.00795000046491623,-0.0033199999015778303,0.12103000283241272
6481.6390330725735,1164038.0,-0.05741000175476074,0.004679999779909849,0.004449999891221523,0.11507999897003174
6481.640032844788,1164039.0,-0.06100999936461449,0.005590000189840794,0.003909999970346689,0.12025000154972076
6481.6410326170035,1164040.0,-0.06522999703884125,0.00953999999910593,0.004089999943971634,0.12131000310182571
6481.642032389219,1164041.0,-0.07116000354290009,0.0035000001080334187,-0.0022299999836832285,0.11591000109910965
6481.643032161434,1164042.0,-0.07627999782562256,0.001500000013038516,-0.0030400000978261232,0.12020999938249588
6481.64403193365,1164043.0,-0.08247999846935272,0.007269999943673611,0.004089999943971634,0.12240999937057495
6481.645031705865,1164044.0,-0.08669999986886978,0.00203999993391335,0.003220000071451068,0.11603999882936478
6481.64603147808,1164045.0,-0.0923599973320961,-0.00203999993391335,0.002859999891370535,0.11750999838113785
6481.647031250295,1164046.0,-0.10130000114440918,-0.002090000081807375,-0.0014100000262260437,0.1239200010895729
6481.648031022511,1164047.0,-0.1133899986743927,0.002319999970495701,-0.006769999861717224,0.11603999882936478
6481.649030794726,1164048.0,-0.12848000228405,0.01370999962091446,-0.005270000081509352,0.11691000312566757
6481.6500305669415,1164049.0,-0.1487800031900406,0.0045900000259280205,0.001769999973475933,0.125560000538826
6481.651030339156,1164050.0,-0.16944999992847443,-0.0025400000158697367,0.001769999973475933,0.12281999737024307
6481.6520301113715,1164051.0,-0.18570999801158905,-0.005859999917447567,0.001500000013038516,0.11851999908685684
6481.653029883587,1164052.0,-0.19865000247955322,-0.005590000189840794,-0.005590000189840794,0.12501999735832214
6481.654029655802,1164053.0,-0.20588000118732452,-0.0062699997797608376,-0.004040000028908253,0.12427999824285507
6481.655029428018,1164054.0,-0.20880000293254852,-0.006949999835342169,0.00014000000373926014,0.11841999739408493
6481.656029200232,1164055.0,-0.20906999707221985,-0.004269999917596579,-0.001449999981559813,0.12630000710487366
6481.657028972448,1164056.0,-0.20611000061035156,-0.0012700000079348683,0.0031799999997019768,0.12400999665260315
6481.658028744663,1164057.0,-0.19765999913215637,-0.004809999838471413,0.004629999864846468,0.11906000226736069
6481.659028516879,1164058.0,-0.1845400035381317,-0.0011399999493733048,0.00014000000373926014,0.12336999922990799
6481.660028289094,1164059.0,-0.16854999959468842,-0.003539999946951866,-0.0007300000288523734,0.1261100023984909
6481.6610280613095,1164060.0,-0.15453000366687775,-0.004540000110864639,0.0036299999337643385,0.11879000067710876
6481.662027833524,1164061.0,-0.13880999386310577,0.003949999809265137,0.0002699999895412475,0.12177000194787979
6481.663027605739,1164062.0,-0.11778999865055084,0.014759999699890614,0.007400000002235174,0.12775999307632446
6481.664027377955,1164063.0,-0.09227000176906586,0.02493000030517578,0.0007300000288523734,0.1253799945116043
6481.66502715017,1164064.0,-0.06518000364303589,0.019029999151825905,0.0018599999602884054,0.12111999839544296
6481.666026922386,1164065.0,-0.03773999959230423,0.006130000110715628,-0.006219999864697456,0.12839999794960022
6481.6670266946,1164066.0,-0.015049999579787254,0.0021299999207258224,-0.0006399999838322401,0.12721000611782074
6481.668026466816,1164067.0,0.00925000011920929,0.0029100000392645597,-0.00014000000373926014,0.12035000324249268
6481.669026239031,1164068.0,0.034049998968839645,0.00686000008136034,-0.0027699999045580626,0.12189999967813492
6481.670026011247,1164069.0,0.06109999865293503,0.00494999997317791,0.001769999973475933,0.1295499950647354
6481.671025783462,1164070.0,0.09074000269174576,-0.0036800000816583633,0.005179999861866236,0.12592999637126923
6481.6720255556775,1164071.0,0.123989999294281,-0.004900000058114529,0.001230000052601099,0.12227000296115875
6481.673025327892,1164072.0,0.15647000074386597,-0.001820000004954636,-0.0018599999602884054,0.12931999564170837
6481.674025100107,1164073.0,0.18939000368118286,-0.0033599999733269215,-0.0006399999838322401,0.12122000008821487
6481.675024872323,1164074.0,0.214819997549057,-0.0062699997797608376,0.003949999809265137,0.12227000296115875
6481.676024644538,1164075.0,0.22856999933719635,-0.013439999893307686,0.00031999999191612005,0.12977999448776245
6481.677024416754,1164076.0,0.23849999904632568,-0.019659999758005142,-0.0033599999733269215,0.12208999693393707
6481.678024188968,1164077.0,0.24936999380588531,-0.016759999096393585,-0.002630000002682209,0.1239200010895729
6481.679023961184,1164078.0,0.26252999901771545,-0.0009500000160187483,-0.0018599999602884054,0.1304599940776825
6481.680023733399,1164079.0,0.2807700037956238,0.006899999920278788,0.00014000000373926014,0.12336999922990799
6481.681023505615,1164080.0,0.2973000109195709,0.008310000412166119,9.000000136438757e-05,0.12922999262809753
6481.68202327783,1164081.0,0.30897998809814453,0.008310000412166119,-0.00686000008136034,0.1307400017976761
6481.683023050045,1164082.0,0.31891000270843506,0.005040000192821026,-0.0027199999894946814,0.12331999838352203
6481.68402282226,1164083.0,0.3288399875164032,0.006130000110715628,-0.003590000094845891,0.12922999262809753
6481.685022594475,1164084.0,0.3361999988555908,0.0015399999683722854,-0.005900000222027302,0.1321599930524826
6481.686022366691,1164085.0,0.33610999584198,-0.0007699999841861427,-0.004410000052303076,0.12460000067949295
6481.687022138906,1164086.0,0.32232001423835754,0.00018000000272877514,-0.004449999891221523,0.12592999637126923
6481.688021911122,1164087.0,0.3022400140762329,-0.002090000081807375,-0.004629999864846468,0.12849000096321106
6481.689021683336,1164088.0,0.28049999475479126,-0.004040000028908253,-0.0024999999441206455,0.1339000016450882
6481.690021455552,1164089.0,0.26388001441955566,-0.0033599999733269215,-0.004900000058114529,0.1328900009393692
6481.691021227767,1164090.0,0.24995000660419464,-0.006719999946653843,-0.003949999809265137,0.125560000538826
6481.692020999983,1164091.0,0.23781999945640564,-0.0006799999973736703,-0.00041000000783242285,0.1278499960899353
6481.693020772198,1164092.0,0.2237599939107895,0.0031300000846385956,-0.0036299999337643385,0.13247999548912048
6481.6940205444125,1164093.0,0.21616999804973602,0.0027699999045580626,0.0010000000474974513,0.13508999347686768
6481.695020316628,1164094.0,0.2172500044107437,0.002859999891370535,0.0015399999683722854,0.13399000465869904
6481.696020088843,1164095.0,0.21599000692367554,0.005900000222027302,-0.0011399999493733048,0.12790000438690186
6481.697019861059,1164096.0,0.20337000489234924,0.0027699999045580626,0.002360000042244792,0.13106000423431396
6481.698019633274,1164097.0,0.18310999870300293,0.0031300000846385956,-0.0022299999836832285,0.13617999851703644
6481.69901940549,1164098.0,0.16293999552726746,0.00031999999191612005,-0.003860000055283308,0.12771999835968018
6481.700019177704,1164099.0,0.14267000555992126,0.0020000000949949026,-0.00267999991774559,0.13123999536037445
6481.70101894992,1164100.0,0.12281999737024307,-9.000000136438757e-05,0.0022700000554323196,0.1365099996328354
6481.702018722135,1164101.0,0.10035999864339828,0.001769999973475933,0.003949999809265137,0.12917999923229218
6481.7030184943505,1164102.0,0.07987000048160553,0.001449999981559813,0.002589999930933118,0.13197000324726105
6481.704018266566,1164103.0,0.061769999563694,0.003590000094845891,0.0018599999602884054,0.1376499980688095
6481.7050180387805,1164104.0,0.04631999880075455,4.999999873689376e-05,-0.0021800000686198473,0.12922999262809753
6481.706017810996,1164105.0,0.0325700007379055,-0.003449999960139394,-0.0037700000684708357,0.13142000138759613
6481.707017583211,1164106.0,0.018729999661445618,-0.003860000055283308,-0.002589999930933118,0.1392499953508377
6481.708017355427,1164107.0,0.005570000037550926,-0.0008200000156648457,0.0002300000051036477,0.13660000264644623
6481.709017127642,1164108.0,-0.008179999887943268,-0.00494999997317791,-0.000859999970998615,0.13142000138759613
6481.710016899858,1164109.0,-0.022369999438524246,-0.003949999809265137,-0.0015899999998509884,0.1394300013780594
6481.711016672072,1164110.0,-0.03598000109195709,-0.00749000022187829,-0.002409999957308173,0.13686999678611755
6481.712016444288,1164111.0,-0.04771000146865845,-0.0003600000054575503,-0.003449999960139394,0.13192999362945557
6481.713016216503,1164112.0,-0.05674000084400177,0.0031799999997019768,9.000000136438757e-05,0.1375100016593933
6481.7140159887185,1164113.0,-0.05996999889612198,0.005950000137090683,0.0027699999045580626,0.13846999406814575
6481.715015760934,1164114.0,-0.060830000787973404,0.009759999811649323,0.0030900000128895044,0.13106000423431396
6481.7160155331485,1164115.0,-0.0631600022315979,0.009759999811649323,0.003449999960139394,0.13412000238895416
6481.717015305364,1164116.0,-0.06491000205278397,-0.000590000010561198,0.002630000002682209,0.13956999778747559
6481.718015077579,1164117.0,-0.06896000355482101,0.0002300000051036477,-0.000590000010561198,0.13106000423431396
6481.719014849795,1164118.0,-0.07232999801635742,0.004900000058114529,-0.003860000055283308,0.1334799975156784
6481.72001462201,1164119.0,-0.07412000000476837,0.003449999960139394,-0.0036800000816583633,0.14030000567436218
6481.721014394225,1164120.0,-0.0768200010061264,-0.007309999782592058,-0.0019099999917671084,0.13985000550746918
6481.72201416644,1164121.0,-0.07767000049352646,-0.000859999970998615,-0.0051299999468028545,0.13165000081062317
6481.723013938656,1164122.0,-0.07381000369787216,0.004679999779909849,0.00031999999191612005,0.1344899982213974
6481.724013710871,1164123.0,-0.06676000356674194,0.005770000163465738,0.006130000110715628,0.14090000092983246
6481.7250134830865,1164124.0,-0.05861999839544296,0.003860000055283308,0.0044999998062849045,0.13247999548912048
6481.726013255302,1164125.0,-0.05480999872088432,0.003220000071451068,0.004720000084489584,0.13508999347686768
6481.7270130275165,1164126.0,-0.056060001254081726,-0.0036800000816583633,-0.000539999979082495,0.14135999977588654
6481.728012799732,1164127.0,-0.06136000156402588,0.00031999999191612005,-0.005810000002384186,0.13298000395298004
6481.729012571947,1164128.0,-0.06827999651432037,0.0035000001080334187,-0.0052200001664459705,0.13357999920845032
6481.730012344163,1164129.0,-0.07492999732494354,0.003220000071451068,-0.00044999999227002263,0.14223000407218933
6481.731012116378,1164130.0,-0.08122000098228455,-0.000859999970998615,-4.999999873689376e-05,0.13979999721050262
6481.732011888593,1164131.0,-0.08567000180482864,-0.0021800000686198473,0.00031999999191612005,0.13508999347686768
6481.733011660808,1164132.0,-0.09217999875545502,-0.010400000028312206,0.002319999970495701,0.14203999936580658
6481.734011433024,1164133.0,-0.09578000009059906,-0.00839999970048666,0.0015899999998509884,0.13962000608444214
6481.735011205239,1164134.0,-0.09932000190019608,-0.005489999894052744,-0.003539999946951866,0.13508999347686768
6481.7360109774545,1164135.0,-0.10232999920845032,0.00031999999191612005,-0.0015899999998509884,0.14232000708580017
6481.73701074967,1164136.0,-0.10665000230073929,0.003220000071451068,-0.0027699999045580626,0.14048999547958374
6481.7380105218845,1164137.0,-0.11020000278949738,-0.001769999973475933,0.003220000071451068,0.13576999306678772
6481.7390102941,1164138.0,-0.11258000135421753,-0.0029100000392645597,0.006130000110715628,0.14154000580310822
6481.740010066315,1164139.0,-0.11258000135421753,0.002859999891370535,-0.0007699999841861427,0.14094999432563782
6481.741009838531,1164140.0,-0.11123000085353851,0.00031999999191612005,-0.001769999973475933,0.13490000367164612
6481.742009610746,1164141.0,-0.10888999700546265,0.00031999999191612005,0.003949999809265137,0.1365099996328354
6481.743009382961,1164142.0,-0.1044899970293045,0.0037700000684708357,-0.0025400000158697367,0.14364999532699585
6481.744009155176,1164143.0,-0.09927999973297119,0.004809999838471413,-0.002090000081807375,0.1404000073671341
6481.745008927392,1164144.0,-0.0954200029373169,0.010400000028312206,-0.002950000111013651,0.13686999678611755
6481.746008699607,1164145.0,-0.09470000118017197,0.004629999864846468,-0.002090000081807375,0.14369000494480133
6481.7470084718225,1164146.0,-0.09747999906539917,9.000000136438757e-05,0.002859999891370535,0.14090000092983246
6481.748008244038,1164147.0,-0.10080999881029129,0.008670000359416008,0.0027699999045580626,0.13576999306678772
6481.749008016252,1164148.0,-0.10970000177621841,-0.002589999930933118,0.002589999930933118,0.14406000077724457
6481.750007788468,1164149.0,-0.12093000113964081,-0.004540000110864639,0.00031999999191612005,0.1346299946308136
6481.751007560683,1164150.0,-0.12781000137329102,-0.0028200000524520874,-0.0021299999207258224,0.13933999836444855
6481.752007332899,1164151.0,-0.13064000010490417,-0.007309999782592058,-0.001500000013038516,0.14240999519824982
6481.753007105114,1164152.0,-0.13207000494003296,-0.00418000016361475,0.002319999970495701,0.136230006814003
6481.754006877329,1164153.0,-0.13134999573230743,-0.0016299999551847577,0.00031999999191612005,0.14406000077724457
6481.755006649544,1164154.0,-0.1282999962568283,0.004310000222176313,-0.0011399999493733048,0.13508999347686768
6481.75600642176,1164155.0,-0.12336000055074692,-0.005539999809116125,-0.0022700000554323196,0.13654999434947968
6481.757006193975,1164156.0,-0.11940000206232071,0.00031999999191612005,-0.006219999864697456,0.1438799947500229
6481.7580059661905,1164157.0,-0.11635000258684158,0.016850000247359276,-0.0035000001080334187,0.1408499926328659
6481.759005738405,1164158.0,-0.11473000049591064,0.016259999945759773,0.0014100000262260437,0.13582000136375427
6481.76000551062,1164159.0,-0.11468999832868576,0.00686000008136034,0.004040000028908253,0.14424000680446625
6481.761005282836,1164160.0,-0.11680000275373459,0.005400000140070915,0.004040000028908253,0.1408499926328659
6481.762005055051,1164161.0,-0.11926999688148499,-0.001180000021122396,0.0030900000128895044,0.13654999434947968
6481.763004827267,1164162.0,-0.11720000207424164,0.014310000464320183,-0.005489999894052744,0.14291000366210938
6481.764004599482,1164163.0,-0.11315999925136566,0.006130000110715628,-0.005489999894052744,0.13412000238895416
6481.765004371697,1164164.0,-0.10668999701738358,-0.0015399999683722854,0.001769999973475933,0.13933999836444855
6481.766004143912,1164165.0,-0.099590003490448,-0.004220000002533197,-0.0002300000051036477,0.14094999432563782
6481.767003916128,1164166.0,-0.0943399965763092,-0.012489999644458294,0.0013200000394135714,0.13399000465869904
6481.768003688343,1164167.0,-0.09182000160217285,-0.012489999644458294,-0.004410000052303076,0.1354999989271164
6481.769003460558,1164168.0,-0.09640000015497208,-0.022210000082850456,0.001230000052601099,0.13892999291419983
6481.770003232773,1164169.0,-0.10467000305652618,-0.02483999915421009,0.0035000001080334187,0.14094999432563782
6481.771003004988,1164170.0,-0.11213000118732452,-0.007670000195503235,0.0024999999441206455,0.1339000016450882
6481.772002777204,1164171.0,-0.11563000082969666,0.008899999782443047,-0.0009500000160187483,0.1417199969291687
6481.773002549419,1164172.0,-0.11680000275373459,0.014670000411570072,-0.00041000000783242285,0.13888999819755554
6481.774002321635,1164173.0,-0.1133899986743927,0.015939999371767044,-0.004860000219196081,0.13454000651836395
6481.77500209385,1164174.0,-0.10665000230073929,0.003220000071451068,0.003719999920576811,0.14094999432563782
6481.776001866065,1164175.0,-0.09815999865531921,0.00798999983817339,0.0020000000949949026,0.1375100016593933
6481.77700163828,1164176.0,-0.08912999927997589,0.0072200000286102295,-0.0018599999602884054,0.13220000267028809
6481.778001410496,1164177.0,-0.08297000080347061,0.010130000300705433,-0.002090000081807375,0.1393900066614151
6481.779001182711,1164178.0,-0.07735999673604965,0.004809999838471413,-0.0036800000816583633,0.1304199993610382
6481.780000954926,1164179.0,-0.07179000228643417,0.0006799999973736703,-0.0031300000846385956,0.1336199939250946
6481.781000727141,1164180.0,-0.06954000145196915,-0.004040000028908253,0.00031999999191612005,0.13801999390125275
6481.782000499356,1164181.0,-0.06981000304222107,-0.0044999998062849045,0.0030900000128895044,0.13508999347686768
6481.783000271572,1164182.0,-0.06869000196456909,-0.0013200000394135714,0.0030400000978261232,0.12999999523162842
6481.784000043787,1164183.0,-0.0670199990272522,-9.000000136438757e-05,0.0022700000554323196,0.13631999492645264
6481.784999816003,1164184.0,-0.06729000061750412,0.007269999943673611,0.0010400000028312206,0.1346299946308136
6481.785999588217,1164185.0,-0.06787999719381332,0.011579999700188637,0.0018599999602884054,0.12922999262809753
6481.786999360433,1164186.0,-0.06869000196456909,0.0063599999994039536,-0.004769999999552965,0.13617999851703644
6481.787999132648,1164187.0,-0.07026000320911407,0.00031999999191612005,-0.003000000026077032,0.13298000395298004
6481.788998904864,1164188.0,-0.07349000126123428,-0.001500000013038516,-0.004769999999552965,0.12680000066757202
6481.789998677079,1164189.0,-0.07547000050544739,-0.006130000110715628,-0.002950000111013651,0.13508999347686768
6481.790998449294,1164190.0,-0.07614000141620636,-0.010900000110268593,0.0021299999207258224,0.12589000165462494
6481.791998221509,1164191.0,-0.07762999832630157,-0.010219999589025974,0.00418000016361475,0.1328900009393692
6481.792997993724,1164192.0,-0.08090999722480774,-0.00803999975323677,0.004679999779909849,0.12450999766588211
6481.79399776594,1164193.0,-0.08104000240564346,0.00203999993391335,-0.0007699999841861427,0.1328900009393692
6481.794997538155,1164194.0,-0.0791499987244606,-0.004410000052303076,-0.00044999999227002263,0.1246500015258789
6481.795997310371,1164195.0,-0.07672999799251556,-0.0024500000290572643,-0.0015899999998509884,0.1313299983739853
6481.796997082585,1164196.0,-0.07466000318527222,-0.0018599999602884054,0.00018000000272877514,0.12227000296115875
6481.797996854801,1164197.0,-0.0737600028514862,-0.0008200000156648457,-0.000539999979082495,0.12680000066757202
6481.798996627016,1164198.0,-0.07384999841451645,-0.0006399999838322401,-0.0007699999841861427,0.12043999880552292
6481.7999963992315,1164199.0,-0.07457000017166138,0.00686000008136034,0.004220000002533197,0.1287200003862381
6481.800996171447,1164200.0,-0.0733100026845932,-0.002090000081807375,0.004769999999552965,0.12038999795913696
6481.801995943662,1164201.0,-0.07062000036239624,0.00031999999191612005,0.0025400000158697367,0.12670999765396118
6481.802995715877,1164202.0,-0.06787999719381332,0.006899999920278788,-0.002859999891370535,0.12015999853610992
6481.803995488092,1164203.0,-0.061810001730918884,0.011629999615252018,-0.006219999864697456,0.1252399981021881
6481.804995260308,1164204.0,-0.05381999909877777,0.017389999702572823,-0.0019099999917671084,0.12020999938249588
6481.805995032523,1164205.0,-0.045099999755620956,0.013399999588727951,0.0022700000554323196,0.12331999838352203
6481.806994804739,1164206.0,-0.04033999890089035,0.001769999973475933,0.004860000219196081,0.12172000110149384
6481.807994576953,1164207.0,-0.04033999890089035,0.00031999999191612005,0.00018000000272877514,0.12116999924182892
6481.808994349169,1164208.0,-0.046229999512434006,-0.0027699999045580626,-0.0031300000846385956,0.11947999894618988
6481.809994121384,1164209.0,-0.05651000142097473,-0.012760000303387642,-0.006630000192672014,0.12007000297307968
6481.8109938935995,1164210.0,-0.06752000004053116,-0.012400000356137753,0.00031999999191612005,0.11719000339508057
6481.811993665815,1164211.0,-0.0786999985575676,-0.00267999991774559,-0.0010400000028312206,0.12116999924182892
6481.81299343803,1164212.0,-0.08597999811172485,-0.0030900000128895044,0.00031999999191612005,0.11255999654531479
6481.813993210245,1164213.0,-0.0845400020480156,-0.005489999894052744,0.004310000222176313,0.1123799979686737
6481.81499298246,1164214.0,-0.0811299979686737,-0.003590000094845891,-0.00031999999191612005,0.11924999952316284
6481.815992754676,1164215.0,-0.07672999799251556,0.001180000021122396,0.0030400000978261232,0.11750999838113785
6481.816992526891,1164216.0,-0.07357999682426453,-0.004089999943971634,0.006130000110715628,0.10986000299453735
6481.817992299107,1164217.0,-0.07174000144004822,-0.0036800000816583633,0.00267999991774559,0.11017999798059464
6481.818992071321,1164218.0,-0.06936000287532806,-0.004220000002533197,0.002589999930933118,0.11677999794483185
6481.819991843537,1164219.0,-0.06631000339984894,0.00031999999191612005,-0.00203999993391335,0.11545000225305557
6481.820991615752,1164220.0,-0.06716000288724899,-0.0011399999493733048,0.00031999999191612005,0.10785000026226044
6481.8219913879675,1164221.0,-0.07079999893903732,0.00535999983549118,-0.002859999891370535,0.1074799969792366
6481.822991160183,1164222.0,-0.07017000019550323,0.006539999973028898,-0.002589999930933118,0.11457999795675278
6481.8239909323975,1164223.0,-0.06594999879598618,0.007040000054985285,-0.0035000001080334187,0.11156000196933746
6481.824990704613,1164224.0,-0.06100999936461449,0.0059899999760091305,-0.004269999917596579,0.10628999769687653
6481.825990476828,1164225.0,-0.05984000116586685,0.006769999861717224,-0.005539999809116125,0.10972999781370163
6481.826990249044,1164226.0,-0.061810001730918884,0.0030900000128895044,-0.0036800000816583633,0.11114999651908875
6481.827990021259,1164227.0,-0.06486999988555908,0.006680000107735395,-0.000859999970998615,0.1043199971318245
6481.828989793475,1164228.0,-0.07312999665737152,0.00031999999191612005,-0.000859999970998615,0.1035500019788742
6481.829989565689,1164229.0,-0.08135999739170074,-0.0015399999683722854,-0.000539999979082495,0.10542000085115433
6481.830989337905,1164230.0,-0.09055999666452408,-0.009850000031292439,0.0017300000181421638,0.1092199981212616
6481.83198911012,1164231.0,-0.09982000291347504,-0.007400000002235174,0.003909999970346689,0.10633999854326248
6481.8329888823355,1164232.0,-0.10933999717235565,-0.004679999779909849,0.003590000094845891,0.10138999670743942
6481.833988654551,1164233.0,-0.11307000368833542,-0.0033599999733269215,0.0015399999683722854,0.10390999913215637
6481.834988426765,1164234.0,-0.1098800003528595,0.010449999943375587,-0.001449999981559813,0.10679999738931656
6481.835988198981,1164235.0,-0.1046300008893013,0.012760000303387642,-0.000910000002477318,0.10413999855518341
6481.836987971196,1164236.0,-0.10135000199079514,0.005770000163465738,-0.0031799999997019768,0.09869000315666199
6481.837987743412,1164237.0,-0.1017099991440773,0.007770000025629997,-0.004040000028908253,0.10363999754190445
6481.838987515627,1164238.0,-0.10220000147819519,0.00031999999191612005,0.001230000052601099,0.10409999638795853
6481.839987287843,1164239.0,-0.1017099991440773,-0.012849999591708183,0.002319999970495701,0.09700000286102295
6481.840987060057,1164240.0,-0.09918999671936035,-0.00913000013679266,0.003949999809265137,0.09685999900102615
6481.841986832273,1164241.0,-0.0954200029373169,-0.018300000578165054,0.005270000081509352,0.10062000155448914
6481.842986604488,1164242.0,-0.08562000095844269,-0.020749999210238457,0.0028200000524520874,0.10249000042676926
6481.8439863767035,1164243.0,-0.07649999856948853,-0.01448999997228384,-0.001500000013038516,0.094760000705719
6481.844986148919,1164244.0,-0.06872999668121338,0.008270000107586384,-0.006949999835342169,0.09993000328540802
6481.845985921133,1164245.0,-0.06379000097513199,0.02687999978661537,-0.006899999920278788,0.10029999911785126
6481.846985693349,1164246.0,-0.06216999888420105,0.019750000908970833,-0.001230000052601099,0.0936100035905838
6481.847985465564,1164247.0,-0.06379000097513199,0.01375999953597784,9.000000136438757e-05,0.0936100035905838
6481.84898523778,1164248.0,-0.07152000069618225,0.011900000274181366,0.0036800000816583633,0.09993000328540802
6481.849985009995,1164249.0,-0.08104000240564346,0.003719999920576811,0.0010400000028312206,0.09392999857664108
6481.85098478221,1164250.0,-0.08814000338315964,-0.010579999536275864,-0.001500000013038516,0.09114000201225281
6481.851984554425,1164251.0,-0.09222999960184097,-0.010579999536275864,-0.004129999782890081,0.0993800014257431
6481.852984326641,1164252.0,-0.09550999850034714,-0.005590000189840794,-0.005770000163465738,0.09653999656438828
6481.853984098856,1164253.0,-0.09640000015497208,-0.0021299999207258224,-0.001500000013038516,0.09114000201225281
6481.854983871071,1164254.0,-0.09519000351428986,-0.001769999973475933,-0.0027199999894946814,0.09499000012874603
6481.855983643287,1164255.0,-0.09222999960184097,-0.003809999907389283,-0.0034099998883903027,0.09653999656438828
6481.856983415501,1164256.0,-0.08859000355005264,-0.003000000026077032,0.0021299999207258224,0.08930999785661697
6481.857983187717,1164257.0,-0.08365000039339066,9.000000136438757e-05,0.005309999920427799,0.08821000158786774
6481.858982959932,1164258.0,-0.07861000299453735,0.003590000094845891,0.0010000000474974513,0.09554000198841095
6481.859982732148,1164259.0,-0.07552000135183334,-0.0003600000054575503,-0.00018000000272877514,0.0878399983048439
6481.860982504363,1164260.0,-0.07574000209569931,-0.005539999809116125,0.0010400000028312206,0.0879800021648407
6481.861982276578,1164261.0,-0.07502000033855438,0.005400000140070915,-0.000539999979082495,0.09402000159025192
6481.862982048793,1164262.0,-0.06989999860525131,0.010490000247955322,0.00031999999191612005,0.0871099978685379
6481.863981821009,1164263.0,-0.06261999905109406,0.010759999975562096,-4.999999873689376e-05,0.08698000013828278
6481.864981593224,1164264.0,-0.05277999863028526,0.007579999975860119,-0.001449999981559813,0.09352000057697296
6481.865981365439,1164265.0,-0.046539999544620514,-4.999999873689376e-05,-0.0018599999602884054,0.08583000302314758
6481.866981137655,1164266.0,-0.04295000061392784,0.003590000094845891,-0.005090000107884407,0.08756999671459198
6481.867980909869,1164267.0,-0.04298999905586243,0.00031999999191612005,-0.005489999894052744,0.09223999828100204
6481.868980682085,1164268.0,-0.04569000005722046,-0.008539999835193157,-0.003539999946951866,0.08528000116348267
6481.8699804543,1164269.0,-0.051569998264312744,-0.011850000359117985,0.00031999999191612005,0.09091000258922577
6481.870980226516,1164270.0,-0.05776999890804291,-0.002090000081807375,-0.007770000025629997,0.09091000258922577
6481.871979998731,1164271.0,-0.06276000291109085,-0.002589999930933118,-0.0034099998883903027,0.08455000072717667
6481.872979770946,1164272.0,-0.06446000188589096,0.001769999973475933,-0.005489999894052744,0.08702000230550766
6481.873979543161,1164273.0,-0.06509000062942505,-0.001180000021122396,0.0013200000394135714,0.09023000299930573
6481.874979315377,1164274.0,-0.06339000165462494,-0.00041000000783242285,0.00418000016361475,0.08340000361204147
6481.875979087592,1164275.0,-0.060509998351335526,9.000000136438757e-05,0.005040000192821026,0.08748000115156174
6481.876978859807,1164276.0,-0.05610999837517738,0.002319999970495701,0.004769999999552965,0.08925999701023102
6481.877978632023,1164277.0,-0.05355000123381615,0.0036299999337643385,0.0,0.0823500007390976
6481.878978404237,1164278.0,-0.04977000132203102,0.004809999838471413,0.000910000002477318,0.08780000358819962
6481.879978176453,1164279.0,-0.04977000132203102,0.006130000110715628,0.00031999999191612005,0.08821000158786774
6481.880977948668,1164280.0,-0.0514799989759922,0.010490000247955322,0.0021299999207258224,0.0808899998664856
6481.881977720884,1164281.0,-0.05048999935388565,0.001769999973475933,-0.0002699999895412475,0.08290000259876251
6481.882977493099,1164282.0,-0.04527999833226204,0.0035000001080334187,-0.002319999970495701,0.08683999627828598
6481.883977265314,1164283.0,-0.038270000368356705,0.00494999997317791,9.000000136438757e-05,0.08111999928951263
6481.884977037529,1164284.0,-0.032660000026226044,0.006130000110715628,0.0,0.08601000159978867
6481.8859768097445,1164285.0,-0.027629999443888664,-0.00031999999191612005,-0.0019499999471008778,0.08510000258684158
6481.88697658196,1164286.0,-0.02507000043988228,-0.0036800000816583633,4.999999873689376e-05,0.07970000058412552
6481.887976354175,1164287.0,-0.0258799996227026,-0.007040000054985285,-0.003000000026077032,0.08587999641895294
6481.88897612639,1164288.0,-0.02745000086724758,-0.006399999838322401,-0.0015899999998509884,0.0849199965596199
6481.889975898605,1164289.0,-0.03037000074982643,-0.00803999975323677,-0.0031300000846385956,0.07891999930143356
6481.890975670821,1164290.0,-0.0325700007379055,-0.006949999835342169,-0.0031300000846385956,0.08399999886751175
6481.891975443036,1164291.0,-0.03288000077009201,-0.002589999930933118,-0.005590000189840794,0.08371999859809875
6481.892975215252,1164292.0,-0.03162999823689461,-0.0028200000524520874,-0.003719999920576811,0.07750000059604645
6481.893974987467,1164293.0,-0.02848000079393387,-0.0031300000846385956,0.003719999920576811,0.08015000075101852
6481.894974759682,1164294.0,-0.023719999939203262,-0.005489999894052744,0.005179999861866236,0.08371999859809875
6481.895974531897,1164295.0,-0.0185100007802248,-0.002589999930933118,0.002360000042244792,0.07648999989032745
6481.8969743041125,1164296.0,-0.014109999872744083,0.0024999999441206455,0.00014000000373926014,0.07644999772310257
6481.897974076328,1164297.0,-0.009340000338852406,0.004449999891221523,-0.001500000013038516,0.0832199975848198
6481.898973848543,1164298.0,-0.0033199999015778303,-4.999999873689376e-05,0.0010400000028312206,0.07993000000715256
6481.899973620758,1164299.0,0.003100000089034438,-0.0010400000028312206,-0.000859999970998615,0.07462000101804733
6481.900973392973,1164300.0,0.005210000090301037,0.002950000111013651,0.00031999999191612005,0.0814799964427948
6481.901973165189,1164301.0,0.0070500001311302185,0.002859999891370535,0.00031999999191612005,0.07993000000715256
6481.902972937404,1164302.0,0.012040000408887863,0.011490000411868095,-0.002319999970495701,0.07393000274896622
6481.90397270962,1164303.0,0.017880000174045563,0.011939999647438526,0.001500000013038516,0.07919000089168549
6481.904972481835,1164304.0,0.024299999698996544,0.011939999647438526,0.00018000000272877514,0.07919000089168549
6481.90597225405,1164305.0,0.027489999309182167,0.006719999946653843,0.0009500000160187483,0.07232999801635742
6481.906972026265,1164306.0,0.0276699997484684,0.0018599999602884054,-0.001230000052601099,0.07355999946594238
6481.9079717984805,1164307.0,0.02525000087916851,-0.0051299999468028545,0.0018599999602884054,0.07919000089168549
6481.908971570696,1164308.0,0.02111000008881092,-0.008580000139772892,-0.0028200000524520874,0.07062999904155731
6481.909971342911,1164309.0,0.015270000323653221,-0.012760000303387642,-0.004040000028908253,0.07292000204324722
6481.910971115126,1164310.0,0.010780000127851963,-0.012129999697208405,-0.004129999782890081,0.07777000218629837
6481.911970887341,1164311.0,0.00773000018671155,0.00031999999191612005,-0.003539999946951866,0.06989999860525131
6481.912970659557,1164312.0,0.008310000412166119,0.004310000222176313,-0.0007300000288523734,0.0693499967455864
6481.913970431772,1164313.0,0.014059999957680702,0.00267999991774559,0.0019499999471008778,0.07648999989032745
6481.914970203988,1164314.0,0.017069999128580093,0.00014000000373926014,0.0014100000262260437,0.06888999789953232
6481.915969976202,1164315.0,0.018330000340938568,-0.004220000002533197,0.0024500000290572643,0.07113999873399734
6481.916969748418,1164316.0,0.020309999585151672,-0.0002699999895412475,-0.000590000010561198,0.07274000346660614
6481.917969520633,1164317.0,0.02425999939441681,-0.002589999930933118,0.004449999891221523,0.06641999632120132
6481.9189692928485,1164318.0,0.028929999098181725,-0.006219999864697456,0.0010400000028312206,0.07305999845266342
6481.919969065064,1164319.0,0.032749999314546585,-0.005489999894052744,-0.000859999970998615,0.06633000075817108
6481.920968837279,1164320.0,0.03359999880194664,0.013030000030994415,-0.005489999894052744,0.0723700001835823
6481.921968609494,1164321.0,0.03602999821305275,0.011579999700188637,0.003539999946951866,0.06569000333547592
6481.922968381709,1164322.0,0.043129999190568924,0.011760000139474869,0.0010400000028312206,0.06820999830961227
6481.923968153925,1164323.0,0.04761999845504761,0.012849999591708183,-0.002950000111013651,0.06911999732255936
6481.92496792614,1164324.0,0.052469998598098755,0.013899999670684338,-0.003269999986514449,0.06413000077009201
6481.925967698356,1164325.0,0.055879998952150345,0.006680000107735395,0.0002699999895412475,0.07045000046491623
6481.92696747057,1164326.0,0.0573199987411499,-0.007860000245273113,-0.00044999999227002263,0.0628499984741211
6481.927967242786,1164327.0,0.05916000157594681,-0.0051299999468028545,0.000859999970998615,0.06413000077009201
6481.928967015001,1164328.0,0.05696000158786774,-0.004220000002533197,-0.004900000058114529,0.06769999861717224
6481.9299667872165,1164329.0,0.05048999935388565,-0.0063599999994039536,-0.001769999973475933,0.06128999963402748
6481.930966559432,1164330.0,0.04617999866604805,-0.0012700000079348683,0.0002300000051036477,0.06693000346422195
6481.931966331647,1164331.0,0.04042999818921089,0.0037700000684708357,-0.0003600000054575503,0.06541000306606293
6481.932966103862,1164332.0,0.03468000143766403,0.005450000055134296,0.00031999999191612005,0.05891000106930733
6481.933965876077,1164333.0,0.03347000107169151,0.00031999999191612005,0.006579999811947346,0.057819999754428864
6481.934965648293,1164334.0,0.03248000144958496,-0.0021800000686198473,0.003220000071451068,0.06421999633312225
6481.935965420508,1164335.0,0.03401000052690506,-0.010400000028312206,0.0016799999866634607,0.06312999874353409
6481.936965192724,1164336.0,0.03683999925851822,-0.008949999697506428,0.0013200000394135714,0.05745000019669533
6481.937964964938,1164337.0,0.03925999999046326,-0.004540000110864639,0.001230000052601099,0.06088000163435936
6481.938964737154,1164338.0,0.040389999747276306,-0.002589999930933118,0.0010400000028312206,0.061480000615119934
6481.939964509369,1164339.0,0.04033999890089035,0.00031999999191612005,0.0010400000028312206,0.054659999907016754
6481.9409642815845,1164340.0,0.039889998733997345,0.004310000222176313,-0.001769999973475933,0.06092999875545502
6481.9419640538,1164341.0,0.04173000156879425,0.001180000021122396,-0.0006799999973736703,0.05451999977231026
6481.942963826015,1164342.0,0.04258999973535538,0.005950000137090683,0.00031999999191612005,0.060839999467134476
6481.94396359823,1164343.0,0.04527999833226204,0.00686000008136034,0.0020000000949949026,0.054019998759031296
6481.944963370445,1164344.0,0.050039999186992645,0.011350000277161598,0.002630000002682209,0.05251000076532364
6481.945963142661,1164345.0,0.053369998931884766,0.005400000140070915,-0.004220000002533197,0.05891000106930733
6481.946962914876,1164346.0,0.05138999968767166,0.00031999999191612005,-0.004769999999552965,0.051589999347925186
6481.947962687092,1164347.0,0.04617999866604805,-0.00803999975323677,-0.0062699997797608376,0.05209000036120415
6481.948962459306,1164348.0,0.03922000154852867,-0.010219999589025974,-0.0035000001080334187,0.056439999490976334
6481.949962231522,1164349.0,0.028030000627040863,-0.011939999647438526,-0.0019099999917671084,0.049619998782873154
6481.950962003737,1164350.0,0.014469999819993973,-0.012810000218451023,0.00031999999191612005,0.05186000093817711
6481.951961775952,1164351.0,3.9999998989515007e-05,-0.010400000028312206,0.001230000052601099,0.053050000220537186
6481.952961548168,1164352.0,-0.011549999937415123,-4.999999873689376e-05,-0.0002300000051036477,0.04994000121951103
6481.953961320383,1164353.0,-0.017069999128580093,9.000000136438757e-05,-0.002589999930933118,0.05291999876499176
6481.954961092598,1164354.0,-0.019859999418258667,0.003909999970346689,0.005309999920427799,0.045729998499155045
6481.955960864813,1164355.0,-0.020570000633597374,0.009580000303685665,0.0027699999045580626,0.05251000076532364
6481.956960637029,1164356.0,-0.019990000873804092,0.00913000013679266,-0.0009500000160187483,0.046459998935461044
6481.957960409244,1164357.0,-0.01841999962925911,0.0083600003272295,-0.004449999891221523,0.052319999784231186
6481.95896018146,1164358.0,-0.018370000645518303,0.0008200000156648457,0.0022700000554323196,0.04535999894142151
6481.959959953674,1164359.0,-0.015990000218153,-0.0005000000237487257,0.0014100000262260437,0.047200001776218414
6481.96095972589,1164360.0,-0.013659999705851078,0.0012700000079348683,0.0015899999998509884,0.04915999993681908
6481.961959498105,1164361.0,-0.011950000189244747,0.0045900000259280205,-0.0030400000978261232,0.04385000094771385
6481.96295927032,1164362.0,-0.008089999668300152,0.005400000140070915,-0.003539999946951866,0.04989999905228615
6481.963959042536,1164363.0,-0.005119999870657921,0.008080000057816505,0.001769999973475933,0.04682999849319458
6481.96495881475,1164364.0,-0.0009899999713525176,0.009630000218749046,0.001769999973475933,0.04083000123500824
6481.965958586966,1164365.0,-0.0012600000482052565,0.0010400000028312206,0.0019099999917671084,0.04828999936580658
6481.966958359181,1164366.0,-0.004579999949783087,-0.0002300000051036477,-0.002090000081807375,0.04129000008106232
6481.967958131397,1164367.0,-0.010200000368058681,-0.0013599999947473407,-0.0016299999551847577,0.043299999088048935
6481.968957903612,1164368.0,-0.0200399998575449,-0.0020000000949949026,-0.0033599999733269215,0.04605000093579292
6481.969957675828,1164369.0,-0.03181000053882599,-0.005489999894052744,-0.0036800000816583633,0.03951000049710274
6481.970957448042,1164370.0,-0.0427200011909008,-0.005040000192821026,0.001180000021122396,0.04554999992251396
6481.9719572202575,1164371.0,-0.051169998943805695,-0.00880999956279993,-0.0010400000028312206,0.04280000180006027
6481.972956992473,1164372.0,-0.05925000086426735,-0.00913000013679266,0.0010900000343099236,0.03799000009894371
6481.973956764688,1164373.0,-0.06432999670505524,-0.009580000303685665,0.003000000026077032,0.044360000640153885
6481.974956536904,1164374.0,-0.06729000061750412,-0.002950000111013651,-0.000859999970998615,0.03767000138759613
6481.975956309118,1164375.0,-0.06872999668121338,-0.003719999920576811,0.00031999999191612005,0.03881999850273132
6481.976956081334,1164376.0,-0.06752000004053116,0.0024500000290572643,0.0018599999602884054,0.04202000051736832
6481.977955853549,1164377.0,-0.06559000164270401,0.00749000022187829,0.0021299999207258224,0.036070000380277634
6481.978955625765,1164378.0,-0.06459999829530716,-0.000590000010561198,0.0010400000028312206,0.04188999906182289
6481.97995539798,1164379.0,-0.06441999971866608,-0.005539999809116125,0.00031999999191612005,0.03548000007867813
6481.980955170195,1164380.0,-0.06294000148773193,-0.002589999930933118,-0.001180000021122396,0.035110000520944595
6481.98195494241,1164381.0,-0.0616299994289875,0.005400000140070915,0.000910000002477318,0.04010000079870224
6481.9829547146255,1164382.0,-0.05623999983072281,0.008670000359416008,0.001769999973475933,0.03401000052690506
6481.983954486841,1164383.0,-0.048700001090765,0.013670000247657299,0.002589999930933118,0.03548000007867813
6481.984954259056,1164384.0,-0.04106000065803528,0.0072200000286102295,-0.0031799999997019768,0.038770001381635666
6481.985954031272,1164385.0,-0.03804999962449074,0.010490000247955322,-0.004999999888241291,0.0326399989426136
6481.986953803486,1164386.0,-0.03872000053524971,0.0051299999468028545,-0.0002699999895412475,0.0384100005030632
6481.987953575702,1164387.0,-0.044829998165369034,-0.0031300000846385956,0.0021299999207258224,0.03235999867320061
6481.988953347917,1164388.0,-0.055879998952150345,-0.011529999785125256,-0.00014000000373926014,0.036070000380277634
6481.989953120133,1164389.0,-0.06716000288724899,-0.0029100000392645597,-0.006039999891072512,0.03519999980926514
6481.990952892348,1164390.0,-0.07492999732494354,-0.010759999975562096,0.0015899999998509884,0.029570000246167183
6481.991952664563,1164391.0,-0.08085999637842178,-0.012760000303387642,0.003909999970346689,0.037310000509023666
6481.992952436778,1164392.0,-0.08552999794483185,0.001769999973475933,-0.004360000137239695,0.03392000123858452
6481.9939522089935,1164393.0,-0.08769000321626663,0.007449999917298555,0.001769999973475933,0.029249999672174454
6481.994951981209,1164394.0,-0.08679000288248062,0.002950000111013651,0.005270000081509352,0.035840000957250595
6481.995951753424,1164395.0,-0.08459000289440155,0.004999999888241291,0.0002699999895412475,0.03328000009059906
6481.99695152564,1164396.0,-0.08310999721288681,0.00031999999191612005,-0.0002699999895412475,0.027790000662207603
6481.997951297854,1164397.0,-0.07959999889135361,0.0010400000028312206,0.0011399999493733048,0.03474000096321106
6481.99895107007,1164398.0,-0.07699999958276749,0.010400000028312206,-0.002589999930933118,0.028060000389814377
6481.999950842285,1164399.0,-0.0763700008392334,0.017030000686645508,-0.0037700000684708357,0.029850000515580177
6482.000950614501,1164400.0,-0.0757799968123436,0.006490000057965517,0.004220000002533197,0.03158999979496002
6482.001950386716,1164401.0,-0.07474999874830246,0.009580000303685665,0.0024500000290572643,0.026280000805854797
6482.002950158931,1164402.0,-0.07242000102996826,0.006039999891072512,0.004629999864846468,0.03240999951958656
6482.003949931146,1164403.0,-0.06869000196456909,-0.005179999861866236,-0.00203999993391335,0.026499999687075615
6482.0049497033615,1164404.0,-0.06396999955177307,-0.0007300000288523734,-0.0013599999947473407,0.03127000108361244
6482.005949475577,1164405.0,-0.0603800006210804,-0.0016799999866634607,-0.0007699999841861427,0.02961999922990799
6482.006949247792,1164406.0,-0.05785999819636345,-0.005859999917447567,-0.0007699999841861427,0.024399999529123306
6482.007949020008,1164407.0,-0.05861999839544296,-0.013439999893307686,0.0010400000028312206,0.03158999979496002
6482.008948792222,1164408.0,-0.06379000097513199,-0.020659999921917915,-0.008170000277459621,0.024860000237822533
6482.009948564438,1164409.0,-0.06989999860525131,-0.013939999975264072,-0.0008200000156648457,0.027240000665187836
6482.010948336653,1164410.0,-0.07466000318527222,-0.0045900000259280205,-0.0022299999836832285,0.028519999235868454
6482.011948108869,1164411.0,-0.07987000048160553,0.008449999615550041,-0.004269999917596579,0.02280000038444996
6482.012947881084,1164412.0,-0.0849900022149086,0.015350000001490116,-0.0076299998909235,0.029890000820159912
6482.013947653299,1164413.0,-0.08687999844551086,0.006130000110715628,0.0009500000160187483,0.023439999669790268
6482.014947425514,1164414.0,-0.08615999668836594,-0.0031300000846385956,0.001769999973475933,0.029340000823140144
6482.0159471977295,1164415.0,-0.08392000198364258,-0.00913000013679266,-0.0019099999917671084,0.02718999981880188
6482.016946969945,1164416.0,-0.07942000031471252,-0.009309999644756317,0.0010400000028312206,0.0236200001090765
6482.01794674216,1164417.0,-0.07560999691486359,-0.0006399999838322401,0.00571999978274107,0.02686999924480915
6482.018946514376,1164418.0,-0.07242000102996826,-0.0015399999683722854,0.004540000110864639,0.022609999403357506
6482.01994628659,1164419.0,-0.06989999860525131,0.001180000021122396,-0.0020000000949949026,0.02710000053048134
6482.020946058806,1164420.0,-0.06631000339984894,0.008310000412166119,0.0016299999551847577,0.02119000069797039
6482.021945831021,1164421.0,-0.06216999888420105,0.010490000247955322,0.004900000058114529,0.028149999678134918
6482.022945603237,1164422.0,-0.05776999890804291,0.01104000024497509,0.00018000000272877514,0.021560000255703926
6482.023945375452,1164423.0,-0.053279999643564224,0.011760000139474869,-0.0011399999493733048,0.02759999968111515
6482.024945147667,1164424.0,-0.04967999830842018,0.008129999972879887,-0.004809999838471413,0.02150999940931797
6482.025944919882,1164425.0,-0.04676000028848648,0.0083600003272295,0.00031999999191612005,0.023760000243782997
6482.0269446920975,1164426.0,-0.04596000164747238,0.00031999999191612005,0.003000000026077032,0.025040000677108765
6482.027944464313,1164427.0,-0.04569000005722046,-0.008220000192523003,0.0010400000028312206,0.02027999982237816
6482.028944236528,1164428.0,-0.04797999933362007,-0.004769999999552965,-0.0019099999917671084,0.026599999517202377
6482.029944008743,1164429.0,-0.05229000002145767,-0.0051299999468028545,-0.00418000016361475,0.02013999968767166
6482.030943780958,1164430.0,-0.05722999945282936,-0.006949999835342169,0.003719999920576811,0.023760000243782997
6482.031943553174,1164431.0,-0.060920000076293945,-0.004769999999552965,-0.0011399999493733048,0.024900000542402267
6482.032943325389,1164432.0,-0.0616299994289875,0.008129999972879887,-0.005489999894052744,0.019360000267624855
6482.033943097605,1164433.0,-0.05866999924182892,0.00535999983549118,-0.00418000016361475,0.02622999995946884
6482.03494286982,1164434.0,-0.055479999631643295,-0.0010900000343099236,-0.004000000189989805,0.019680000841617584
6482.035942642035,1164435.0,-0.053279999643564224,-0.0036800000816583633,0.0044999998062849045,0.021740000694990158
6482.03694241425,1164436.0,-0.05144000053405762,0.0002699999895412475,0.005770000163465738,0.023760000243782997
6482.037942186465,1164437.0,-0.049240000545978546,-0.004410000052303076,0.0027699999045580626,0.018629999831318855
6482.038941958681,1164438.0,-0.04447000101208687,-0.000539999979082495,-0.000539999979082495,0.025450000539422035
6482.039941730896,1164439.0,-0.039980001747608185,0.00031999999191612005,-0.005489999894052744,0.01972999982535839
6482.040941503111,1164440.0,-0.034860000014305115,0.00031999999191612005,0.0010400000028312206,0.01972999982535839
6482.041941275326,1164441.0,-0.030640000477433205,-0.0011399999493733048,0.004540000110864639,0.0236200001090765
6482.042941047542,1164442.0,-0.025340000167489052,4.999999873689376e-05,0.00031999999191612005,0.017899999395012856
6482.043940819757,1164443.0,-0.01923000067472458,0.004040000028908253,-0.0027199999894946814,0.0236200001090765
6482.044940591973,1164444.0,-0.014019999653100967,0.0063599999994039536,0.003220000071451068,0.017899999395012856
6482.045940364187,1164445.0,-0.012310000136494637,0.004900000058114529,0.0009500000160187483,0.022840000689029694
6482.046940136403,1164446.0,-0.01384000014513731,0.004679999779909849,-0.005489999894052744,0.019179999828338623
6482.047939908618,1164447.0,-0.017969999462366104,0.0002699999895412475,0.0019499999471008778,0.021970000118017197
6482.048939680833,1164448.0,-0.023000000044703484,-0.005770000163465738,0.00031999999191612005,0.02078000083565712
6482.049939453049,1164449.0,-0.02817000076174736,-0.0076299998909235,-0.002630000002682209,0.018540000542998314
6482.050939225264,1164450.0,-0.030549999326467514,-0.00749000022187829,-0.002950000111013651,0.020740000531077385
6482.051938997479,1164451.0,-0.031220000237226486,-0.00839999970048666,0.007079999893903732,0.021880000829696655
6482.052938769694,1164452.0,-0.031449999660253525,-0.009850000031292439,0.0036299999337643385,0.01648000068962574
6482.05393854191,1164453.0,-0.029650000855326653,-0.0002300000051036477,0.0008200000156648457,0.02339000068604946
6482.054938314125,1164454.0,-0.025699999183416367,0.000910000002477318,0.0021299999207258224,0.01761999912559986
6482.055938086341,1164455.0,-0.02022000029683113,-0.0037700000684708357,0.00031999999191612005,0.023350000381469727
6482.056937858555,1164456.0,-0.015449999831616879,0.002090000081807375,0.00031999999191612005,0.017899999395012856
6482.0579376307705,1164457.0,-0.012040000408887863,0.006130000110715628,0.004900000058114529,0.016429999843239784
6482.058937402986,1164458.0,-0.008980000391602516,0.004860000219196081,0.0016299999551847577,0.02339000068604946
6482.059937175201,1164459.0,-0.006920000072568655,-0.002589999930933118,0.0024999999441206455,0.020829999819397926
6482.060936947417,1164460.0,-0.006020000204443932,0.0010400000028312206,0.0014100000262260437,0.01711999997496605
6482.061936719632,1164461.0,-0.003590000094845891,0.010809999890625477,-0.0019099999917671084,0.02247999981045723
6482.062936491847,1164462.0,0.003229999914765358,0.01566999964416027,-0.0024500000290572643,0.015610000118613243
6482.063936264062,1164463.0,0.011370000429451466,0.011939999647438526,-0.0014100000262260437,0.022749999538064003
6482.064936036278,1164464.0,0.02092999964952469,-0.004809999838471413,0.006130000110715628,0.017170000821352005
6482.065935808493,1164465.0,0.02727000042796135,0.0,0.003220000071451068,0.018719999119639397
6482.066935580709,1164466.0,0.030009999871253967,0.00031999999191612005,-0.002859999891370535,0.020829999819397926
6482.067935352923,1164467.0,0.026680000126361847,0.0014100000262260437,-0.00418000016361475,0.01537999976426363
6482.0689351251385,1164468.0,0.020390000194311142,-0.0006799999973736703,-0.0027699999045580626,0.022840000689029694
6482.069934897354,1164469.0,0.012129999697208405,-0.004809999838471413,0.0010900000343099236,0.017400000244379044
6482.070934669569,1164470.0,0.003280000062659383,-0.006219999864697456,-0.000859999970998615,0.018219999969005585
