LSL_Time,PLUX_P1_nSeq,PLUX_P1_ECG0,PLUX_P1_EMG1,PLUX_P1_EMG2,PLUX_P1_RESPIRATION3
6772.556751360346,1455022.0,-0.022690000012516975,0.0029100000392645597,-0.0002699999895412475,0.9950399994850159
6772.557751132562,1455023.0,-0.02061999961733818,-0.004449999891221523,0.001769999973475933,0.9952200055122375
6772.558750904776,1455024.0,-0.01940999925136566,0.0021800000686198473,0.00018000000272877514,0.9929400086402893
6772.559750676992,1455025.0,-0.016529999673366547,0.013030000030994415,-0.001820000004954636,0.9973300099372864
6772.560750449207,1455026.0,-0.013389999978244305,0.009039999917149544,-0.00044999999227002263,0.9975100159645081
6772.561750221423,1455027.0,-0.010420000180602074,0.0031799999997019768,-0.005539999809116125,0.9960500001907349
6772.562749993638,1455028.0,-0.006060000043362379,-0.001769999973475933,9.000000136438757e-05,1.001170039176941
6772.563749765854,1455029.0,-0.00039999998989515007,0.0010000000474974513,0.0018599999602884054,0.9969599843025208
6772.564749538068,1455030.0,0.008270000107586384,0.013399999588727951,0.0025400000158697367,1.000440001487732
6772.5657493102835,1455031.0,0.017030000686645508,0.01181000005453825,0.00031999999191612005,1.004699945449829
6772.566749082499,1455032.0,0.023310000076889992,0.005810000002384186,0.00203999993391335,0.9990699887275696
6772.567748854714,1455033.0,0.024620000272989273,-0.000590000010561198,-0.004720000084489584,1.0046499967575073
6772.56874862693,1455034.0,0.02263999916613102,-0.00571999978274107,-0.004769999999552965,1.0057100057601929
6772.569748399144,1455035.0,0.017430000007152557,-0.007770000025629997,-0.004540000110864639,1.003559947013855
6772.57074817136,1455036.0,0.009750000201165676,-0.007899999618530273,-0.003860000055283308,1.0092300176620483
6772.571747943575,1455037.0,0.0014400000218302011,-0.012129999697208405,0.004629999864846468,1.002959966659546
6772.572747715791,1455038.0,-0.0071000000461936,-0.0033199999015778303,0.004220000002533197,1.0108799934387207
6772.573747488006,1455039.0,-0.013659999705851078,0.0022700000554323196,-0.000539999979082495,1.012760043144226
6772.574747260222,1455040.0,-0.015270000323653221,0.001500000013038516,-0.001500000013038516,1.001539945602417
6772.575747032436,1455041.0,-0.013299999758601189,-0.0015899999998509884,-0.0020000000949949026,1.0128899812698364
6772.5767468046515,1455042.0,-0.009479999542236328,-0.003539999946951866,-0.0002300000051036477,1.0147199630737305
6772.577746576867,1455043.0,-0.007189999800175428,0.00031999999191612005,0.0020000000949949026,1.0121599435806274
6772.578746349082,1455044.0,-0.0048500001430511475,0.003860000055283308,0.0010400000028312206,1.0169199705123901
6772.579746121298,1455045.0,-0.0028800000436604023,-0.002090000081807375,0.0022299999836832285,1.0136300325393677
6772.580745893512,1455046.0,-0.0017099999822676182,-0.004769999999552965,0.0031300000846385956,1.0154600143432617
6772.581745665728,1455047.0,-0.0017500000540167093,0.004129999782890081,0.00031999999191612005,1.0207200050354004
6772.582745437943,1455048.0,0.00018000000272877514,0.009759999811649323,0.0,1.0144000053405762
6772.583745210159,1455049.0,0.004399999976158142,0.011130000464618206,0.00031999999191612005,1.0181599855422974
6772.584744982374,1455050.0,0.010420000180602074,0.014670000411570072,-0.004360000137239695,1.0235099792480469
6772.5857447545895,1455051.0,0.01640000008046627,0.0016299999551847577,-0.003269999986514449,1.0188900232315063
6772.586744526804,1455052.0,0.021199999377131462,0.004089999943971634,-0.0035000001080334187,1.020859956741333
6772.5877442990195,1455053.0,0.024529999122023582,0.004220000002533197,-0.0034099998883903027,1.0257099866867065
6772.588744071235,1455054.0,0.021740000694990158,-0.0022700000554323196,0.0015899999998509884,1.0213199853897095
6772.58974384345,1455055.0,0.01621999964118004,-0.004769999999552965,-0.002589999930933118,1.0235099792480469
6772.590743615666,1455056.0,0.007369999773800373,-0.007309999782592058,-4.999999873689376e-05,1.0277700424194336
6772.59174338788,1455057.0,-0.0030499999411404133,-0.008170000277459621,-0.004809999838471413,1.0242500305175781
6772.592743160096,1455058.0,-0.010689999908208847,-0.008449999615550041,-0.0033599999733269215,1.0285899639129639
6772.593742932311,1455059.0,-0.016349999234080315,-0.00839999970048666,-0.005900000222027302,1.0257099866867065
6772.594742704527,1455060.0,-0.01971999928355217,-0.0063599999994039536,0.0010400000028312206,1.0288699865341187
6772.595742476742,1455061.0,-0.021379999816417694,-0.0010400000028312206,0.0009500000160187483,1.0314799547195435
6772.5967422489575,1455062.0,-0.023000000044703484,0.006630000192672014,0.0022299999836832285,1.0286400318145752
6772.597742021172,1455063.0,-0.02425999939441681,0.00031999999191612005,0.003449999960139394,1.0341299772262573
6772.5987417933875,1455064.0,-0.023360000923275948,0.004860000219196081,0.0072200000286102295,1.029829978942871
6772.599741565603,1455065.0,-0.021469999104738235,0.004809999838471413,0.006130000110715628,1.0332200527191162
6772.600741337818,1455066.0,-0.02012999914586544,0.009309999644756317,0.0022700000554323196,1.0343600511550903
6772.601741110034,1455067.0,-0.020749999210238457,0.005859999917447567,0.001500000013038516,1.0315699577331543
6772.602740882248,1455068.0,-0.021740000694990158,0.0002300000051036477,0.00031999999191612005,1.034500002861023
6772.603740654464,1455069.0,-0.01882000081241131,0.00031999999191612005,0.002090000081807375,1.0364700555801392
6772.604740426679,1455070.0,-0.01348000019788742,0.004310000222176313,0.0016799999866634607,1.033769965171814
6772.605740198895,1455071.0,-0.008270000107586384,0.004679999779909849,0.0014100000262260437,1.0306999683380127
6772.60673997111,1455072.0,-0.00279000005684793,0.0019499999471008778,0.0016299999551847577,1.0393099784851074
6772.607739743325,1455073.0,-0.0016199999954551458,-0.0018599999602884054,9.000000136438757e-05,1.0367000102996826
6772.60873951554,1455074.0,-0.007369999773800373,0.007720000110566616,-0.0022700000554323196,1.0374300479888916
6772.6097392877555,1455075.0,-0.01779000088572502,0.004310000222176313,-0.004310000222176313,1.0392600297927856
6772.610739059971,1455076.0,-0.028119999915361404,-0.0045900000259280205,-0.005090000107884407,1.0382499694824219
6772.611738832186,1455077.0,-0.037289999425411224,-0.0044999998062849045,-0.0051299999468028545,1.0405399799346924
6772.612738604401,1455078.0,-0.046810001134872437,-0.006089999806135893,0.0027699999045580626,1.036929965019226
6772.613738376616,1455079.0,-0.05350000038743019,-0.010040000081062317,0.002090000081807375,1.042099952697754
6772.614738148832,1455080.0,-0.05570000037550926,0.00031999999191612005,0.00267999991774559,1.0379799604415894
6772.615737921047,1455081.0,-0.05291999876499176,0.00031999999191612005,0.0,1.0432900190353394
6772.616737693263,1455082.0,-0.048700001090765,0.00018000000272877514,-0.000590000010561198,1.039989948272705
6772.617737465478,1455083.0,-0.04142000153660774,0.001769999973475933,-0.00041000000783242285,1.0437899827957153
6772.618737237693,1455084.0,-0.03621000051498413,0.00031999999191612005,-0.004449999891221523,1.0431100130081177
6772.619737009908,1455085.0,-0.035670001059770584,-0.005489999894052744,0.0009500000160187483,1.0392600297927856
6772.6207367821235,1455086.0,-0.03612000122666359,-0.0036299999337643385,9.000000136438757e-05,1.0420500040054321
6772.621736554339,1455087.0,-0.03440999984741211,9.000000136438757e-05,-0.000590000010561198,1.0457600355148315
6772.622736326554,1455088.0,-0.032660000026226044,-0.0005000000237487257,-0.0002300000051036477,1.0425599813461304
6772.623736098769,1455089.0,-0.02565000019967556,0.003220000071451068,-0.007400000002235174,1.0432900190353394
6772.624735870984,1455090.0,-0.013340000063180923,0.004129999782890081,-0.004410000052303076,1.047410011291504
6772.6257356432,1455091.0,-0.0026100000832229853,0.01375999953597784,-0.005489999894052744,1.0412800312042236
6772.626735415415,1455092.0,0.005710000172257423,0.006810000166296959,-4.999999873689376e-05,1.0462199449539185
6772.627735187631,1455093.0,0.007910000160336494,0.0014100000262260437,-0.0010400000028312206,1.0431100130081177
6772.628734959846,1455094.0,0.004579999949783087,0.006490000057965517,0.0025400000158697367,1.0472300052642822
6772.629734732061,1455095.0,0.0018899999558925629,0.002090000081807375,-0.0036299999337643385,1.0443899631500244
6772.630734504276,1455096.0,-0.002520000096410513,-0.00803999975323677,0.00267999991774559,1.0479600429534912
6772.631734276491,1455097.0,-0.006599999964237213,-0.00686000008136034,0.0018599999602884054,1.044659972190857
6772.632734048707,1455098.0,-0.0088900001719594,-0.006949999835342169,-0.005859999917447567,1.049149990081787
6772.633733820922,1455099.0,-0.011859999969601631,-0.004269999917596579,-0.0031799999997019768,1.0443899631500244
6772.634733593137,1455100.0,-0.014469999819993973,-0.001180000021122396,9.000000136438757e-05,1.0477800369262695
6772.635733365352,1455101.0,-0.014639999717473984,-0.0036800000816583633,0.0015399999683722854,1.0489699840545654
6772.636733137568,1455102.0,-0.012529999949038029,-0.005679999943822622,0.0033599999733269215,1.0374300479888916
6772.637732909783,1455103.0,-0.009429999627172947,-0.000590000010561198,0.0024500000290572643,1.049880027770996
6772.638732681999,1455104.0,-0.005169999785721302,-0.0017300000181421638,0.0018599999602884054,1.0456700325012207
6772.639732454214,1455105.0,0.0,0.00031999999191612005,-0.002859999891370535,1.049149990081787
6772.640732226429,1455106.0,0.0030499999411404133,0.00031999999191612005,-0.0031799999997019768,1.0475499629974365
6772.641731998644,1455107.0,0.0037700000684708357,0.0008200000156648457,-0.005090000107884407,1.047819972038269
6772.642731770859,1455108.0,0.003590000094845891,0.0072200000286102295,-0.0012700000079348683,1.0506099462509155
6772.643731543075,1455109.0,0.007550000213086605,0.01066999975591898,0.00031999999191612005,1.036329984664917
6772.64473131529,1455110.0,0.015359999611973763,0.008860000409185886,0.003909999970346689,1.0517100095748901
6772.645731087505,1455111.0,0.023310000076889992,0.009039999917149544,0.002589999930933118,1.0476800203323364
6772.64673085972,1455112.0,0.02947000041604042,0.005400000140070915,0.0028200000524520874,1.051300048828125
6772.647730631936,1455113.0,0.029069999232888222,0.00031999999191612005,-0.00014000000373926014,1.048050045967102
6772.648730404151,1455114.0,0.02515999972820282,-0.0022299999836832285,-0.006130000110715628,1.0508899688720703
6772.649730176367,1455115.0,0.017969999462366104,-0.004999999888241291,-0.003269999986514449,1.049149990081787
6772.650729948582,1455116.0,0.009209999814629555,-0.0062699997797608376,0.0007300000288523734,1.049880027770996
6772.6517297207965,1455117.0,-0.0006300000241026282,-0.010400000028312206,0.004040000028908253,1.0530400276184082
6772.652729493012,1455118.0,-0.009789999574422836,-0.012529999949038029,0.00031999999191612005,1.0476800203323364
6772.653729265227,1455119.0,-0.015949999913573265,-0.005489999894052744,0.00014000000373926014,1.0525799989700317
6772.654729037443,1455120.0,-0.018149999901652336,-0.0019099999917671084,-0.0011399999493733048,1.049880027770996
6772.655728809658,1455121.0,-0.013159999623894691,0.00031999999191612005,-0.002589999930933118,1.052899956703186
6772.656728581873,1455122.0,-0.006649999879300594,-0.002950000111013651,-0.0036299999337643385,1.0520800352096558
6772.657728354088,1455123.0,-0.002469999948516488,-0.0036800000816583633,-0.003539999946951866,1.049149990081787
6772.658728126304,1455124.0,0.0024300001095980406,-0.004269999917596579,-0.00041000000783242285,1.0541399717330933
6772.659727898519,1455125.0,0.0065100002102553844,-0.00014000000373926014,0.002319999970495701,1.0515300035476685
6772.660727670735,1455126.0,0.010470000095665455,0.004720000084489584,-0.0006399999838322401,1.0520800352096558
6772.66172744295,1455127.0,0.014379999600350857,0.012310000136494637,-0.004999999888241291,1.0559699535369873
6772.6627272151645,1455128.0,0.016349999234080315,0.013580000028014183,-0.005630000028759241,1.050570011138916
6772.66372698738,1455129.0,0.019950000569224358,0.012900000438094139,-0.0021800000686198473,1.0562399625778198
6772.664726759595,1455130.0,0.02622999995946884,0.0072200000286102295,-0.0015399999683722854,1.0527600049972534
6772.665726531811,1455131.0,0.03109000064432621,0.007360000163316727,-0.0011399999493733048,1.0550099611282349
6772.666726304026,1455132.0,0.033959999680519104,0.0024999999441206455,-0.001230000052601099,1.057569980621338
6772.667726076241,1455133.0,0.032249998301267624,-0.006949999835342169,0.00031999999191612005,1.0590800046920776
6772.668725848456,1455134.0,0.02889000065624714,-0.014209999702870846,0.00031999999191612005,1.0539100170135498
6772.669725620672,1455135.0,0.02402999997138977,-0.0189800001680851,0.0021299999207258224,1.0586700439453125
6772.670725392887,1455136.0,0.017559999600052834,-0.014209999702870846,-0.0044999998062849045,1.059399962425232
6772.6717251651025,1455137.0,0.010420000180602074,-0.002589999930933118,-0.003949999809265137,1.0506099462509155
6772.672724937317,1455138.0,0.005260000005364418,0.005179999861866236,-0.003449999960139394,1.060130000114441
6772.6737247095325,1455139.0,0.0012600000482052565,0.005040000192821026,-0.00044999999227002263,1.060130000114441
6772.674724481748,1455140.0,0.0,0.008489999920129776,-0.0010400000028312206,1.0571600198745728
6772.675724253963,1455141.0,0.0022499999031424522,0.01030999980866909,-0.005489999894052744,1.0608700513839722
6772.676724026179,1455142.0,0.00610999995842576,0.006039999891072512,-0.0024500000290572643,1.0566600561141968
6772.677723798393,1455143.0,0.010239999741315842,0.0037700000684708357,-0.0002699999895412475,1.0636099576950073
6772.678723570609,1455144.0,0.011859999969601631,0.004310000222176313,0.005179999861866236,1.056980013847351
6772.679723342824,1455145.0,0.012849999591708183,0.001230000052601099,0.002859999891370535,1.0637099742889404
6772.68072311504,1455146.0,0.013340000063180923,-0.0031799999997019768,0.005900000222027302,1.0637999773025513
6772.681722887255,1455147.0,0.015809999778866768,0.001769999973475933,0.002589999930933118,1.0605000257492065
6772.6827226594705,1455148.0,0.01931999996304512,0.0014100000262260437,0.002859999891370535,1.0645300149917603
6772.683722431685,1455149.0,0.0258799996227026,-0.004040000028908253,0.0033199999015778303,1.0662699937820435
6772.6847222039005,1455150.0,0.03297000005841255,0.0018599999602884054,0.006949999835342169,1.0622899532318115
6772.685721976116,1455151.0,0.03844999894499779,-0.0019499999471008778,0.006130000110715628,1.0648000240325928
6772.686721748331,1455152.0,0.042319998145103455,0.0,0.006130000110715628,1.06673002243042
6772.687721520547,1455153.0,0.043310001492500305,-0.004040000028908253,0.003809999907389283,1.0649000406265259
6772.688721292761,1455154.0,0.04402000084519386,-0.004040000028908253,0.004220000002533197,1.0637999773025513
6772.689721064977,1455155.0,0.04123999923467636,-0.002630000002682209,-0.0019499999471008778,1.0694700479507446
6772.690720837192,1455156.0,0.03338000178337097,-0.005539999809116125,0.0045900000259280205,1.0655800104141235
6772.691720609408,1455157.0,0.02191999927163124,-0.0031799999997019768,0.0024500000290572643,1.0547800064086914
6772.692720381623,1455158.0,0.012260000221431255,0.003539999946951866,9.000000136438757e-05,1.0679600238800049
6772.6937201538385,1455159.0,0.004000000189989805,-0.005489999894052744,-0.0022299999836832285,1.0714900493621826
6772.694719926053,1455160.0,-0.0007200000109151006,0.00686000008136034,-0.007079999893903732,1.0718499422073364
6772.6957196982685,1455161.0,-0.0007600000244565308,0.002319999970495701,-0.0033599999733269215,1.0689200162887573
6772.696719470484,1455162.0,0.0011699999449774623,0.005179999861866236,-0.004360000137239695,1.067870020866394
6772.697719242699,1455163.0,0.004399999976158142,0.0059899999760091305,0.0020000000949949026,1.071810007095337
6772.698719014915,1455164.0,0.006560000125318766,0.0034099998883903027,0.0027199999894946814,1.0740100145339966
6772.699718787129,1455165.0,0.010239999741315842,-0.00267999991774559,0.004360000137239695,1.074779987335205
6772.700718559345,1455166.0,0.01131999958306551,0.00018000000272877514,0.0014100000262260437,1.070889949798584
6772.70171833156,1455167.0,0.012040000408887863,-0.0010000000474974513,-0.0013599999947473407,1.0725899934768677
6772.702718103776,1455168.0,0.0129399998113513,0.00031999999191612005,-0.002409999957308173,1.0755200386047363
6772.703717875991,1455169.0,0.016489999368786812,0.0010400000028312206,0.0,1.0752899646759033
6772.7047176482065,1455170.0,0.02191999927163124,0.005770000163465738,-0.004040000028908253,1.0733200311660767
6772.705717420421,1455171.0,0.02785000018775463,0.006130000110715628,-0.004410000052303076,1.0744199752807617
6772.7067171926365,1455172.0,0.03189999982714653,0.003000000026077032,-0.0031300000846385956,1.0777100324630737
6772.707716964852,1455173.0,0.0301900003105402,-0.001769999973475933,-0.0021800000686198473,1.0784499645233154
6772.708716737067,1455174.0,0.025520000606775284,-0.000859999970998615,-0.0019499999471008778,1.0689200162887573
6772.709716509283,1455175.0,0.020349999889731407,-4.999999873689376e-05,-0.002589999930933118,1.0797300338745117
6772.710716281497,1455176.0,0.014550000429153442,-0.00044999999227002263,-0.004129999782890081,1.0771600008010864
6772.711716053713,1455177.0,0.00773000018671155,-0.007670000195503235,0.0002699999895412475,1.0764800310134888
6772.712715825928,1455178.0,-0.00013000000035390258,-0.004769999999552965,-0.0016799999866634607,1.0800000429153442
6772.713715598144,1455179.0,-0.006289999932050705,-0.0010900000343099236,-0.0072200000286102295,1.0769799947738647
6772.714715370359,1455180.0,-0.008179999887943268,-0.0019499999471008778,-0.0013599999947473407,1.0809199810028076
6772.7157151425745,1455181.0,-0.00773000018671155,0.0,0.0022299999836832285,1.0802799463272095
6772.716714914789,1455182.0,-0.004399999976158142,-0.0007699999841861427,0.0010000000474974513,1.0784499645233154
6772.717714687004,1455183.0,-0.00107999995816499,0.005950000137090683,0.0010000000474974513,1.0832099914550781
6772.71871445922,1455184.0,0.0034099998883903027,0.00031999999191612005,0.003909999970346689,1.083940029144287
6772.719714231435,1455185.0,0.009519999846816063,0.005950000137090683,0.002630000002682209,1.0725899934768677
6772.720714003651,1455186.0,0.013570000417530537,0.0021800000686198473,-4.999999873689376e-05,1.083799958229065
6772.721713775865,1455187.0,0.01631000079214573,0.001230000052601099,-0.00044999999227002263,1.0823400020599365
6772.722713548081,1455188.0,0.01779000088572502,0.0010400000028312206,0.0033199999015778303,1.0817400217056274
6772.723713320296,1455189.0,0.02043999917805195,0.004900000058114529,-0.001820000004954636,1.0848100185394287
6772.724713092512,1455190.0,0.023900000378489494,0.00031999999191612005,-0.001820000004954636,1.081380009651184
6772.725712864727,1455191.0,0.02622999995946884,0.001449999981559813,-0.003220000071451068,1.0859500169754028
6772.7267126369425,1455192.0,0.025830000638961792,-0.0016799999866634607,-0.00418000016361475,1.085360050201416
6772.727712409157,1455193.0,0.022509999573230743,-0.006219999864697456,-0.004769999999552965,1.0833899974822998
6772.728712181372,1455194.0,0.019139999523758888,-0.0021800000686198473,-0.0019099999917671084,1.0885200500488281
6772.729711953588,1455195.0,0.015629999339580536,-0.00571999978274107,-0.002589999930933118,1.0848100185394287
6772.730711725803,1455196.0,0.010689999908208847,-0.00839999970048666,-0.004129999782890081,1.0854500532150269
6772.731711498019,1455197.0,0.005530000198632479,-0.006219999864697456,-0.002319999970495701,1.0872299671173096
6772.732711270233,1455198.0,0.0008999999845400453,-0.000910000002477318,0.0007300000288523734,1.0860400199890137
6772.733711042449,1455199.0,-0.0024300001095980406,-0.0007699999841861427,0.0021299999207258224,1.0882400274276733
6772.734710814664,1455200.0,-0.004939999897032976,0.013530000112950802,-0.0006399999838322401,1.0894299745559692
6772.73571058688,1455201.0,-0.00610999995842576,0.015169999562203884,-0.004679999779909849,1.0865000486373901
6772.736710359095,1455202.0,-0.006060000043362379,0.008630000054836273,-0.00041000000783242285,1.09089994430542
6772.7377101313095,1455203.0,-0.00610999995842576,0.006680000107735395,-0.00571999978274107,1.088610053062439
6772.738709903525,1455204.0,-0.006920000072568655,-0.00041000000783242285,-0.003000000026077032,1.0890699625015259
6772.73970967574,1455205.0,-0.007910000160336494,0.00031999999191612005,-0.00044999999227002263,1.0910799503326416
6772.740709447956,1455206.0,-0.0052999998442828655,-0.004089999943971634,0.003719999920576811,1.0886499881744385
6772.741709220171,1455207.0,-0.00215999991632998,-0.0013599999947473407,-0.0009500000160187483,1.091539978981018
6772.742708992386,1455208.0,0.0024300001095980406,-0.0014100000262260437,-0.00044999999227002263,1.0892900228500366
6772.743708764601,1455209.0,0.011859999969601631,0.0,0.000910000002477318,1.0930500030517578
6772.744708536817,1455210.0,0.021199999377131462,0.011219999752938747,0.0024999999441206455,1.0899800062179565
6772.745708309032,1455211.0,0.027809999883174896,0.005400000140070915,-0.0022700000554323196,1.0937299728393555
6772.746708081248,1455212.0,0.03229999914765358,0.00031999999191612005,-0.002360000042244792,1.0884699821472168
6772.747707853463,1455213.0,0.03378000110387802,0.004269999917596579,0.0027699999045580626,1.093459963798523
6772.7487076256775,1455214.0,0.03260999917984009,-0.0016299999551847577,0.0013200000394135714,1.09089994430542
6772.749707397893,1455215.0,0.028750000521540642,-0.00203999993391335,-0.00041000000783242285,1.0945600271224976
6772.750707170108,1455216.0,0.023310000076889992,-0.0062699997797608376,0.0022700000554323196,1.0936399698257446
6772.751706942324,1455217.0,0.01689000055193901,-0.006949999835342169,0.000910000002477318,1.0918099880218506
6772.752706714539,1455218.0,0.011049999855458736,-0.00571999978274107,0.004410000052303076,1.0955699682235718
6772.753706486754,1455219.0,0.005840000230818987,-0.008949999697506428,-0.0007300000288523734,1.094099998474121
6772.754706258969,1455220.0,0.002520000096410513,-0.005489999894052744,-0.0002699999895412475,1.0927300453186035
6772.755706031185,1455221.0,0.0018899999558925629,-0.000590000010561198,-0.002859999891370535,1.094920039176941
6772.7567058034,1455222.0,0.0017099999822676182,-0.001180000021122396,-0.004410000052303076,1.0937800407409668
6772.757705575616,1455223.0,0.0031900000758469105,-0.0005000000237487257,0.001769999973475933,1.093000054359436
6772.758705347831,1455224.0,0.00646999990567565,0.002859999891370535,-0.0007300000288523734,1.096019983291626
6772.7597051200455,1455225.0,0.012260000221431255,0.0012700000079348683,-0.00031999999191612005,1.0927300453186035
6772.760704892261,1455226.0,0.016529999673366547,-0.002950000111013651,-0.0020000000949949026,1.0958900451660156
6772.761704664476,1455227.0,0.018959999084472656,-0.00044999999227002263,-0.0017300000181421638,1.093000054359436
6772.762704436692,1455228.0,0.018780000507831573,0.00031999999191612005,-0.0031799999997019768,1.0945600271224976
6772.763704208907,1455229.0,0.021069999784231186,0.004129999782890081,-0.0016299999551847577,1.0936000347137451
6772.764703981122,1455230.0,0.027939999476075172,0.006130000110715628,-0.0013599999947473407,1.0958399772644043
6772.765703753337,1455231.0,0.03382999822497368,0.010940000414848328,-0.002090000081807375,1.0927300453186035
6772.766703525553,1455232.0,0.038359999656677246,0.00880999956279993,-0.001500000013038516,1.09552001953125
6772.767703297768,1455233.0,0.040389999747276306,0.012670000083744526,-0.0022700000554323196,1.0918999910354614
6772.7687030699835,1455234.0,0.041189998388290405,0.011219999752938747,-0.004629999864846468,1.0944199562072754
6772.769702842199,1455235.0,0.0413299985229969,0.003220000071451068,-0.001180000021122396,1.0912599563598633
6772.7707026144135,1455236.0,0.036479998379945755,-0.0033599999733269215,-0.002630000002682209,1.0958399772644043
6772.771702386629,1455237.0,0.030549999326467514,-0.017980000004172325,-0.000590000010561198,1.0901600122451782
6772.772702158844,1455238.0,0.026189999654889107,-0.015300000086426735,0.00418000016361475,1.0941499471664429
6772.77370193106,1455239.0,0.023089999333024025,-0.00875999964773655,0.0015399999683722854,1.0921800136566162
6772.774701703275,1455240.0,0.021560000255703926,-0.006399999838322401,-0.0016299999551847577,1.09089994430542
6772.77570147549,1455241.0,0.023180000483989716,-0.0030400000978261232,-0.0051299999468028545,1.094190001487732
6772.776701247705,1455242.0,0.027089999988675117,0.00686000008136034,-0.002859999891370535,1.0834800004959106
6772.777701019921,1455243.0,0.029829999431967735,0.0062699997797608376,-0.0011399999493733048,1.0930900573730469
6772.778700792136,1455244.0,0.030820000916719437,-0.0012700000079348683,0.0014100000262260437,1.0901600122451782
6772.7797005643515,1455245.0,0.02978000044822693,0.00203999993391335,0.0012700000079348683,1.0925899744033813
6772.780700336567,1455246.0,0.029650000855326653,0.002319999970495701,-0.001449999981559813,1.0885599851608276
6772.7817001087815,1455247.0,0.030549999326467514,0.0022299999836832285,-0.002409999957308173,1.091770052909851
6772.782699880997,1455248.0,0.03162999823689461,0.000910000002477318,-0.0020000000949949026,1.0777100324630737
6772.783699653212,1455249.0,0.034949999302625656,0.005489999894052744,0.003809999907389283,1.0917199850082397
6772.784699425428,1455250.0,0.04097000136971474,0.006630000192672014,0.00014000000373926014,1.0901600122451782
6772.785699197643,1455251.0,0.04797999933362007,0.008449999615550041,-0.0008200000156648457,1.0881999731063843
6772.786698969858,1455252.0,0.0528700016438961,0.00031999999191612005,0.0016799999866634607,1.0861400365829468
6772.787698742073,1455253.0,0.05220000073313713,-0.0037700000684708357,-0.00267999991774559,1.0901600122451782
6772.788698514289,1455254.0,0.0485600009560585,0.00031999999191612005,-0.0011399999493733048,1.0835700035095215
6772.789698286504,1455255.0,0.04222999885678291,-0.003539999946951866,-0.0007699999841861427,1.0875500440597534
6772.7906980587195,1455256.0,0.03458999842405319,-0.004769999999552965,-0.0006799999973736703,1.0835700035095215
6772.791697830935,1455257.0,0.027219999581575394,-0.006579999811947346,-0.002589999930933118,1.0872299671173096
6772.7926976031495,1455258.0,0.021789999678730965,-0.005040000192821026,-0.004720000084489584,1.080090045928955
6772.793697375365,1455259.0,0.018869999796152115,-0.006399999838322401,0.002090000081807375,1.086590051651001
6772.79469714758,1455260.0,0.019500000402331352,-0.0009500000160187483,-0.0035000001080334187,1.0861400365829468
6772.795696919796,1455261.0,0.022549999877810478,-0.002090000081807375,-4.999999873689376e-05,1.0849900245666504
6772.796696692011,1455262.0,0.025699999183416367,0.0007300000288523734,0.006130000110715628,1.0843000411987305
6772.797696464226,1455263.0,0.028710000216960907,0.0029100000392645597,-0.003809999907389283,1.083109974861145
6772.798696236441,1455264.0,0.029829999431967735,-0.00044999999227002263,0.005090000107884407,1.0834800004959106
6772.799696008657,1455265.0,0.03099999949336052,-0.003000000026077032,0.004860000219196081,1.08187997341156
6772.800695780872,1455266.0,0.03172000125050545,-0.002589999930933118,0.00031999999191612005,1.0799100399017334
6772.8016955530875,1455267.0,0.03127000108361244,-0.001500000013038516,0.003590000094845891,1.0755200386047363
6772.802695325302,1455268.0,0.030050000175833702,-0.0002300000051036477,-0.005900000222027302,1.0760200023651123
6772.803695097517,1455269.0,0.03099999949336052,0.0044999998062849045,-0.001449999981559813,1.0762499570846558
6772.804694869733,1455270.0,0.03269999846816063,0.005770000163465738,0.0002699999895412475,1.0784000158309937
6772.805694641948,1455271.0,0.03522000089287758,0.00875999964773655,-0.002589999930933118,1.0784499645233154
6772.806694414164,1455272.0,0.03765000030398369,0.0045900000259280205,-0.0019099999917671084,1.0777100324630737
6772.807694186378,1455273.0,0.0393499992787838,0.003220000071451068,-0.001180000021122396,1.0783499479293823
6772.808693958594,1455274.0,0.03925999999046326,-0.0016299999551847577,-0.001230000052601099,1.0779000520706177
6772.809693730809,1455275.0,0.0368800014257431,-0.001769999973475933,0.002360000042244792,1.0771600008010864
6772.810693503025,1455276.0,0.031849998980760574,0.0024500000290572643,-0.005679999943822622,1.0759299993515015
6772.81169327524,1455277.0,0.02515999972820282,-0.0002300000051036477,-0.0033199999015778303,1.0746899843215942
6772.8126930474555,1455278.0,0.017880000174045563,-0.006579999811947346,-0.002589999930933118,1.0743299722671509
6772.81369281967,1455279.0,0.008940000087022781,-0.0044999998062849045,-0.002589999930933118,1.0732699632644653
6772.814692591885,1455280.0,0.004000000189989805,0.0016799999866634607,0.00494999997317791,1.0709799528121948
6772.815692364101,1455281.0,0.0009399999980814755,-0.00267999991774559,-0.00018000000272877514,1.069290041923523
6772.816692136316,1455282.0,0.000539999979082495,-0.005090000107884407,0.003220000071451068,1.068560004234314
6772.817691908532,1455283.0,0.0013000000035390258,0.0011399999493733048,0.002589999930933118,1.067829966545105
6772.818691680746,1455284.0,0.0048500001430511475,0.004360000137239695,-0.004410000052303076,1.0668599605560303
6772.819691452962,1455285.0,0.008630000054836273,0.0019499999471008778,-0.0031300000846385956,1.0646699666976929
6772.820691225177,1455286.0,0.009159999899566174,0.00031999999191612005,0.0030900000128895044,1.0652199983596802
6772.821690997393,1455287.0,0.00872000027447939,0.00795000046491623,0.00031999999191612005,1.0637999773025513
6772.822690769608,1455288.0,0.009390000253915787,0.0059899999760091305,0.0021299999207258224,1.0652199983596802
6772.823690541823,1455289.0,0.012799999676644802,0.004629999864846468,0.0022299999836832285,1.0652600526809692
6772.824690314038,1455290.0,0.019449999555945396,0.012529999949038029,-0.0024500000290572643,1.0650800466537476
6772.825690086253,1455291.0,0.02865999937057495,0.01916000060737133,-0.0062699997797608376,1.0649000406265259
6772.826689858469,1455292.0,0.03513000160455704,0.006990000139921904,-0.0033199999015778303,1.0659899711608887
6772.827689630684,1455293.0,0.034860000014305115,-0.0007300000288523734,0.0036299999337643385,1.0662200450897217
6772.8286894029,1455294.0,0.02848000079393387,-0.005489999894052744,-0.0002699999895412475,1.064710021018982
6772.829689175114,1455295.0,0.0200399998575449,-0.006899999920278788,-0.0007699999841861427,1.0661300420761108
6772.83068894733,1455296.0,0.011680000461637974,-0.0051299999468028545,0.00031999999191612005,1.0655399560928345
6772.831688719545,1455297.0,0.006060000043362379,-0.01104000024497509,-0.002950000111013651,1.0630600452423096
6772.832688491761,1455298.0,0.003229999914765358,-0.004449999891221523,0.0010000000474974513,1.0615500211715698
6772.833688263976,1455299.0,-0.0007200000109151006,-0.00839999970048666,0.0019099999917671084,1.0591700077056885
6772.834688036191,1455300.0,-0.004490000195801258,-0.004809999838471413,0.00031999999191612005,1.049880027770996
6772.835687808406,1455301.0,-0.006870000157505274,-0.002409999957308173,0.006130000110715628,1.0586700439453125
6772.836687580621,1455302.0,-0.00610999995842576,0.0064500002190470695,-0.0030400000978261232,1.0604100227355957
6772.837687352837,1455303.0,-0.0029200001154094934,0.004269999917596579,-0.0007699999841861427,1.059399962425232
6772.838687125052,1455304.0,0.0003100000030826777,-0.001500000013038516,0.005270000081509352,1.0608700513839722
6772.839686897268,1455305.0,0.004490000195801258,0.001769999973475933,-0.002589999930933118,1.060130000114441
6772.840686669482,1455306.0,0.00795000046491623,0.00031999999191612005,-0.0027699999045580626,1.0590399503707886
6772.841686441698,1455307.0,0.010329999960958958,-0.005489999894052744,0.002090000081807375,1.0579400062561035
6772.842686213913,1455308.0,0.009789999574422836,-0.0028200000524520874,0.001449999981559813,1.058899998664856
6772.843685986129,1455309.0,0.01095999963581562,0.0034099998883903027,0.0010400000028312206,1.0575300455093384
6772.844685758344,1455310.0,0.012799999676644802,0.0051299999468028545,0.001769999973475933,1.0562399625778198
6772.845685530559,1455311.0,0.015990000218153,0.006310000084340572,-0.0027199999894946814,1.0533100366592407
6772.846685302774,1455312.0,0.019770000129938126,0.005679999943822622,-0.0016799999866634607,1.051759958267212
6772.847685074989,1455313.0,0.018869999796152115,0.0022299999836832285,-0.0009500000160187483,1.0425100326538086
6772.848684847205,1455314.0,0.015449999831616879,0.0019099999917671084,-0.004629999864846468,1.0517100095748901
6772.84968461942,1455315.0,0.006200000178068876,0.0014100000262260437,-0.0044999998062849045,1.0520800352096558
6772.850684391636,1455316.0,-0.0028800000436604023,-0.002589999930933118,0.00031999999191612005,1.0528099536895752
6772.85168416385,1455317.0,-0.012260000221431255,-0.006089999806135893,-0.00203999993391335,1.0518499612808228
6772.852683936066,1455318.0,-0.019859999418258667,-0.009170000441372395,0.0010000000474974513,1.0530400276184082
6772.853683708281,1455319.0,-0.025429999455809593,-0.00839999970048666,-0.004999999888241291,1.0512100458145142
6772.8546834804965,1455320.0,-0.028529999777674675,0.001500000013038516,-0.0011399999493733048,1.049149990081787
6772.855683252712,1455321.0,-0.028839999809861183,-0.0002300000051036477,0.004720000084489584,1.0450299978256226
6772.856683024927,1455322.0,-0.03009999915957451,0.002630000002682209,0.004089999943971634,1.0502500534057617
6772.857682797142,1455323.0,-0.0301900003105402,-0.0033199999015778303,9.000000136438757e-05,1.046720027923584
6772.858682569357,1455324.0,-0.02947000041604042,-0.0015899999998509884,0.0016799999866634607,1.047320008277893
6772.859682341573,1455325.0,-0.028750000521540642,0.004040000028908253,-0.0015899999998509884,1.0479099750518799
6772.860682113788,1455326.0,-0.02556000091135502,0.00014000000373926014,0.00031999999191612005,1.0448499917984009
6772.861681886004,1455327.0,-0.023719999939203262,0.0013200000394135714,0.004040000028908253,1.0462199449539185
6772.862681658218,1455328.0,-0.022690000012516975,0.0034099998883903027,-0.002589999930933118,1.0438400506973267
6772.863681430434,1455329.0,-0.01923000067472458,0.004040000028908253,0.0015899999998509884,1.0456199645996094
6772.864681202649,1455330.0,-0.012670000083744526,0.0072200000286102295,0.0008200000156648457,1.0429199934005737
6772.8656809748645,1455331.0,-0.008310000412166119,0.009759999811649323,0.003860000055283308,1.0452100038528442
6772.86668074708,1455332.0,-0.009159999899566174,0.005400000140070915,0.0019099999917671084,1.0293699502944946
6772.8676805192945,1455333.0,-0.011680000461637974,0.008310000412166119,0.00031999999191612005,1.0441099405288696
6772.86868029151,1455334.0,-0.014550000429153442,0.00031999999191612005,-0.004769999999552965,1.038159966468811
6772.869680063725,1455335.0,-0.01981000043451786,-0.002409999957308173,-0.001500000013038516,1.0425599813461304
6772.870679835941,1455336.0,-0.026590000838041306,-0.002090000081807375,0.0015399999683722854,1.0374300479888916
6772.871679608156,1455337.0,-0.031939998269081116,-0.006039999891072512,0.0052200001664459705,1.0414600372314453
6772.872679380371,1455338.0,-0.036389999091625214,-0.003909999970346689,-0.0029100000392645597,1.035640001296997
6772.873679152586,1455339.0,-0.04100999981164932,-0.007670000195503235,-0.0018599999602884054,1.0391199588775635
6772.874678924802,1455340.0,-0.04447000101208687,-0.002589999930933118,0.00031999999191612005,1.0330400466918945
6772.875678697017,1455341.0,-0.04757000133395195,-0.0011399999493733048,0.00031999999191612005,1.0385299921035767
6772.8766784692325,1455342.0,-0.048250000923871994,-0.002589999930933118,0.0024999999441206455,1.0271799564361572
6772.877678241448,1455343.0,-0.04816000163555145,0.00031999999191612005,-0.0036800000816583633,1.03725004196167
6772.8786780136625,1455344.0,-0.047439999878406525,0.004540000110864639,-0.0019099999917671084,1.0324900150299072
6772.879677785878,1455345.0,-0.046810001134872437,0.004679999779909849,0.00031999999191612005,1.0358699560165405
6772.880677558093,1455346.0,-0.04546000063419342,0.0024999999441206455,-0.001180000021122396,1.0284600257873535
6772.881677330309,1455347.0,-0.04438000172376633,0.0014100000262260437,-0.0024500000290572643,1.033769965171814
6772.882677102524,1455348.0,-0.04438000172376633,-0.00014000000373926014,-0.0019099999917671084,1.030329942703247
6772.883676874739,1455349.0,-0.04374999925494194,0.006490000057965517,0.0030900000128895044,1.0308400392532349
6772.884676646954,1455350.0,-0.04016000032424927,0.004540000110864639,0.0002699999895412475,1.0292799472808838
6772.88567641917,1455351.0,-0.03612000122666359,0.008220000192523003,0.0002699999895412475,1.0299700498580933
6772.886676191385,1455352.0,-0.03302000090479851,-0.0007699999841861427,-0.004410000052303076,1.0219999551773071
6772.8876759636005,1455353.0,-0.033560000360012054,0.0008200000156648457,-0.0009500000160187483,1.02892005443573
6772.888675735816,1455354.0,-0.03714999929070473,-0.0031300000846385956,0.0013200000394135714,1.0240199565887451
6772.88967550803,1455355.0,-0.043310001492500305,-0.0030900000128895044,-0.004040000028908253,1.028090000152588
6772.890675280246,1455356.0,-0.05138999968767166,-0.0034099998883903027,-0.005489999894052744,1.0235099792480469
6772.891675052461,1455357.0,-0.0573199987411499,-0.004310000222176313,0.002319999970495701,1.025480031967163
6772.892674824677,1455358.0,-0.061810001730918884,-0.00839999970048666,0.005270000081509352,1.0242500305175781
6772.893674596892,1455359.0,-0.06631000339984894,-0.009220000356435776,0.00031999999191612005,1.0220500230789185
6772.894674369107,1455360.0,-0.06782999634742737,-0.0022299999836832285,-0.0014100000262260437,1.0242500305175781
6772.895674141322,1455361.0,-0.06486999988555908,0.0016799999866634607,0.0013200000394135714,1.0189800262451172
6772.896673913538,1455362.0,-0.057679999619722366,0.00031999999191612005,-0.001449999981559813,1.022779941558838
6772.897673685753,1455363.0,-0.05138999968767166,0.003949999809265137,-0.0037700000684708357,1.0059399604797363
6772.8986734579685,1455364.0,-0.04828999936580658,0.0020000000949949026,0.003449999960139394,1.0214999914169312
6772.899673230184,1455365.0,-0.04842999950051308,-0.00041000000783242285,0.0037700000684708357,1.0154999494552612
6772.900673002398,1455366.0,-0.049949999898672104,0.00031999999191612005,-0.005900000222027302,1.0205399990081787
6772.901672774614,1455367.0,-0.04879000037908554,-0.0031300000846385956,-0.003909999970346689,1.013990044593811
6772.902672546829,1455368.0,-0.04627000167965889,-0.002589999930933118,0.005950000137090683,1.0191199779510498
6772.903672319045,1455369.0,-0.0399399995803833,0.01370999962091446,-0.001180000021122396,1.0081299543380737
6772.90467209126,1455370.0,-0.03482000157237053,0.017030000686645508,-0.002589999930933118,1.0163300037384033
6772.905671863475,1455371.0,-0.03288000077009201,0.0052200001664459705,-0.0018599999602884054,1.0092300176620483
6772.90667163569,1455372.0,-0.031129999086260796,-0.003220000071451068,-0.00018000000272877514,1.0161900520324707
6772.907671407906,1455373.0,-0.032340001314878464,-0.00749000022187829,0.008899999782443047,1.0022300481796265
6772.908671180121,1455374.0,-0.03539999946951866,-0.005489999894052744,0.0008200000156648457,1.013990044593811
6772.9096709523365,1455375.0,-0.039170000702142715,-0.0072200000286102295,0.00031999999191612005,1.0110199451446533
6772.910670724552,1455376.0,-0.04416000097990036,-0.00803999975323677,-0.00044999999227002263,1.0112500190734863
6772.911670496766,1455377.0,-0.048700001090765,-0.0015899999998509884,-0.00571999978274107,1.0130300521850586
6772.912670268982,1455378.0,-0.053369998931884766,-0.0030400000978261232,-0.0031300000846385956,1.0068999528884888
6772.913670041197,1455379.0,-0.05722999945282936,-0.003860000055283308,0.0016799999866634607,1.0119800567626953
6772.914669813413,1455380.0,-0.05641999840736389,-0.0018599999602884054,0.0012700000079348683,1.0069400072097778
6772.915669585628,1455381.0,-0.053279999643564224,0.00686000008136034,-0.0019499999471008778,1.010699987411499
6772.916669357843,1455382.0,-0.049150001257658005,0.006490000057965517,-0.006579999811947346,1.0051599740982056
6772.917669130058,1455383.0,-0.04617999866604805,0.004040000028908253,0.0035000001080334187,1.0095499753952026
6772.918668902274,1455384.0,-0.044520001858472824,0.0015899999998509884,-0.0020000000949949026,1.0048799514770508
6772.919668674489,1455385.0,-0.042410001158714294,0.00031999999191612005,-0.0031300000846385956,1.0081299543380737
6772.920668446704,1455386.0,-0.04163999855518341,-0.002630000002682209,-0.002859999891370535,1.0030100345611572
6772.92166821892,1455387.0,-0.04276999831199646,0.0017300000181421638,0.0018599999602884054,1.0070300102233887
6772.922667991134,1455388.0,-0.04295000061392784,0.0016299999551847577,-0.0006399999838322401,0.9981499910354614
6772.92366776335,1455389.0,-0.039889998733997345,0.006130000110715628,-0.0008200000156648457,1.00177001953125
6772.924667535565,1455390.0,-0.03440999984741211,0.009039999917149544,-0.00494999997317791,1.0051599740982056
6772.925667307781,1455391.0,-0.029829999431967735,0.009759999811649323,-0.001820000004954636,1.0000799894332886
6772.926667079996,1455392.0,-0.02857000008225441,0.00031999999191612005,0.00031999999191612005,1.001039981842041
6772.927666852211,1455393.0,-0.03279000148177147,-0.0015899999998509884,-0.0021800000686198473,1.0043799877166748
6772.928666624426,1455394.0,-0.03971000015735626,-0.001500000013038516,-0.0025400000158697367,1.0000799894332886
6772.929666396642,1455395.0,-0.047029998153448105,-0.003809999907389283,-0.0010400000028312206,1.0037399530410767
6772.930666168857,1455396.0,-0.05463000014424324,-0.00798999983817339,-0.0006799999973736703,0.9838700294494629
6772.931665941072,1455397.0,-0.0616299994289875,-0.0063599999994039536,-0.0011399999493733048,1.0020400285720825
6772.932665713287,1455398.0,-0.06496000289916992,-0.009850000031292439,-0.002409999957308173,0.9977899789810181
6772.933665485502,1455399.0,-0.06571999937295914,-0.002589999930933118,0.001769999973475933,0.9987900257110596
6772.934665257718,1455400.0,-0.06244000047445297,-4.999999873689376e-05,-0.000539999979082495,0.9975100159645081
6772.935665029933,1455401.0,-0.05741000175476074,-0.005950000137090683,0.004410000052303076,1.0009000301361084
6772.936664802149,1455402.0,-0.052469998598098755,0.009759999811649323,-0.0051299999468028545,0.9916499853134155
6772.937664574363,1455403.0,-0.048650000244379044,0.01298999972641468,0.0031799999997019768,0.9993399977684021
6772.938664346579,1455404.0,-0.04636000096797943,0.009039999917149544,0.0052200001664459705,0.9972800016403198
6772.939664118794,1455405.0,-0.045729998499155045,0.006810000166296959,0.004629999864846468,0.9962300062179565
6772.9406638910095,1455406.0,-0.04433999955654144,0.002859999891370535,0.00031999999191612005,0.9989799857139587
6772.941663663225,1455407.0,-0.04066000133752823,-0.001230000052601099,0.0014100000262260437,0.9934800267219543
6772.94266343544,1455408.0,-0.036660000681877136,-0.0033599999733269215,-0.0015899999998509884,0.9975100159645081
6772.943663207655,1455409.0,-0.03198999911546707,-0.0005000000237487257,-0.0037700000684708357,0.9982500076293945
6772.94466297987,1455410.0,-0.022690000012516975,9.000000136438757e-05,0.0037700000684708357,0.9945799708366394
6772.945662752086,1455411.0,-0.01384000014513731,0.006630000192672014,0.004129999782890081,0.9934399724006653
6772.946662524301,1455412.0,-0.008799999952316284,-0.0012700000079348683,0.0010400000028312206,0.9972400069236755
6772.947662296517,1455413.0,-0.009119999594986439,4.999999873689376e-05,0.00203999993391335,0.9797499775886536
6772.948662068731,1455414.0,-0.009519999846816063,-0.000859999970998615,-0.002589999930933118,0.9960500001907349
6772.949661840947,1455415.0,-0.01271000038832426,-0.005770000163465738,-0.003449999960139394,0.9937099814414978
6772.950661613162,1455416.0,-0.01899999938905239,-0.0076299998909235,-0.0033199999015778303,0.9925199747085571
6772.9516613853775,1455417.0,-0.02606000006198883,-0.00686000008136034,-0.0011399999493733048,0.9940299987792969
6772.952661157593,1455418.0,-0.03215999901294708,-0.0045900000259280205,-0.001820000004954636,0.9912899732589722
6772.953660929808,1455419.0,-0.03539999946951866,-0.008489999920129776,-0.004089999943971634,0.9939900040626526
6772.954660702023,1455420.0,-0.03440999984741211,-0.004900000058114529,0.00014000000373926014,0.9900500178337097
6772.955660474238,1455421.0,-0.032660000026226044,-0.004129999782890081,0.0024999999441206455,0.9941700100898743
6772.956660246454,1455422.0,-0.030050000175833702,0.0025400000158697367,-0.002090000081807375,0.9902799725532532
6772.957660018669,1455423.0,-0.028750000521540642,0.0024500000290572643,-0.0031799999997019768,0.9937599897384644
6772.958659790885,1455424.0,-0.026319999247789383,0.004040000028908253,0.00031999999191612005,0.9890900254249573
6772.959659563099,1455425.0,-0.02394000068306923,0.006899999920278788,0.002360000042244792,0.9934800267219543
6772.960659335315,1455426.0,-0.022690000012516975,0.0024500000290572643,-0.001769999973475933,0.9887199997901917
6772.96165910753,1455427.0,-0.021069999784231186,-0.0009500000160187483,-9.000000136438757e-05,0.9929800033569336
6772.9626588797455,1455428.0,-0.01891000010073185,0.0013200000394135714,0.004900000058114529,0.9733399748802185
6772.963658651961,1455429.0,-0.016440000385046005,-0.0036299999337643385,0.005179999861866236,0.9918799996376038
6772.964658424176,1455430.0,-0.0142000000923872,0.004679999779909849,0.00203999993391335,0.9755399823188782
6772.965658196391,1455431.0,-0.012310000136494637,0.005590000189840794,0.00031999999191612005,0.9919300079345703
6772.966657968606,1455432.0,-0.01271000038832426,0.004410000052303076,0.00031999999191612005,0.9858400225639343
6772.967657740822,1455433.0,-0.014600000344216824,0.0024999999441206455,-0.0007300000288523734,0.9905499815940857
6772.968657513037,1455434.0,-0.016939999535679817,0.007360000163316727,-0.0030400000978261232,0.9862499833106995
6772.969657285253,1455435.0,-0.020840000361204147,-0.0035000001080334187,-0.0014100000262260437,0.9905499815940857
6772.970657057467,1455436.0,-0.0258799996227026,-0.004360000137239695,-0.002589999930933118,0.9847000241279602
6772.971656829683,1455437.0,-0.03109000064432621,-0.008449999615550041,0.0010400000028312206,0.9890900254249573
6772.972656601898,1455438.0,-0.03522000089287758,-0.00686000008136034,0.0010000000474974513,0.9803000092506409
6772.9736563741135,1455439.0,-0.0384100005030632,-0.003909999970346689,-0.006219999864697456,0.9883599877357483
6772.974656146329,1455440.0,-0.03872000053524971,0.0002699999895412475,0.001769999973475933,0.984470009803772
6772.975655918544,1455441.0,-0.03943999856710434,-0.0010400000028312206,0.004449999891221523,0.9883599877357483
6772.976655690759,1455442.0,-0.039889998733997345,-0.00267999991774559,0.002859999891370535,0.9838700294494629
6772.977655462974,1455443.0,-0.03971000015735626,0.005770000163465738,-0.001500000013038516,0.9874399900436401
6772.97865523519,1455444.0,-0.03822999820113182,0.003220000071451068,0.00014000000373926014,0.981719970703125
6772.979655007405,1455445.0,-0.0384100005030632,0.005179999861866236,4.999999873689376e-05,0.9856600165367126
6772.980654779621,1455446.0,-0.03822999820113182,-0.0014100000262260437,-0.0016299999551847577,0.9821299910545349
6772.981654551835,1455447.0,-0.03822999820113182,0.00031999999191612005,-0.004679999779909849,0.9865300059318542
6772.982654324051,1455448.0,-0.03809000179171562,-0.0021800000686198473,0.00267999991774559,0.9759100079536438
6772.983654096266,1455449.0,-0.034860000014305115,0.00018000000272877514,0.0017300000181421638,0.9847000241279602
6772.9846538684815,1455450.0,-0.029020000249147415,0.003809999907389283,-0.0017300000181421638,0.9759100079536438
6772.985653640697,1455451.0,-0.02597000077366829,0.002859999891370535,-0.0002699999895412475,0.9847000241279602
6772.986653412912,1455452.0,-0.022690000012516975,0.003719999920576811,9.000000136438757e-05,0.9799799919128418
6772.987653185127,1455453.0,-0.019950000569224358,0.003719999920576811,0.0016799999866634607,0.9843299984931946
6772.988652957342,1455454.0,-0.01860000006854534,0.0009500000160187483,-0.0018599999602884054,0.9795699715614319
6772.989652729558,1455455.0,-0.022460000589489937,0.0016799999866634607,-0.004999999888241291,0.9832299947738647
6772.990652501773,1455456.0,-0.027580000460147858,-0.006579999811947346,-0.002589999930933118,0.98021000623703
6772.991652273989,1455457.0,-0.03279000148177147,-0.005489999894052744,-0.0007300000288523734,0.982729971408844
6772.992652046203,1455458.0,-0.03711000084877014,-0.007670000195503235,-0.0007699999841861427,0.9795699715614319
6772.993651818419,1455459.0,-0.04075000062584877,-0.00749000022187829,0.0,0.9822700023651123
6772.994651590634,1455460.0,-0.042319998145103455,0.00031999999191612005,0.0010000000474974513,0.9786999821662903
6772.9956513628495,1455461.0,-0.041099999099969864,0.0018599999602884054,-0.000859999970998615,0.9816300272941589
6772.996651135065,1455462.0,-0.038270000368356705,0.012310000136494637,0.003220000071451068,0.9781000018119812
6772.997650907279,1455463.0,-0.034860000014305115,0.01775999926030636,-9.000000136438757e-05,0.9817699790000916
6772.998650679495,1455464.0,-0.03139999881386757,0.009759999811649323,0.0022700000554323196,0.9762700200080872
6772.99965045171,1455465.0,-0.02776000089943409,0.007449999917298555,0.0021299999207258224,0.981220006942749
6773.000650223926,1455466.0,-0.025469999760389328,-0.0013200000394135714,0.00031999999191612005,0.9762300252914429
6773.001649996141,1455467.0,-0.02425999939441681,-0.004410000052303076,-0.002589999930933118,0.9797099828720093
6773.002649768356,1455468.0,-0.023269999772310257,-0.002859999891370535,-0.000910000002477318,0.9728400111198425
6773.003649540571,1455469.0,-0.020840000361204147,0.004679999779909849,-0.0006799999973736703,0.9788399934768677
6773.004649312787,1455470.0,-0.01779000088572502,0.004769999999552965,-0.0031300000846385956,0.9754499793052673
6773.005649085002,1455471.0,-0.01841999962925911,0.007809999864548445,0.0007699999841861427,0.9757699966430664
6773.006648857217,1455472.0,-0.02281999960541725,-0.0015399999683722854,0.004269999917596579,0.9788399934768677
6773.007648629433,1455473.0,-0.02606000006198883,-0.0010900000343099236,-0.0019499999471008778,0.976140022277832
6773.008648401647,1455474.0,-0.02857000008225441,-0.0016799999866634607,-0.0033599999733269215,0.9737100005149841
6773.009648173863,1455475.0,-0.03269999846816063,-0.00839999970048666,-0.00418000016361475,0.9781000018119812
6773.010647946078,1455476.0,-0.03678999841213226,-0.007079999893903732,-0.004310000222176313,0.9759100079536438
6773.011647718294,1455477.0,-0.04016000032424927,-0.006630000192672014,0.003719999920576811,0.9734799861907959
6773.012647490509,1455478.0,-0.042319998145103455,-0.010219999589025974,-0.001180000021122396,0.9767799973487854
6773.013647262724,1455479.0,-0.04205000028014183,-0.008899999782443047,0.00203999993391335,0.9758599996566772
6773.014647034939,1455480.0,-0.03943999856710434,-0.0030400000978261232,-0.005859999917447567,0.9724699854850769
6773.015646807155,1455481.0,-0.03468000143766403,0.007579999975860119,-0.002859999891370535,0.9759100079536438
6773.01664657937,1455482.0,-0.030820000916719437,0.005590000189840794,0.002319999970495701,0.972790002822876
6773.017646351585,1455483.0,-0.025429999455809593,0.006810000166296959,9.000000136438757e-05,0.9722899794578552
6773.018646123801,1455484.0,-0.02111000008881092,0.010850000195205212,-0.0022299999836832285,0.9749500155448914
6773.019645896015,1455485.0,-0.016529999673366547,0.000859999970998615,-0.0033199999015778303,0.9729800224304199
6773.020645668231,1455486.0,-0.012529999949038029,0.0020000000949949026,0.003220000071451068,0.9727500081062317
6773.021645440446,1455487.0,-0.01221999991685152,0.00014000000373926014,0.004310000222176313,0.9743499755859375
6773.022645212662,1455488.0,-0.013030000030994415,-0.0011399999493733048,-0.00018000000272877514,0.9713699817657471
6773.023644984877,1455489.0,-0.01095999963581562,0.0022700000554323196,-0.0015399999683722854,0.975130021572113
6773.024644757092,1455490.0,-0.006560000125318766,-0.002589999930933118,0.005270000081509352,0.9698600172996521
6773.025644529307,1455491.0,-0.0013500000350177288,0.00031999999191612005,-0.0002699999895412475,0.9744399785995483
6773.0266443015225,1455492.0,0.003860000055283308,-0.0027199999894946814,-0.0009500000160187483,0.9704099893569946
6773.027644073738,1455493.0,0.003280000062659383,-0.0016799999866634607,-0.003909999970346689,0.9729800224304199
6773.028643845953,1455494.0,0.0026100000832229853,0.00686000008136034,-0.004129999782890081,0.9709600210189819
6773.029643618169,1455495.0,-0.00018000000272877514,-0.004679999779909849,-0.0006399999838322401,0.9698600172996521
6773.030643390383,1455496.0,-0.006060000043362379,-0.0062699997797608376,0.001180000021122396,0.9722399711608887
6773.031643162599,1455497.0,-0.012400000356137753,-0.0031300000846385956,-0.005489999894052744,0.9685800075531006
6773.032642934814,1455498.0,-0.017249999567866325,-0.0021299999207258224,-0.002630000002682209,0.9729800224304199
6773.03364270703,1455499.0,-0.018689999356865883,-0.0030400000978261232,-0.0034099998883903027,0.9678000211715698
6773.034642479245,1455500.0,-0.015629999339580536,-0.002409999957308173,0.002589999930933118,0.9713699817657471
6773.03564225146,1455501.0,-0.011500000022351742,0.00031999999191612005,0.003719999920576811,0.9685800075531006
6773.036642023675,1455502.0,-0.009069999679923058,0.002859999891370535,0.003220000071451068,0.9685800075531006
6773.0376417958905,1455503.0,-0.008630000054836273,0.005400000140070915,-0.0007699999841861427,0.9704099893569946
6773.038641568106,1455504.0,-0.009209999814629555,0.0045900000259280205,-0.0031300000846385956,0.9681199789047241
6773.039641340321,1455505.0,-0.009970000013709068,0.004679999779909849,0.004040000028908253,0.9700000286102295
6773.040641112537,1455506.0,-0.01095999963581562,0.003539999946951866,0.00031999999191612005,0.9648699760437012
6773.041640884751,1455507.0,-0.010830000042915344,0.004769999999552965,0.00031999999191612005,0.9700499773025513
6773.042640656967,1455508.0,-0.01001999992877245,0.002319999970495701,0.0010000000474974513,0.9553999900817871
6773.043640429182,1455509.0,-0.005439999978989363,0.000859999970998615,0.00031999999191612005,0.9700000286102295
6773.044640201398,1455510.0,0.001979999942705035,0.0030400000978261232,-0.002090000081807375,0.9655600190162659
6773.045639973613,1455511.0,0.009610000066459179,0.005950000137090683,0.0002699999895412475,0.9684399962425232
6773.046639745828,1455512.0,0.014550000429153442,0.0015399999683722854,0.00031999999191612005,0.9646000266075134
6773.047639518043,1455513.0,0.017559999600052834,0.006039999891072512,-0.0007699999841861427,0.9682199954986572
6773.0486392902585,1455514.0,0.01981000043451786,-0.000910000002477318,-0.0036800000816583633,0.964739978313446
6773.049639062474,1455515.0,0.01923000067472458,-0.006310000084340572,-0.005489999894052744,0.9671199917793274
6773.050638834689,1455516.0,0.015860000625252724,-0.0071299998089671135,0.0037700000684708357,0.9638699889183044
6773.051638606905,1455517.0,0.009429999627172947,-0.011490000411868095,-4.999999873689376e-05,0.9661099910736084
6773.052638379119,1455518.0,0.005750000011175871,-0.010350000113248825,-0.003719999920576811,0.9651899933815002
6773.053638151335,1455519.0,0.003590000094845891,-0.007540000136941671,-0.0002300000051036477,0.9641000032424927
6773.05463792355,1455520.0,0.0017999999690800905,-0.005679999943822622,0.0014100000262260437,0.9662500023841858
6773.055637695766,1455521.0,0.0034600000362843275,-0.002589999930933118,0.006539999973028898,0.9543499946594238
6773.056637467981,1455522.0,0.007910000160336494,0.00913000013679266,-0.001500000013038516,0.9662500023841858
6773.057637240196,1455523.0,0.013209999538958073,0.0024500000290572643,-0.002589999930933118,0.9623600244522095
6773.058637012411,1455524.0,0.018279999494552612,0.017030000686645508,-0.001180000021122396,0.9665700197219849
6773.0596367846265,1455525.0,0.02223999984562397,0.008449999615550041,0.0010000000474974513,0.9607999920845032
6773.060636556842,1455526.0,0.023310000076889992,0.005450000055134296,0.004310000222176313,0.9652900099754333
6773.061636329057,1455527.0,0.023809999227523804,-4.999999873689376e-05,-0.0003600000054575503,0.9605299830436707
6773.062636101272,1455528.0,0.022460000589489937,-0.0011399999493733048,-0.004900000058114529,0.9651899933815002
6773.063635873487,1455529.0,0.021379999816417694,0.005400000140070915,-0.0002699999895412475,0.9597899913787842
6773.064635645703,1455530.0,0.02263999916613102,0.0013200000394135714,0.0022299999836832285,0.9641900062561035
6773.065635417918,1455531.0,0.021970000118017197,0.005179999861866236,-0.0009500000160187483,0.9597499966621399
6773.066635190134,1455532.0,0.020479999482631683,0.0024999999441206455,0.00014000000373926014,0.964460015296936
6773.067634962348,1455533.0,0.01931999996304512,-0.0036800000816583633,0.0024500000290572643,0.9581900238990784
6773.068634734564,1455534.0,0.017249999567866325,-0.002950000111013651,-0.002090000081807375,0.9628599882125854
6773.069634506779,1455535.0,0.011859999969601631,-0.009809999726712704,-0.006039999891072512,0.9575499892234802
6773.0706342789945,1455536.0,0.0028800000436604023,-0.004769999999552965,-0.001449999981559813,0.9627199769020081
6773.07163405121,1455537.0,-0.005210000090301037,-0.007670000195503235,0.0019099999917671084,0.9588800072669983
6773.072633823425,1455538.0,-0.011140000075101852,-0.0059899999760091305,-0.004040000028908253,0.9596099853515625
6773.07363359564,1455539.0,-0.0142000000923872,0.001449999981559813,-0.005539999809116125,0.9612600207328796
6773.074633367855,1455540.0,-0.01384000014513731,0.0030400000978261232,0.0007699999841861427,0.9572299718856812
6773.075633140071,1455541.0,-0.00965999998152256,0.004310000222176313,0.004679999779909849,0.9573699831962585
6773.076632912286,1455542.0,-0.004540000110864639,0.007579999975860119,-0.002630000002682209,0.9570900201797485
6773.077632684502,1455543.0,-0.0014400000218302011,0.0024999999441206455,-0.004629999864846468,0.9581500291824341
6773.078632456716,1455544.0,-0.0017099999822676182,-0.002950000111013651,0.002630000002682209,0.956089973449707
6773.079632228932,1455545.0,-0.00107999995816499,0.00203999993391335,0.0022700000554323196,0.9546700119972229
6773.080632001147,1455546.0,0.0008999999845400453,0.00031999999191612005,0.002859999891370535,0.951740026473999
6773.0816317733625,1455547.0,0.0034099998883903027,0.0002699999895412475,0.003949999809265137,0.9477999806404114
6773.082631545578,1455548.0,0.005710000172257423,-0.0017300000181421638,-0.0013599999947473407,0.9553499817848206
6773.083631317793,1455549.0,0.008270000107586384,0.0016799999866634607,-0.0071299998089671135,0.9553999900817871
6773.084631090008,1455550.0,0.012260000221431255,0.0022299999836832285,0.003000000026077032,0.9567700028419495
6773.085630862223,1455551.0,0.019500000402331352,0.007079999893903732,-0.005040000192821026,0.9589200019836426
6773.086630634439,1455552.0,0.023000000044703484,-0.0013200000394135714,0.00031999999191612005,0.9599800109863281
6773.087630406654,1455553.0,0.021740000694990158,0.004310000222176313,-0.000590000010561198,0.9574099779129028
6773.08863017887,1455554.0,0.01508999988436699,0.0024500000290572643,-0.00839999970048666,0.9581900238990784
6773.089629951084,1455555.0,0.005619999952614307,-0.0009500000160187483,-0.0036800000816583633,0.9572799801826477
6773.0906297233,1455556.0,-0.0069599999114871025,-0.0012700000079348683,0.00018000000272877514,0.9564999938011169
6773.091629495515,1455557.0,-0.02273000031709671,-0.00989999994635582,0.0031799999997019768,0.9553999900817871
6773.09262926773,1455558.0,-0.03863000124692917,-0.005040000192821026,0.00031999999191612005,0.954479992389679
6773.093629039946,1455559.0,-0.05183999985456467,-0.00839999970048666,0.0072200000286102295,0.9538900256156921
6773.094628812161,1455560.0,-0.0611799992620945,0.0010000000474974513,-0.0011399999493733048,0.9538000226020813
6773.095628584376,1455561.0,-0.06999000161886215,-0.000859999970998615,-0.0021299999207258224,0.953249990940094
6773.096628356591,1455562.0,-0.07609999924898148,0.0013200000394135714,-0.0022299999836832285,0.9506800174713135
6773.097628128807,1455563.0,-0.08489999920129776,-0.002589999930933118,-0.004220000002533197,0.9538900256156921
6773.098627901022,1455564.0,-0.09515000134706497,0.0037700000684708357,0.0,0.9535199999809265
6773.099627673238,1455565.0,-0.10673999786376953,0.006130000110715628,-0.001449999981559813,0.9575999975204468
6773.100627445452,1455566.0,-0.11823999881744385,0.0010000000474974513,0.001180000021122396,0.9566299915313721
6773.101627217668,1455567.0,-0.12812000513076782,0.001820000004954636,-0.0011399999493733048,0.9396499991416931
6773.102626989883,1455568.0,-0.13516999781131744,0.00267999991774559,0.00031999999191612005,0.9524700045585632
6773.103626762098,1455569.0,-0.13777999579906464,-0.0005000000237487257,0.003220000071451068,0.9524700045585632
6773.104626534314,1455570.0,-0.13544000685214996,0.002409999957308173,0.0031300000846385956,0.9541599750518799
6773.105626306529,1455571.0,-0.1312599927186966,-9.000000136438757e-05,0.006130000110715628,0.9569100141525269
6773.106626078744,1455572.0,-0.12803000211715698,0.0010400000028312206,0.00203999993391335,0.9524700045585632
6773.107625850959,1455573.0,-0.12453000247478485,0.003220000071451068,0.0012700000079348683,0.9553999900817871
6773.108625623175,1455574.0,-0.11931999772787094,-0.0033199999015778303,-0.00014000000373926014,0.9524700045585632
6773.10962539539,1455575.0,-0.11392000317573547,-0.005679999943822622,0.0033199999015778303,0.9546700119972229
6773.110625167606,1455576.0,-0.10750000178813934,-0.001500000013038516,-0.003719999920576811,0.9521499872207642
6773.11162493982,1455577.0,-0.0982000008225441,-0.004129999782890081,-0.0036800000816583633,0.9553999900817871
6773.1126247120355,1455578.0,-0.08660999685525894,-0.000910000002477318,0.002319999970495701,0.9516000151634216
6773.113624484251,1455579.0,-0.07564999908208847,-0.007309999782592058,0.00031999999191612005,0.9564099907875061
6773.114624256466,1455580.0,-0.06069000065326691,-4.999999873689376e-05,-0.0002699999895412475,0.9510999917984009
6773.115624028682,1455581.0,-0.04047999903559685,-0.0010900000343099236,0.0044999998062849045,0.9553999900817871
6773.116623800897,1455582.0,-0.01882000081241131,0.0035000001080334187,9.000000136438757e-05,0.951740026473999
6773.117623573112,1455583.0,0.004129999782890081,0.004679999779909849,0.0,0.9542999863624573
6773.118623345327,1455584.0,0.03149000182747841,0.00267999991774559,-0.000910000002477318,0.9538000226020813
6773.119623117543,1455585.0,0.061810001730918884,0.004679999779909849,0.005590000189840794,0.9531999826431274
6773.120622889758,1455586.0,0.09307999908924103,0.0020000000949949026,0.005179999861866236,0.9502699971199036
6773.121622661974,1455587.0,0.12775999307632446,0.0031300000846385956,0.00018000000272877514,0.9541199803352356
6773.122622434188,1455588.0,0.16208000481128693,0.0024999999441206455,0.00018000000272877514,0.9477499723434448
6773.1236222064035,1455589.0,0.19666999578475952,0.005950000137090683,-0.0010000000474974513,0.9549000263214111
6773.124621978619,1455590.0,0.2249699980020523,0.010759999975562096,-0.002090000081807375,0.9511399865150452
6773.125621750834,1455591.0,0.24221999943256378,0.007400000002235174,-0.00041000000783242285,0.9458799958229065
6773.12662152305,1455592.0,0.2532300055027008,0.007449999917298555,-0.0011399999493733048,0.9544399976730347
6773.127621295264,1455593.0,0.26504001021385193,0.0037700000684708357,-0.001820000004954636,0.948989987373352
6773.12862106748,1455594.0,0.27731001377105713,0.004310000222176313,0.0027199999894946814,0.9546700119972229
6773.129620839695,1455595.0,0.29262998700141907,-0.0024999999441206455,-0.002589999930933118,0.9480699896812439
6773.130620611911,1455596.0,0.3064599931240082,-0.005489999894052744,-0.009850000031292439,0.9523299932479858
6773.131620384126,1455597.0,0.3142800033092499,-0.00803999975323677,-0.0021800000686198473,0.951740026473999
6773.132620156341,1455598.0,0.31850001215934753,-0.008630000054836273,-0.0002300000051036477,0.9495400190353394
6773.133619928556,1455599.0,0.32659000158309937,-0.010940000414848328,-0.000590000010561198,0.9528800249099731
6773.1346197007715,1455600.0,0.3336000144481659,0.0014100000262260437,-0.004410000052303076,0.9487599730491638
6773.135619472987,1455601.0,0.33601999282836914,0.0021800000686198473,-0.0006399999838322401,0.9523299932479858
6773.136619245202,1455602.0,0.3291899859905243,-0.002319999970495701,0.00014000000373926014,0.9482100009918213
6773.137619017418,1455603.0,0.3125300109386444,-0.004410000052303076,0.00031999999191612005,0.9527000188827515
6773.138618789632,1455604.0,0.29541000723838806,0.002409999957308173,-0.005040000192821026,0.9400200247764587
6773.139618561848,1455605.0,0.2862899899482727,0.003220000071451068,0.0010000000474974513,0.9509999752044678
6773.140618334063,1455606.0,0.28255999088287354,0.0036299999337643385,-0.003719999920576811,0.9472500085830688
6773.141618106279,1455607.0,0.27847999334335327,0.00031999999191612005,-0.0016799999866634607,0.9511899948120117
6773.142617878494,1455608.0,0.2725900113582611,-0.000590000010561198,-0.004769999999552965,0.9460099935531616
6773.143617650709,1455609.0,0.2705700099468231,0.003909999970346689,-0.002589999930933118,0.9502699971199036
6773.144617422924,1455610.0,0.2770400047302246,0.007449999917298555,-0.00018000000272877514,0.9462400078773499
6773.1456171951395,1455611.0,0.2812199890613556,0.0024999999441206455,-0.001230000052601099,0.9507799744606018
6773.146616967355,1455612.0,0.27114999294281006,0.0016799999866634607,0.001500000013038516,0.9378200173377991
6773.14761673957,1455613.0,0.25040000677108765,0.002950000111013651,-0.0006399999838322401,0.9495400190353394
6773.148616511786,1455614.0,0.2237199991941452,0.001500000013038516,0.0012700000079348683,0.9454200267791748
6773.149616284,1455615.0,0.1957699954509735,-0.0076299998909235,0.003860000055283308,0.9508200287818909
6773.150616056216,1455616.0,0.17381000518798828,-0.006310000084340572,-0.0016799999866634607,0.9436799883842468
6773.151615828431,1455617.0,0.1536400020122528,-0.004860000219196081,-0.006579999811947346,0.9487599730491638
6773.152615600647,1455618.0,0.13247999548912048,0.0010400000028312206,-0.0033199999015778303,0.9446399807929993
6773.153615372862,1455619.0,0.11087000370025635,0.0022700000554323196,0.0022299999836832285,0.9495400190353394
6773.154615145077,1455620.0,0.09132999926805496,-0.00571999978274107,-0.0011399999493733048,0.9434099793434143
6773.155614917292,1455621.0,0.07492999732494354,-0.0035000001080334187,0.00031999999191612005,0.9488099813461304
6773.1566146895075,1455622.0,0.06279999762773514,-0.005489999894052744,-0.002589999930933118,0.9397900104522705
6773.157614461723,1455623.0,0.05282999947667122,0.004679999779909849,0.003590000094845891,0.9466099739074707
6773.158614233938,1455624.0,0.044199999421834946,-0.0021800000686198473,0.0063599999994039536,0.9436799883842468
6773.159614006154,1455625.0,0.03593999892473221,0.004720000084489584,-0.0027699999045580626,0.943589985370636
6773.160613778368,1455626.0,0.026319999247789383,0.006630000192672014,-0.0010400000028312206,0.9473400115966797
6773.161613550584,1455627.0,0.01671000011265278,0.0021299999207258224,0.0030400000978261232,0.9417099952697754
6773.162613322799,1455628.0,0.007910000160336494,0.003000000026077032,-0.0007699999841861427,0.9469299912452698
6773.163613095015,1455629.0,0.005880000069737434,0.008949999697506428,-0.00041000000783242285,0.9422100186347961
6773.16461286723,1455630.0,0.008179999887943268,0.010759999975562096,0.0031300000846385956,0.94514000415802
6773.165612639445,1455631.0,0.010870000347495079,0.004449999891221523,0.001769999973475933,0.9378200173377991
6773.16661241166,1455632.0,0.012889999896287918,0.0030400000978261232,-0.000590000010561198,0.9447799921035767
6773.1676121838755,1455633.0,0.013340000063180923,0.003949999809265137,0.0025400000158697367,0.9416700005531311
6773.168611956091,1455634.0,0.013120000250637531,-0.002319999970495701,4.999999873689376e-05,0.944320023059845
6773.169611728306,1455635.0,0.010470000095665455,-0.007720000110566616,0.0011399999493733048,0.9405199885368347
6773.170611500522,1455636.0,0.005750000011175871,-0.013489999808371067,-0.0006799999973736703,0.9434999823570251
6773.171611272736,1455637.0,0.0013000000035390258,-0.005489999894052744,0.0018599999602884054,0.9396499991416931
6773.172611044952,1455638.0,-0.00107999995816499,-0.004720000084489584,0.00014000000373926014,0.9441400170326233
6773.173610817167,1455639.0,-0.0010300000431016088,-0.0062699997797608376,-0.002950000111013651,0.9378200173377991
6773.174610589383,1455640.0,-0.0003600000054575503,-0.0014100000262260437,9.000000136438757e-05,0.9429000020027161
6773.175610361598,1455641.0,0.0022499999031424522,-0.0016799999866634607,0.006039999891072512,0.9360799789428711
6773.176610133813,1455642.0,0.0030499999411404133,0.0016799999866634607,0.003719999920576811,0.9430800080299377
6773.177609906028,1455643.0,0.001979999942705035,0.002859999891370535,0.0007300000288523734,0.9279299974441528
6773.178609678243,1455644.0,0.0008999999845400453,0.002950000111013651,-0.0019099999917671084,0.942579984664917
6773.179609450459,1455645.0,-0.0002699999895412475,0.0044999998062849045,0.0021299999207258224,0.926829993724823
6773.180609222674,1455646.0,0.0002699999895412475,0.002589999930933118,-0.0011399999493733048,0.9424899816513062
6773.18160899489,1455647.0,0.0008099999977275729,-0.004000000189989805,-0.0028200000524520874,0.9364500045776367
6773.182608767104,1455648.0,0.0020200000144541264,0.0025400000158697367,-0.0015399999683722854,0.9416199922561646
6773.18360853932,1455649.0,0.007189999800175428,0.003590000094845891,-0.0003600000054575503,0.9375500082969666
6773.184608311535,1455650.0,0.012040000408887863,0.008220000192523003,0.00031999999191612005,0.941569983959198
6773.185608083751,1455651.0,0.014910000376403332,0.00031999999191612005,0.003220000071451068,0.9357100129127502
6773.186607855966,1455652.0,0.01631000079214573,-0.0005000000237487257,0.00031999999191612005,0.9403799772262573
6773.187607628181,1455653.0,0.017249999567866325,0.0016799999866634607,0.0010400000028312206,0.9363600015640259
6773.188607400396,1455654.0,0.017160000279545784,-0.005489999894052744,0.00031999999191612005,0.9400200247764587
6773.189607172611,1455655.0,0.0129399998113513,-0.005539999809116125,-0.005489999894052744,0.925000011920929
6773.190606944827,1455656.0,0.004939999897032976,-0.007449999917298555,0.0009500000160187483,0.9387800097465515
6773.191606717042,1455657.0,-0.00215999991632998,-0.00913000013679266,0.001769999973475933,0.9282100200653076
6773.192606489257,1455658.0,-0.007319999858736992,-0.00014000000373926014,-0.002409999957308173,0.9392899870872498
6773.193606261472,1455659.0,-0.011680000461637974,-0.006399999838322401,0.00014000000373926014,0.9190999865531921
6773.194606033688,1455660.0,-0.014999999664723873,0.000910000002477318,-0.000910000002477318,0.9377300143241882
6773.195605805903,1455661.0,-0.014109999872744083,0.00749000022187829,0.0031799999997019768,0.9274299740791321
6773.196605578119,1455662.0,-0.012889999896287918,0.008270000107586384,0.003220000071451068,0.9361699819564819
6773.197605350333,1455663.0,-0.011409999802708626,0.012400000356137753,0.001769999973475933,0.9279800057411194
6773.1986051225485,1455664.0,-0.009700000286102295,0.004129999782890081,-4.999999873689376e-05,0.9356200098991394
6773.199604894764,1455665.0,-0.007009999826550484,0.004410000052303076,-0.0035000001080334187,0.9310899972915649
6773.200604666979,1455666.0,-0.0052999998442828655,4.999999873689376e-05,-0.0064500002190470695,0.9359899759292603
6773.201604439195,1455667.0,-0.0053900000639259815,-0.000910000002477318,-0.0013200000394135714,0.9295799732208252
6773.20260421141,1455668.0,-0.007860000245273113,-0.0011399999493733048,-0.000910000002477318,0.9348899722099304
6773.203603983625,1455669.0,-0.010599999688565731,-0.0011399999493733048,-0.0013200000394135714,0.9297599792480469
6773.20460375584,1455670.0,-0.010780000127851963,0.005270000081509352,-0.0007300000288523734,0.9343400001525879
6773.205603528056,1455671.0,-0.009340000338852406,-0.002589999930933118,0.006630000192672014,0.9279800057411194
6773.206603300271,1455672.0,-0.00773000018671155,-4.999999873689376e-05,0.00203999993391335,0.9331099987030029
6773.207603072487,1455673.0,-0.007819999940693378,-4.999999873689376e-05,-0.001500000013038516,0.9124600291252136
6773.208602844701,1455674.0,-0.008630000054836273,-0.0007699999841861427,-0.0030900000128895044,0.9324600100517273
6773.2096026169165,1455675.0,-0.00965999998152256,-0.0019099999917671084,0.00203999993391335,0.9266499876976013
6773.210602389132,1455676.0,-0.012760000303387642,-0.004449999891221523,0.006539999973028898,0.9297599792480469
6773.211602161347,1455677.0,-0.017069999128580093,-0.00267999991774559,0.0002699999895412475,0.9303100109100342
6773.212601933563,1455678.0,-0.02191999927163124,-0.0016799999866634607,-0.00044999999227002263,0.9261000156402588
6773.213601705778,1455679.0,-0.026149999350309372,-0.005770000163465738,0.0014100000262260437,0.9286699891090393
6773.214601477993,1455680.0,-0.025520000606775284,-0.006680000107735395,-0.00041000000783242285,0.9275699853897095
6773.215601250208,1455681.0,-0.02353999949991703,-0.005590000189840794,-0.0007699999841861427,0.9238600134849548
6773.216601022424,1455682.0,-0.019050000235438347,0.00031999999191612005,-0.002589999930933118,0.9284399747848511
6773.217600794639,1455683.0,-0.0142000000923872,0.006039999891072512,-0.004269999917596579,0.9238600134849548
6773.218600566855,1455684.0,-0.009970000013709068,0.004679999779909849,-9.000000136438757e-05,0.9261000156402588
6773.219600339069,1455685.0,-0.005710000172257423,0.007670000195503235,0.002319999970495701,0.9219800233840942
6773.2206001112845,1455686.0,-0.003819999983534217,0.005040000192821026,-0.0021800000686198473,0.9272900223731995
6773.2215998835,1455687.0,-0.003229999914765358,0.00494999997317791,0.0019499999471008778,0.9217100143432617
6773.222599655715,1455688.0,-0.004939999897032976,0.0015399999683722854,0.0013200000394135714,0.925000011920929
6773.223599427931,1455689.0,-0.004490000195801258,4.999999873689376e-05,-0.001449999981559813,0.917680025100708
6773.224599200146,1455690.0,-0.0013500000350177288,0.004809999838471413,-0.004410000052303076,0.92426997423172
6773.225598972361,1455691.0,0.004040000028908253,0.007579999975860119,0.00031999999191612005,0.919920027256012
6773.226598744576,1455692.0,0.00773000018671155,0.005900000222027302,0.001230000052601099,0.9237200021743774
6773.227598516792,1455693.0,0.007410000078380108,0.000910000002477318,0.00031999999191612005,0.919510006904602
6773.228598289007,1455694.0,0.005570000037550926,-0.000859999970998615,0.0014100000262260437,0.9191399812698364
6773.2295980612225,1455695.0,0.0017999999690800905,-0.005770000163465738,-0.0031799999997019768,0.9211999773979187
6773.230597833437,1455696.0,-0.0036800000816583633,0.0009500000160187483,-0.006089999806135893,0.9081599712371826
6773.2315976056525,1455697.0,-0.00872000027447939,-0.0059899999760091305,-0.0022700000554323196,0.9213399887084961
6773.232597377868,1455698.0,-0.01221999991685152,-0.00989999994635582,-0.001230000052601099,0.9173099994659424
6773.233597150083,1455699.0,-0.014910000376403332,-0.007309999782592058,-0.00044999999227002263,0.9143800139427185
6773.234596922299,1455700.0,-0.014550000429153442,-0.010809999890625477,0.003590000094845891,0.9186400175094604
6773.235596694514,1455701.0,-0.015410000458359718,-0.008489999920129776,-0.001500000013038516,0.9164000153541565
6773.236596466729,1455702.0,-0.016170000657439232,0.00031999999191612005,0.004999999888241291,0.9135100245475769
6773.237596238944,1455703.0,-0.014469999819993973,0.003220000071451068,0.004360000137239695,0.919510006904602
6773.23859601116,1455704.0,-0.01348000019788742,0.00880999956279993,-0.002589999930933118,0.9126399755477905
6773.239595783375,1455705.0,-0.013120000250637531,0.0019499999471008778,0.003269999986514449,0.9162099957466125
6773.2405955555905,1455706.0,-0.013299999758601189,0.00203999993391335,-0.002589999930933118,0.9160299897193909
6773.241595327805,1455707.0,-0.012849999591708183,0.0024500000290572643,0.002589999930933118,0.9114500284194946
6773.2425951000205,1455708.0,-0.010780000127851963,0.0027699999045580626,0.001769999973475933,0.9160799980163574
6773.243594872236,1455709.0,-0.006289999932050705,0.009399999864399433,-0.003539999946951866,0.8946099877357483
6773.244594644451,1455710.0,-0.0003600000054575503,0.012900000438094139,0.0035000001080334187,0.9132800102233887
6773.245594416667,1455711.0,0.0026100000832229853,0.0063599999994039536,0.0034099998883903027,0.9101700186729431
6773.246594188882,1455712.0,0.0028800000436604023,0.004679999779909849,0.0022700000554323196,0.9110900163650513
6773.247593961097,1455713.0,0.0,0.004860000219196081,-0.0007300000288523734,0.9127299785614014
6773.248593733312,1455714.0,-0.004129999782890081,0.0027199999894946814,-0.001769999973475933,0.907010018825531
6773.249593505528,1455715.0,-0.00795000046491623,-0.005859999917447567,0.00031999999191612005,0.9114500284194946
6773.250593277743,1455716.0,-0.01221999991685152,-0.006130000110715628,-0.002090000081807375,0.908519983291626
6773.2515930499585,1455717.0,-0.014910000376403332,-0.00749000022187829,-0.004410000052303076,0.9019299745559692
6773.252592822173,1455718.0,-0.016939999535679817,-0.00949000008404255,-0.0030900000128895044,0.9104499816894531
6773.2535925943885,1455719.0,-0.01769999973475933,-0.010219999589025974,0.00031999999191612005,0.9037600159645081
6773.254592366604,1455720.0,-0.016130000352859497,-0.0031300000846385956,0.0019499999471008778,0.9060099720954895
6773.255592138819,1455721.0,-0.012040000408887863,-0.000859999970998615,0.003220000071451068,0.9073799848556519
6773.256591911035,1455722.0,-0.007009999826550484,-0.003539999946951866,0.0044999998062849045,0.8909500241279602
6773.257591683249,1455723.0,-0.004269999917596579,0.0035000001080334187,-0.0036800000816583633,0.9067800045013428
6773.258591455465,1455724.0,-0.0007200000109151006,0.004310000222176313,-0.000859999970998615,0.9007400274276733
6773.25959122768,1455725.0,0.0031399999279528856,0.006810000166296959,0.0059899999760091305,0.906279981136322
6773.260590999896,1455726.0,0.007550000213086605,0.012670000083744526,0.0020000000949949026,0.8999599814414978
6773.261590772111,1455727.0,0.010689999908208847,0.005539999809116125,-0.0011399999493733048,0.902209997177124
6773.262590544326,1455728.0,0.012400000356137753,0.0029100000392645597,-0.00041000000783242285,0.900600016117096
6773.263590316541,1455729.0,0.015990000218153,0.00880999956279993,-0.0006399999838322401,0.8967999815940857
6773.264590088756,1455730.0,0.0185100007802248,0.007079999893903732,4.999999873689376e-05,0.9020699858665466
6773.265589860972,1455731.0,0.02263999916613102,0.005590000189840794,0.0031799999997019768,0.8967999815940857
6773.266589633187,1455732.0,0.026729999110102654,0.0071299998089671135,-0.004000000189989805,0.9007400274276733
6773.267589405403,1455733.0,0.025919999927282333,-0.005179999861866236,-0.0011399999493733048,0.8953400254249573
6773.268589177617,1455734.0,0.021290000528097153,-0.004040000028908253,-0.0018599999602884054,0.9002400040626526
6773.269588949833,1455735.0,0.012489999644458294,-0.007400000002235174,0.00031999999191612005,0.8938800096511841
6773.270588722048,1455736.0,0.0033199999015778303,-0.009220000356435776,-0.0022299999836832285,0.8946099877357483
6773.271588494264,1455737.0,-0.004670000169426203,-0.014120000414550304,0.005040000192821026,0.8981299996376038
6773.272588266479,1455738.0,-0.010870000347495079,-0.006219999864697456,-0.0009500000160187483,0.8860899806022644
6773.273588038694,1455739.0,-0.014379999600350857,-0.004679999779909849,-0.0027199999894946814,0.8952900171279907
6773.274587810909,1455740.0,-0.015359999611973763,-0.005489999894052744,0.0021299999207258224,0.8948799967765808
6773.275587583124,1455741.0,-0.0142000000923872,-0.006990000139921904,-0.002589999930933118,0.8907600045204163
6773.27658735534,1455742.0,-0.011859999969601631,-0.0011399999493733048,-0.0007699999841861427,0.8942899703979492
6773.277587127555,1455743.0,-0.008940000087022781,-0.0008200000156648457,-0.00041000000783242285,0.8858199715614319
6773.278586899771,1455744.0,-0.004449999891221523,0.007809999864548445,0.0013200000394135714,0.8933699727058411
6773.279586671985,1455745.0,-0.0016599999507889152,0.004269999917596579,0.004269999917596579,0.8923599720001221
6773.280586444201,1455746.0,-0.00107999995816499,0.007899999618530273,-0.0007699999841861427,0.8909500241279602
6773.281586216416,1455747.0,-0.001979999942705035,0.009220000356435776,-0.003719999920576811,0.8907600045204163
6773.282585988632,1455748.0,-0.0012100000167265534,0.0022700000554323196,0.002090000081807375,0.8897600173950195
6773.283585760847,1455749.0,0.003590000094845891,0.010759999975562096,0.005900000222027302,0.8878300189971924
6773.2845855330615,1455750.0,0.009750000201165676,0.010040000081062317,-0.004089999943971634,0.8864099979400635
6773.285585305277,1455751.0,0.014960000291466713,0.0051299999468028545,-0.000910000002477318,0.8850899934768677
6773.286585077492,1455752.0,0.0185100007802248,-0.0007699999841861427,0.004220000002533197,0.880649983882904
6773.287584849708,1455753.0,0.01940999925136566,-0.004040000028908253,-0.004220000002533197,0.8699300289154053
6773.288584621923,1455754.0,0.01841999962925911,-0.0022299999836832285,-0.004629999864846468,0.8801900148391724
6773.289584394139,1455755.0,0.014019999653100967,-0.004410000052303076,-0.0020000000949949026,0.8799600005149841
6773.290584166353,1455756.0,0.008179999887943268,-0.010219999589025974,-0.0011399999493733048,0.8792300224304199
6773.291583938569,1455757.0,0.00279000005684793,-0.012529999949038029,0.00031999999191612005,0.8783599734306335
6773.292583710784,1455758.0,-0.0013500000350177288,-0.0071299998089671135,9.000000136438757e-05,0.8781300187110901
6773.293583483,1455759.0,-0.0037700000684708357,-0.00803999975323677,0.004129999782890081,0.8777599930763245
6773.294583255215,1455760.0,-0.004670000169426203,-0.005859999917447567,-0.0020000000949949026,0.8775799870491028
6773.2955830274295,1455761.0,-0.004449999891221523,-0.0009500000160187483,0.0017300000181421638,0.8791800141334534
6773.296582799645,1455762.0,-0.003229999914765358,0.003220000071451068,0.001449999981559813,0.8799099922180176
6773.29758257186,1455763.0,-0.002520000096410513,0.0010000000474974513,-0.000859999970998615,0.8792300224304199
6773.298582344076,1455764.0,-0.0017099999822676182,0.0024999999441206455,0.0013200000394135714,0.8792300224304199
6773.299582116291,1455765.0,-0.00044999999227002263,0.003220000071451068,0.0013200000394135714,0.8760700225830078
6773.300581888507,1455766.0,-0.0007200000109151006,0.005770000163465738,-0.004129999782890081,0.8722699880599976
6773.301581660721,1455767.0,-0.004449999891221523,0.005900000222027302,-0.0019499999471008778,0.8723099827766418
6773.302581432937,1455768.0,-0.008179999887943268,0.001769999973475933,-0.004310000222176313,0.8728200197219849
6773.303581205152,1455769.0,-0.00610999995842576,0.0024999999441206455,-0.001500000013038516,0.8748300075531006
6773.304580977368,1455770.0,0.0016199999954551458,0.002409999957308173,9.000000136438757e-05,0.8748300075531006
6773.305580749583,1455771.0,0.009879999794065952,0.005270000081509352,0.0016799999866634607,0.8711699843406677
6773.3065805217975,1455772.0,0.014469999819993973,0.002360000042244792,0.004089999943971634,0.8656799793243408
6773.307580294013,1455773.0,0.015180000104010105,0.0007300000288523734,-0.005489999894052744,0.8670499920845032
6773.308580066228,1455774.0,0.0129399998113513,-0.0002699999895412475,-0.0016799999866634607,0.8697100281715393
6773.309579838444,1455775.0,0.0052999998442828655,-0.004900000058114529,0.00014000000373926014,0.8702499866485596
6773.310579610659,1455776.0,-0.005119999870657921,-0.000910000002477318,-0.001230000052601099,0.8572499752044678
6773.311579382875,1455777.0,-0.014379999600350857,-0.004410000052303076,-0.000590000010561198,0.8702499866485596
6773.312579155089,1455778.0,-0.021609999239444733,-0.008129999972879887,-0.0011399999493733048,0.8654900193214417
6773.313578927305,1455779.0,-0.023360000923275948,-0.0012700000079348683,-0.001449999981559813,0.8643500208854675
6773.31457869952,1455780.0,-0.020390000194311142,-0.002409999957308173,0.0012700000079348683,0.867139995098114
6773.3155784717355,1455781.0,-0.015990000218153,-0.001500000013038516,0.003220000071451068,0.8616499900817871
6773.316578243951,1455782.0,-0.013209999538958073,0.005400000140070915,0.00031999999191612005,0.8645300269126892
6773.3175780161655,1455783.0,-0.011950000189244747,0.00418000016361475,0.00014000000373926014,0.8642600178718567
6773.318577788381,1455784.0,-0.009970000013709068,-0.0011399999493733048,-0.0021800000686198473,0.85139000415802
6773.319577560596,1455785.0,-0.0083600003272295,-0.0021800000686198473,-0.0015899999998509884,0.863070011138916
6773.320577332812,1455786.0,-0.006289999932050705,0.0002300000051036477,0.002090000081807375,0.8528599739074707
6773.321577105027,1455787.0,-0.005570000037550926,0.0015399999683722854,-0.00041000000783242285,0.8616499900817871
6773.322576877242,1455788.0,-0.006380000151693821,0.00203999993391335,-0.003539999946951866,0.8582599759101868
6773.323576649457,1455789.0,-0.006560000125318766,0.00571999978274107,0.0021299999207258224,0.8581200242042542
6773.324576421673,1455790.0,-0.007009999826550484,0.009399999864399433,-0.002950000111013651,0.8604999780654907
6773.325576193888,1455791.0,-0.007910000160336494,0.008080000057816505,-0.0036800000816583633,0.8565199971199036
6773.3265759661035,1455792.0,-0.0101500004529953,0.0034099998883903027,0.00031999999191612005,0.8604599833488464
6773.327575738318,1455793.0,-0.01384000014513731,-0.00014000000373926014,-0.0015399999683722854,0.8545100092887878
6773.3285755105335,1455794.0,-0.016850000247359276,-0.0033199999015778303,0.00031999999191612005,0.8594499826431274
6773.329575282749,1455795.0,-0.019500000402331352,-0.0036800000816583633,0.00014000000373926014,0.8539100289344788
6773.330575054964,1455796.0,-0.021700000390410423,-0.004769999999552965,0.003449999960139394,0.857990026473999
6773.33157482718,1455797.0,-0.023000000044703484,-0.00795000046491623,0.00031999999191612005,0.8518999814987183
6773.332574599395,1455798.0,-0.024800000712275505,-0.00267999991774559,-0.002319999970495701,0.857479989528656
6773.33357437161,1455799.0,-0.026909999549388885,-0.004040000028908253,0.0019499999471008778,0.8516700267791748
6773.334574143825,1455800.0,-0.027130000293254852,0.001230000052601099,0.000910000002477318,0.8557900190353394
6773.335573916041,1455801.0,-0.02745000086724758,0.0014100000262260437,-0.0019099999917671084,0.8499299883842468
6773.336573688256,1455802.0,-0.02848000079393387,0.004679999779909849,-0.0036800000816583633,0.8540999889373779
6773.3375734604715,1455803.0,-0.0282600000500679,0.0044999998062849045,0.005040000192821026,0.8496999740600586
6773.338573232686,1455804.0,-0.02817000076174736,0.003590000094845891,-0.0015899999998509884,0.8535900115966797
6773.3395730049015,1455805.0,-0.02857000008225441,0.004540000110864639,-0.003909999970346689,0.8491500020027161
6773.340572777117,1455806.0,-0.028839999809861183,-0.005179999861866236,-0.00418000016361475,0.8511199951171875
6773.341572549332,1455807.0,-0.028929999098181725,0.005309999920427799,0.00014000000373926014,0.8498799800872803
6773.342572321548,1455808.0,-0.028119999915361404,0.005179999861866236,0.003220000071451068,0.8440700173377991
6773.343572093763,1455809.0,-0.026590000838041306,-0.0012700000079348683,0.00031999999191612005,0.8505200147628784
6773.344571865978,1455810.0,-0.023669999092817307,-4.999999873689376e-05,0.0036299999337643385,0.8493300080299377
6773.345571638193,1455811.0,-0.02022000029683113,0.00571999978274107,0.001180000021122396,0.8440700173377991
6773.346571410409,1455812.0,-0.01769999973475933,0.007269999943673611,-0.0010400000028312206,0.8477299809455872
6773.347571182624,1455813.0,-0.016349999234080315,0.005590000189840794,-0.002090000081807375,0.8475000262260437
6773.3485709548395,1455814.0,-0.016939999535679817,-0.004809999838471413,-0.000859999970998615,0.8438900113105774
6773.349570727054,1455815.0,-0.019770000129938126,-0.003449999960139394,-0.0011399999493733048,0.847000002861023
6773.350570499269,1455816.0,-0.022910000756382942,-0.01143999956548214,0.003449999960139394,0.8419600129127502
6773.351570271485,1455817.0,-0.025380000472068787,-0.00749000022187829,0.004720000084489584,0.8435699939727783
6773.3525700437,1455818.0,-0.027130000293254852,-0.00798999983817339,-0.0028200000524520874,0.8409600257873535
6773.353569815916,1455819.0,-0.027130000293254852,-0.002950000111013651,-0.0036800000816583633,0.8465399742126465
6773.354569588131,1455820.0,-0.02694999985396862,0.003949999809265137,-0.004089999943971634,0.8399999737739563
6773.355569360346,1455821.0,-0.027000000700354576,0.005859999917447567,-0.0027199999894946814,0.8421000242233276
6773.356569132561,1455822.0,-0.025609999895095825,0.005270000081509352,-0.0006399999838322401,0.8421499729156494
6773.357568904777,1455823.0,-0.023989999666810036,0.006680000107735395,-0.0011399999493733048,0.8382099866867065
6773.358568676992,1455824.0,-0.02151999995112419,0.0024500000290572643,0.00031999999191612005,0.8382099866867065
6773.3595684492075,1455825.0,-0.018780000507831573,0.0015399999683722854,0.00031999999191612005,0.8421900272369385
6773.360568221422,1455826.0,-0.017030000686645508,0.00203999993391335,-0.000539999979082495,0.8319900035858154
6773.361567993637,1455827.0,-0.015809999778866768,0.0008200000156648457,-0.001230000052601099,0.8394500017166138
6773.362567765853,1455828.0,-0.015540000051259995,-0.005489999894052744,0.004220000002533197,0.8351899981498718
6773.363567538068,1455829.0,-0.01221999991685152,-0.0015899999998509884,0.0021299999207258224,0.8373399972915649
6773.364567310284,1455830.0,-0.007009999826550484,0.0024999999441206455,-0.0033599999733269215,0.8349199891090393
6773.365567082499,1455831.0,-0.0007200000109151006,0.0072200000286102295,0.00014000000373926014,0.8345500230789185
6773.366566854714,1455832.0,0.0024300001095980406,0.004769999999552965,-0.0002699999895412475,0.8363800048828125
6773.367566626929,1455833.0,0.0026100000832229853,0.001769999973475933,-0.0013599999947473407,0.8311600089073181
6773.368566399145,1455834.0,0.0016199999954551458,0.00031999999191612005,0.0013599999947473407,0.8352800011634827
6773.36956617136,1455835.0,-0.0015699999639764428,-0.003719999920576811,-0.0016299999551847577,0.8301500082015991
6773.3705659435755,1455836.0,-0.0083600003272295,-0.004999999888241291,-0.0017300000181421638,0.8343200087547302
6773.37156571579,1455837.0,-0.016130000352859497,-0.004679999779909849,0.00031999999191612005,0.8275899887084961
6773.372565488005,1455838.0,-0.024080000817775726,0.0009500000160187483,0.00031999999191612005,0.8329899907112122
6773.373565260221,1455839.0,-0.02865999937057495,0.0014100000262260437,0.001500000013038516,0.8191199898719788
6773.374565032436,1455840.0,-0.029200000688433647,-0.0009500000160187483,0.0002300000051036477,0.8290600180625916
6773.375564804652,1455841.0,-0.029109999537467957,-0.002589999930933118,0.0018599999602884054,0.8235599994659424
6773.376564576867,1455842.0,-0.027580000460147858,-0.004310000222176313,-0.000539999979082495,0.8273599743843079
6773.377564349082,1455843.0,-0.026820000261068344,0.0033199999015778303,-0.0031300000846385956,0.8241099715232849
6773.378564121297,1455844.0,-0.02515999972820282,-0.0020000000949949026,0.0015399999683722854,0.8235599994659424
6773.379563893513,1455845.0,-0.023900000378489494,-0.002090000081807375,0.0002699999895412475,0.8250700235366821
6773.380563665728,1455846.0,-0.022910000756382942,0.0014100000262260437,0.00031999999191612005,0.8206300139427185
6773.381563437943,1455847.0,-0.022690000012516975,0.0015399999683722854,0.0025400000158697367,0.824429988861084
6773.382563210158,1455848.0,-0.02281999960541725,0.0019499999471008778,-0.0011399999493733048,0.807449996471405
6773.383562982373,1455849.0,-0.02102000080049038,0.005539999809116125,-0.00041000000783242285,0.8205000162124634
6773.384562754589,1455850.0,-0.01779000088572502,0.007579999975860119,0.0008200000156648457,0.8169699907302856
6773.385562526804,1455851.0,-0.01348000019788742,0.008539999835193157,-0.0016799999866634607,0.8168799877166748
6773.38656229902,1455852.0,-0.010420000180602074,0.00686000008136034,-4.999999873689376e-05,0.8187100291252136
6773.387562071234,1455853.0,-0.01051000040024519,0.0013599999947473407,0.0031300000846385956,0.8137199878692627
6773.38856184345,1455854.0,-0.012980000115931034,-0.0028200000524520874,0.002319999970495701,0.8123499751091003
6773.389561615665,1455855.0,-0.018330000340938568,-0.0071299998089671135,-0.0019499999471008778,0.8118000030517578
6773.390561387881,1455856.0,-0.023269999772310257,-0.004040000028908253,-0.001820000004954636,0.8106499910354614
6773.391561160096,1455857.0,-0.028300000354647636,-0.007579999975860119,-0.0007699999841861427,0.8091400265693665
6773.392560932311,1455858.0,-0.03297000005841255,-0.008449999615550041,-0.006219999864697456,0.8087300062179565
6773.393560704526,1455859.0,-0.034949999302625656,-0.004310000222176313,-0.005179999861866236,0.7999399900436401
6773.394560476741,1455860.0,-0.036660000681877136,-0.00044999999227002263,0.0019499999471008778,0.8059800267219543
6773.395560248957,1455861.0,-0.03629999980330467,-0.001449999981559813,0.002589999930933118,0.8044300079345703
6773.396560021172,1455862.0,-0.03413999825716019,0.002319999970495701,4.999999873689376e-05,0.8043799996376038
6773.397559793388,1455863.0,-0.032519999891519547,0.005179999861866236,0.0021299999207258224,0.8030499815940857
6773.398559565602,1455864.0,-0.03468000143766403,-0.0034099998883903027,0.00014000000373926014,0.8030099868774414
6773.399559337818,1455865.0,-0.03621000051498413,0.004629999864846468,0.00031999999191612005,0.8012700080871582
6773.400559110033,1455866.0,-0.037379998713731766,0.003809999907389283,0.0017300000181421638,0.7997599840164185
6773.4015588822485,1455867.0,-0.03773999959230423,0.0016299999551847577,-0.0009500000160187483,0.7985699772834778
6773.402558654464,1455868.0,-0.03711000084877014,-9.000000136438757e-05,-0.005489999894052744,0.7972000241279602
6773.4035584266785,1455869.0,-0.03109000064432621,0.00031999999191612005,0.0002300000051036477,0.796970009803772
6773.404558198894,1455870.0,-0.02363000065088272,0.003719999920576811,0.004860000219196081,0.7957299947738647
6773.405557971109,1455871.0,-0.021159999072551727,0.009039999917149544,-0.0007300000288523734,0.7956399917602539
6773.406557743325,1455872.0,-0.020309999585151672,0.004269999917596579,-0.004410000052303076,0.7957299947738647
6773.40755751554,1455873.0,-0.02092999964952469,0.0002300000051036477,-0.002630000002682209,0.7948600053787231
6773.408557287756,1455874.0,-0.0218299999833107,-4.999999873689376e-05,-0.0002300000051036477,0.7940400242805481
6773.40955705997,1455875.0,-0.026680000126361847,-0.00014000000373926014,-0.0007300000288523734,0.7930799722671509
6773.410556832186,1455876.0,-0.033560000360012054,-0.006089999806135893,-0.0051299999468028545,0.7904700040817261
6773.411556604401,1455877.0,-0.039080001413822174,-0.009630000218749046,-0.0015399999683722854,0.7893700003623962
6773.4125563766165,1455878.0,-0.04537000134587288,-0.004269999917596579,0.00031999999191612005,0.7894600033760071
6773.413556148832,1455879.0,-0.049150001257658005,-0.0009500000160187483,0.0009500000160187483,0.7888200283050537
6773.4145559210465,1455880.0,-0.04851999878883362,0.003949999809265137,-0.0019499999471008778,0.7880399823188782
6773.415555693262,1455881.0,-0.04958999902009964,0.0030400000978261232,4.999999873689376e-05,0.7869399785995483
6773.416555465477,1455882.0,-0.04991000145673752,0.004449999891221523,0.0009500000160187483,0.7865800261497498
6773.417555237693,1455883.0,-0.04816000163555145,0.004040000028908253,0.0002300000051036477,0.7842900156974792
6773.418555009908,1455884.0,-0.043219998478889465,0.006039999891072512,-0.0009500000160187483,0.783050000667572
6773.419554782124,1455885.0,-0.03844999894499779,0.0024500000290572643,-0.0030900000128895044,0.7796199917793274
6773.420554554338,1455886.0,-0.035760000348091125,-0.0028200000524520874,-0.0013200000394135714,0.7814499735832214
6773.421554326554,1455887.0,-0.034949999302625656,0.0008200000156648457,0.00031999999191612005,0.7793400287628174
6773.422554098769,1455888.0,-0.03279000148177147,0.00031999999191612005,0.004900000058114529,0.7759600281715393
6773.4235538709845,1455889.0,-0.02848000079393387,0.002319999970495701,-0.0010900000343099236,0.7759600281715393
6773.4245536432,1455890.0,-0.023719999939203262,0.0052200001664459705,-0.000539999979082495,0.7758200168609619
6773.4255534154145,1455891.0,-0.0200399998575449,0.007180000189691782,0.00031999999191612005,0.7737600207328796
6773.42655318763,1455892.0,-0.019540000706911087,0.0030400000978261232,0.0014100000262260437,0.7731199860572815
6773.427552959845,1455893.0,-0.023000000044703484,0.000859999970998615,-0.0007300000288523734,0.7721099853515625
6773.428552732061,1455894.0,-0.02807999961078167,-0.002409999957308173,-0.0033599999733269215,0.7710999846458435
6773.429552504276,1455895.0,-0.03449999913573265,-0.004089999943971634,-0.0010000000474974513,0.7696400284767151
6773.430552276492,1455896.0,-0.03971000015735626,-0.007269999943673611,-0.001230000052601099,0.7686300277709961
6773.431552048706,1455897.0,-0.04393000155687332,-0.005489999894052744,0.0013200000394135714,0.7678999900817871
6773.432551820922,1455898.0,-0.04569000005722046,-0.007400000002235174,-0.0033599999733269215,0.7666199803352356
6773.433551593137,1455899.0,-0.04645000025629997,-0.00798999983817339,-0.0030900000128895044,0.76555997133255
6773.4345513653525,1455900.0,-0.046229999512434006,-0.0037700000684708357,-0.0021299999207258224,0.7649700045585632
6773.435551137568,1455901.0,-0.04402000084519386,0.002950000111013651,0.0002699999895412475,0.7649700045585632
6773.436550909782,1455902.0,-0.041510000824928284,-0.000859999970998615,0.004220000002533197,0.7640500068664551
6773.437550681998,1455903.0,-0.03790999948978424,-0.0034099998883903027,-0.0018599999602884054,0.7624099850654602
6773.438550454213,1455904.0,-0.03369000181555748,-0.0013200000394135714,0.0018599999602884054,0.7598400115966797
6773.439550226429,1455905.0,-0.029650000855326653,0.009220000356435776,0.004679999779909849,0.7565000057220459
6773.440549998644,1455906.0,-0.026410000398755074,0.008449999615550041,-0.002589999930933118,0.7529799938201904
6773.44154977086,1455907.0,-0.023719999939203262,0.00795000046491623,-0.0027699999045580626,0.7408000230789185
6773.442549543074,1455908.0,-0.022280000150203705,0.00795000046491623,-0.0008200000156648457,0.7530199885368347
6773.44354931529,1455909.0,-0.018959999084472656,0.004089999943971634,0.004679999779909849,0.7519199848175049
6773.444549087505,1455910.0,-0.014600000344216824,0.007079999893903732,-0.000910000002477318,0.7516499757766724
6773.4455488597205,1455911.0,-0.01257999986410141,-0.002360000042244792,-0.0013200000394135714,0.7515599727630615
6773.446548631936,1455912.0,-0.012040000408887863,0.0031799999997019768,0.002319999970495701,0.7516899704933167
6773.44754840415,1455913.0,-0.011500000022351742,0.006719999946653843,-0.003590000094845891,0.7524300217628479
6773.448548176366,1455914.0,-0.0142000000923872,-0.003909999970346689,-0.002950000111013651,0.7503200173377991
6773.449547948581,1455915.0,-0.018869999796152115,-0.013120000250637531,-0.0010400000028312206,0.7503200173377991
6773.450547720797,1455916.0,-0.02281999960541725,-0.014209999702870846,0.0015399999683722854,0.7470700144767761
6773.451547493012,1455917.0,-0.025429999455809593,-0.006949999835342169,-0.0012700000079348683,0.7411699891090393
6773.452547265227,1455918.0,-0.02865999937057495,-0.0027699999045580626,-0.004809999838471413,0.7406600117683411
6773.453547037442,1455919.0,-0.031129999086260796,-0.006949999835342169,0.0036299999337643385,0.7394700050354004
6773.454546809658,1455920.0,-0.03220999985933304,-0.003449999960139394,0.005810000002384186,0.7382400035858154
6773.455546581873,1455921.0,-0.02986999973654747,0.0044999998062849045,0.003719999920576811,0.7371399998664856
6773.4565463540885,1455922.0,-0.026149999350309372,0.004310000222176313,-0.00686000008136034,0.7365000247955322
6773.457546126304,1455923.0,-0.026149999350309372,0.0020000000949949026,0.0021299999207258224,0.737089991569519
6773.458545898518,1455924.0,-0.025019999593496323,0.010490000247955322,-0.0002300000051036477,0.737500011920929
6773.459545670734,1455925.0,-0.02191999927163124,0.006990000139921904,-0.0010400000028312206,0.7364000082015991
6773.460545442949,1455926.0,-0.01940999925136566,-0.0009500000160187483,-0.003269999986514449,0.7356299757957458
6773.461545215165,1455927.0,-0.019770000129938126,-0.0037700000684708357,-4.999999873689376e-05,0.7342100143432617
6773.46254498738,1455928.0,-0.021290000528097153,-0.0002699999895412475,0.0013200000394135714,0.7327399849891663
6773.463544759595,1455929.0,-0.02092999964952469,0.009309999644756317,-0.0006399999838322401,0.732509970664978
6773.46454453181,1455930.0,-0.017880000174045563,0.009630000218749046,0.0014100000262260437,0.7312800288200378
6773.465544304026,1455931.0,-0.014999999664723873,0.010940000414848328,0.00571999978274107,0.7303199768066406
6773.466544076241,1455932.0,-0.011640000157058239,0.0052200001664459705,-0.004900000058114529,0.7309100031852722
6773.467543848456,1455933.0,-0.01095999963581562,0.00031999999191612005,0.0021299999207258224,0.7297700047492981
6773.468543620671,1455934.0,-0.01131999958306551,0.00014000000373926014,0.0010000000474974513,0.727620005607605
6773.469543392886,1455935.0,-0.013299999758601189,-0.0051299999468028545,-0.004040000028908253,0.7261499762535095
6773.470543165102,1455936.0,-0.016529999673366547,-0.00803999975323677,-0.004089999943971634,0.7250499725341797
6773.471542937317,1455937.0,-0.019770000129938126,-0.00913000013679266,-0.0015399999683722854,0.7200599908828735
6773.472542709533,1455938.0,-0.02133999951183796,-0.004410000052303076,-0.0025400000158697367,0.7114999890327454
6773.473542481748,1455939.0,-0.02201000042259693,-0.005590000189840794,-0.0015899999998509884,0.7034500241279602
6773.474542253963,1455940.0,-0.020659999921917915,-0.002090000081807375,0.00031999999191612005,0.7023500204086304
6773.475542026178,1455941.0,-0.016349999234080315,-0.0017300000181421638,0.004900000058114529,0.7162600159645081
6773.476541798394,1455942.0,-0.010689999908208847,-0.00203999993391335,0.00018000000272877514,0.7158499956130981
6773.477541570609,1455943.0,-0.005659999791532755,-0.003269999986514449,0.004999999888241291,0.7162600159645081
6773.478541342824,1455944.0,-0.002199999988079071,-0.0027199999894946814,0.00031999999191612005,0.7170000076293945
6773.479541115039,1455945.0,0.0,-0.00018000000272877514,0.00031999999191612005,0.7065600156784058
6773.480540887254,1455946.0,-0.0002699999895412475,0.0071299998089671135,-0.0034099998883903027,0.7092999815940857
6773.48154065947,1455947.0,-0.002520000096410513,0.0021299999207258224,-0.0031799999997019768,0.7081599831581116
6773.482540431685,1455948.0,-0.0034099998883903027,-0.0013599999947473407,0.00031999999191612005,0.7122300267219543
6773.483540203901,1455949.0,-0.00215999991632998,0.00686000008136034,0.0024500000290572643,0.7063800096511841
6773.484539976116,1455950.0,0.0020699999295175076,0.00875999964773655,-0.0016799999866634607,0.708620011806488
6773.485539748331,1455951.0,0.006060000043362379,0.00872000027447939,-0.003809999907389283,0.7045400142669678
6773.486539520546,1455952.0,0.007459999993443489,0.0030400000978261232,-0.0019099999917671084,0.7063300013542175
6773.4875392927615,1455953.0,0.004629999864846468,-0.0019499999471008778,0.004769999999552965,0.7019799947738647
6773.488539064977,1455954.0,0.0003100000030826777,-0.007400000002235174,0.002090000081807375,0.7033100128173828
6773.489538837192,1455955.0,-0.005929999984800816,-0.0062699997797608376,-0.002630000002682209,0.699970006942749
6773.490538609407,1455956.0,-0.012040000408887863,-0.008539999835193157,-0.0022299999836832285,0.7017999887466431
6773.491538381622,1455957.0,-0.01800999976694584,-0.005489999894052744,-0.0031799999997019768,0.6975899934768677
6773.492538153838,1455958.0,-0.020889999344944954,-0.003719999920576811,0.0014100000262260437,0.6995499730110168
6773.493537926053,1455959.0,-0.023310000076889992,-9.000000136438757e-05,0.0002300000051036477,0.6946600079536438
6773.494537698269,1455960.0,-0.023180000483989716,0.0052200001664459705,-0.0002300000051036477,0.6970400214195251
6773.495537470484,1455961.0,-0.020749999210238457,0.003949999809265137,-0.0045900000259280205,0.6931899785995483
6773.496537242699,1455962.0,-0.017160000279545784,0.005270000081509352,0.003590000094845891,0.6934700012207031
6773.497537014914,1455963.0,-0.012400000356137753,0.0033199999015778303,0.0019099999917671084,0.6900799870491028
6773.4985367871295,1455964.0,-0.008129999972879887,-0.0033199999015778303,-0.002409999957308173,0.6926900148391724
6773.499536559345,1455965.0,-0.0034099998883903027,-0.00031999999191612005,-0.00203999993391335,0.6881600022315979
6773.50053633156,1455966.0,-0.0003600000054575503,-0.0013200000394135714,0.0029100000392645597,0.6902599930763245
6773.501536103775,1455967.0,9.000000136438757e-05,-0.0011399999493733048,0.00031999999191612005,0.6850900053977966
6773.50253587599,1455968.0,0.0,-0.005489999894052744,0.0015399999683722854,0.6887999773025513
6773.503535648206,1455969.0,0.0023399998899549246,-0.000859999970998615,-0.001820000004954636,0.6692000031471252
6773.504535420421,1455970.0,0.007189999800175428,0.001230000052601099,-0.0031799999997019768,0.6849499940872192
6773.505535192637,1455971.0,0.01131999958306551,0.005590000189840794,0.0018599999602884054,0.6752499938011169
6773.506534964852,1455972.0,0.012040000408887863,0.005400000140070915,0.0017300000181421638,0.6816999912261963
6773.507534737067,1455973.0,0.011590000241994858,0.0033199999015778303,-0.002589999930933118,0.6799200177192688
6773.508534509282,1455974.0,0.00872000027447939,0.0021299999207258224,-0.00875999964773655,0.678820013999939
6773.5095342814975,1455975.0,0.0031399999279528856,-0.0019099999917671084,-0.0011399999493733048,0.6800100207328796
6773.510534053713,1455976.0,-0.0028800000436604023,0.00203999993391335,0.0022299999836832285,0.6751999855041504
6773.511533825928,1455977.0,-0.006560000125318766,0.00031999999191612005,0.002409999957308173,0.6785399913787842
6773.512533598143,1455978.0,-0.008980000391602516,0.0016299999551847577,-0.0030400000978261232,0.6733700037002563
6773.513533370358,1455979.0,-0.010689999908208847,-0.004310000222176313,0.0036299999337643385,0.6722699999809265
6773.514533142574,1455980.0,-0.012620000168681145,-0.0011399999493733048,4.999999873689376e-05,0.6712200045585632
6773.515532914789,1455981.0,-0.012129999697208405,-0.0006799999973736703,0.001500000013038516,0.6709399819374084
6773.516532687005,1455982.0,-0.01221999991685152,0.003949999809265137,0.00031999999191612005,0.6711699962615967
6773.517532459219,1455983.0,-0.010420000180602074,-0.0010400000028312206,0.004449999891221523,0.6712200045585632
6773.518532231435,1455984.0,-0.008270000107586384,0.0013200000394135714,-0.004900000058114529,0.6720899939537048
6773.51953200365,1455985.0,-0.006649999879300594,0.00031999999191612005,-0.00267999991774559,0.6698899865150452
6773.5205317758655,1455986.0,-0.003590000094845891,-0.0011399999493733048,0.000910000002477318,0.6686599850654602
6773.521531548081,1455987.0,-0.0018899999558925629,-0.0011399999493733048,-0.0013599999947473407,0.6650800108909607
6773.522531320296,1455988.0,-0.002520000096410513,-0.000590000010561198,0.00031999999191612005,0.661329984664917
6773.523531092511,1455989.0,0.0003100000030826777,0.005400000140070915,0.00031999999191612005,0.659500002861023
6773.524530864726,1455990.0,0.005710000172257423,-0.0007300000288523734,0.003220000071451068,0.6507099866867065
6773.525530636942,1455991.0,0.010420000180602074,0.0016799999866634607,-0.0030900000128895044,0.660830020904541
6773.526530409157,1455992.0,0.0147299999371171,0.007579999975860119,-0.0007699999841861427,0.6602299809455872
6773.527530181373,1455993.0,0.014910000376403332,-0.001180000021122396,0.0030900000128895044,0.6609200239181519
6773.528529953587,1455994.0,0.013120000250637531,-0.0030400000978261232,-0.0044999998062849045,0.6621599793434143
6773.529529725803,1455995.0,0.009340000338852406,-0.009669999592006207,0.002630000002682209,0.6534600257873535
6773.530529498018,1455996.0,0.0048500001430511475,-0.008310000412166119,-0.0025400000158697367,0.6550599932670593
6773.5315292702335,1455997.0,-3.9999998989515007e-05,-0.008449999615550041,0.0014100000262260437,0.6564300060272217
6773.532529042449,1455998.0,-0.003229999914765358,-0.005539999809116125,-0.0022299999836832285,0.6565700173377991
6773.533528814663,1455999.0,-0.00674000009894371,0.0010400000028312206,-0.0017300000181421638,0.6561599969863892
6773.534528586879,1456000.0,-0.007369999773800373,0.00571999978274107,0.001230000052601099,0.6553800106048584
6773.535528359094,1456001.0,-0.005929999984800816,0.0059899999760091305,0.00535999983549118,0.652679979801178
6773.53652813131,1456002.0,-0.004399999976158142,0.004679999779909849,-0.0006399999838322401,0.6490600109100342
6773.537527903525,1456003.0,-0.0034099998883903027,0.004860000219196081,0.0013200000394135714,0.6483299732208252
6773.538527675741,1456004.0,-0.0016599999507889152,0.006039999891072512,0.0010000000474974513,0.6507099866867065
6773.539527447955,1456005.0,-0.0003600000054575503,0.007809999864548445,-0.0013200000394135714,0.649429976940155
6773.540527220171,1456006.0,0.0017099999822676182,-0.002950000111013651,-0.002950000111013651,0.6475499868392944
6773.541526992386,1456007.0,0.004629999864846468,-0.00839999970048666,9.000000136438757e-05,0.6448500156402588
6773.5425267646015,1456008.0,0.006599999964237213,0.0017300000181421638,0.002630000002682209,0.6423799991607666
6773.543526536817,1456009.0,0.01221999991685152,0.006399999838322401,-0.002859999891370535,0.6261299848556519
6773.544526309031,1456010.0,0.017160000279545784,0.003220000071451068,-0.0027199999894946814,0.6444900035858154
6773.545526081247,1456011.0,0.019859999418258667,0.002859999891370535,0.0013200000394135714,0.6376199722290039
6773.546525853462,1456012.0,0.020749999210238457,0.0010900000343099236,0.0013200000394135714,0.6385300159454346
6773.547525625678,1456013.0,0.020840000361204147,-0.0017300000181421638,-0.002589999930933118,0.6414200067520142
6773.548525397893,1456014.0,0.021199999377131462,0.0036299999337643385,-0.005090000107884407,0.6323099732398987
6773.549525170109,1456015.0,0.01882000081241131,-0.0021800000686198473,0.004220000002533197,0.635699987411499
6773.550524942323,1456016.0,0.015449999831616879,-0.004769999999552965,0.0013200000394135714,0.6378499865531921
6773.551524714539,1456017.0,0.010780000127851963,-0.0006799999973736703,-0.0022700000554323196,0.6209999918937683
6773.552524486754,1456018.0,0.005750000011175871,-0.0011399999493733048,-0.0028200000524520874,0.6358299851417542
6773.553524258969,1456019.0,0.00107999995816499,-0.005489999894052744,0.0045900000259280205,0.6302000284194946
6773.554524031185,1456020.0,-0.0015300000086426735,-0.0022299999836832285,-4.999999873689376e-05,0.6341400146484375
6773.555523803399,1456021.0,-0.0010300000431016088,0.00031999999191612005,-0.004860000219196081,0.6287400126457214
6773.556523575615,1456022.0,0.0018400000408291817,0.003220000071451068,-0.0009500000160187483,0.6295199990272522
6773.55752334783,1456023.0,0.004670000169426203,0.0024999999441206455,0.0013200000394135714,0.6280099749565125
6773.558523120046,1456024.0,0.007910000160336494,-0.0018599999602884054,-0.0010400000028312206,0.6261699795722961
6773.559522892261,1456025.0,0.011049999855458736,-0.002589999930933118,-0.004410000052303076,0.6264500021934509
6773.560522664477,1456026.0,0.013299999758601189,0.003220000071451068,-0.0006399999838322401,0.6212300062179565
6773.561522436691,1456027.0,0.015540000051259995,0.0072200000286102295,0.003220000071451068,0.6257200241088867
6773.562522208907,1456028.0,0.01779000088572502,-0.0031300000846385956,0.0022299999836832285,0.6150500178337097
6773.563521981122,1456029.0,0.021560000255703926,9.000000136438757e-05,-0.002859999891370535,0.6236100196838379
6773.564521753337,1456030.0,0.025699999183416367,0.0024999999441206455,0.00031999999191612005,0.6172900199890137
6773.565521525553,1456031.0,0.028209999203681946,0.0010400000028312206,0.0036800000816583633,0.6212300062179565
6773.566521297767,1456032.0,0.02865999937057495,0.004629999864846468,-0.0013200000394135714,0.6161500215530396
6773.567521069983,1456033.0,0.02848000079393387,0.0021299999207258224,-0.004809999838471413,0.619629979133606
6773.568520842198,1456034.0,0.025469999760389328,-0.004769999999552965,0.00031999999191612005,0.611299991607666
6773.569520614414,1456035.0,0.021560000255703926,-0.008449999615550041,-0.0007699999841861427,0.6179400086402893
6773.570520386629,1456036.0,0.016349999234080315,-0.004129999782890081,-0.0013200000394135714,0.6140900254249573
6773.571520158845,1456037.0,0.009700000286102295,-0.0071299998089671135,-0.004310000222176313,0.6166499853134155
6773.572519931059,1456038.0,0.006060000043362379,-0.0059899999760091305,0.0024500000290572643,0.6119400262832642
6773.5735197032745,1456039.0,0.004670000169426203,-0.008080000057816505,0.00203999993391335,0.6137199997901917
6773.57451947549,1456040.0,0.007410000078380108,-0.006310000084340572,-4.999999873689376e-05,0.6095100045204163
6773.575519247705,1456041.0,0.010599999688565731,0.0020000000949949026,-0.0012700000079348683,0.6124899983406067
6773.576519019921,1456042.0,0.013209999538958073,0.006899999920278788,0.0019499999471008778,0.6085100173950195
6773.577518792135,1456043.0,0.015769999474287033,0.009259999729692936,-0.001769999973475933,0.6097000241279602
6773.578518564351,1456044.0,0.017920000478625298,0.003860000055283308,-0.002950000111013651,0.6059399843215942
6773.579518336566,1456045.0,0.018780000507831573,0.00535999983549118,-0.0019099999917671084,0.6097000241279602
6773.580518108782,1456046.0,0.019680000841617584,-0.0037700000684708357,0.006039999891072512,0.6050699949264526
6773.581517880997,1456047.0,0.018149999901652336,-0.0015899999998509884,-0.0007699999841861427,0.6071299910545349
6773.582517653212,1456048.0,0.016349999234080315,0.00267999991774559,-0.0021299999207258224,0.5897799730300903
6773.583517425427,1456049.0,0.018459999933838844,0.004089999943971634,-0.0036800000816583633,0.6055799722671509
6773.5845171976425,1456050.0,0.022460000589489937,0.003909999970346689,0.0024500000290572643,0.5993499755859375
6773.585516969858,1456051.0,0.026410000398755074,0.004679999779909849,-0.000539999979082495,0.5870400071144104
6773.586516742073,1456052.0,0.02848000079393387,0.004679999779909849,-0.0018599999602884054,0.6009100079536438
6773.587516514289,1456053.0,0.02655000053346157,0.004040000028908253,0.00031999999191612005,0.6017799973487854
6773.588516286503,1456054.0,0.022280000150203705,0.00686000008136034,-0.003809999907389283,0.5943099856376648
6773.589516058719,1456055.0,0.016170000657439232,-0.002630000002682209,-0.002360000042244792,0.5966899991035461
6773.590515830934,1456056.0,0.009569999761879444,-0.005950000137090683,-0.001500000013038516,0.5993499755859375
6773.59151560315,1456057.0,0.003949999809265137,-0.010940000414848328,-0.0006399999838322401,0.5946400165557861
6773.592515375365,1456058.0,0.001979999942705035,-0.008080000057816505,0.002409999957308173,0.5823699831962585
6773.59351514758,1456059.0,0.00215999991632998,-0.0035000001080334187,0.00031999999191612005,0.5957800149917603
6773.594514919795,1456060.0,0.0036800000816583633,-0.002360000042244792,-0.0036800000816583633,0.5921199917793274
6773.5955146920105,1456061.0,0.006200000178068876,-0.002589999930933118,-0.0027699999045580626,0.5916100144386292
6773.596514464226,1456062.0,0.009429999627172947,-0.0011399999493733048,0.006769999861717224,0.5932199954986572
6773.597514236441,1456063.0,0.011459999717772007,0.0024999999441206455,0.003449999960139394,0.5895500183105469
6773.598514008656,1456064.0,0.013120000250637531,0.004860000219196081,-0.004040000028908253,0.5891900062561035
6773.599513780871,1456065.0,0.014019999653100967,-4.999999873689376e-05,0.00031999999191612005,0.5910199880599976
6773.600513553087,1456066.0,0.014689999632537365,-0.0011399999493733048,0.002409999957308173,0.5839200019836426
6773.601513325302,1456067.0,0.013209999538958073,-0.0008200000156648457,-0.00044999999227002263,0.5862600207328796
6773.602513097518,1456068.0,0.01384000014513731,0.0045900000259280205,-0.002589999930933118,0.5882700085639954
6773.603512869733,1456069.0,0.017030000686645508,0.007400000002235174,-0.0025400000158697367,0.5844699740409851
6773.604512641948,1456070.0,0.020840000361204147,0.005770000163465738,-0.002859999891370535,0.5862600207328796
6773.605512414163,1456071.0,0.022420000284910202,0.007079999893903732,4.999999873689376e-05,0.5834699869155884
6773.6065121863785,1456072.0,0.022460000589489937,-0.003539999946951866,-0.00014000000373926014,0.5852500200271606
6773.607511958594,1456073.0,0.021609999239444733,0.003590000094845891,-0.00203999993391335,0.5820900201797485
6773.608511730809,1456074.0,0.018060000613331795,-0.0011399999493733048,0.0013200000394135714,0.5827299952507019
6773.609511503024,1456075.0,0.012129999697208405,-0.0059899999760091305,-9.000000136438757e-05,0.5822299718856812
6773.610511275239,1456076.0,0.0053900000639259815,-0.0010400000028312206,-0.00031999999191612005,0.5787500143051147
6773.611511047455,1456077.0,0.0002699999895412475,-0.00913000013679266,0.004089999943971634,0.5816299915313721
6773.61251081967,1456078.0,-0.0016199999954551458,-0.0018599999602884054,0.002319999970495701,0.5745400190353394
6773.613510591886,1456079.0,-0.0017999999690800905,0.0030400000978261232,-0.0020000000949949026,0.5800300240516663
6773.614510364101,1456080.0,-0.000539999979082495,-0.001500000013038516,0.00031999999191612005,0.5752300024032593
6773.615510136316,1456081.0,0.00279000005684793,0.00031999999191612005,-0.003220000071451068,0.5778399705886841
6773.616509908531,1456082.0,0.005799999926239252,0.002859999891370535,-0.006579999811947346,0.5781999826431274
6773.6175096807465,1456083.0,0.00674000009894371,-0.00267999991774559,0.00267999991774559,0.5649300217628479
6773.618509452962,1456084.0,0.006020000204443932,-0.001500000013038516,0.0033599999733269215,0.5759999752044678
6773.619509225177,1456085.0,0.004939999897032976,0.0019099999917671084,-0.001500000013038516,0.5765500068664551
6773.620508997392,1456086.0,0.004629999864846468,-0.00203999993391335,-0.0024500000290572643,0.5677599906921387
6773.621508769607,1456087.0,0.003590000094845891,-0.0006399999838322401,0.00014000000373926014,0.5732600092887878
6773.622508541823,1456088.0,0.0048500001430511475,-0.000590000010561198,0.001449999981559813,0.5749099850654602
6773.623508314038,1456089.0,0.007189999800175428,0.012400000356137753,-0.0015399999683722854,0.5652899742126465
6773.624508086254,1456090.0,0.010239999741315842,0.011939999647438526,-0.002589999930933118,0.5727099776268005
6773.625507858469,1456091.0,0.01348000019788742,0.00571999978274107,0.003000000026077032,0.5705999732017517
6773.626507630684,1456092.0,0.017160000279545784,0.0019499999471008778,0.004269999917596579,0.5587499737739563
