LSL_Time,PLUX_P1_nSeq,PLUX_P1_ECG0,PLUX_P1_EMG1,PLUX_P1_EMG2,PLUX_P1_RESPIRATION3
6970.223715585569,1652734.0,-0.042089998722076416,-0.0019499999471008778,-0.0019099999917671084,0.04893000051379204
6970.224715357785,1652735.0,-0.040789999067783356,0.00749000022187829,0.0015899999998509884,0.054110001772642136
6970.22571513,1652736.0,-0.03773999959230423,0.008489999920129776,-0.0010000000474974513,0.056439999490976334
6970.226714902215,1652737.0,-0.03782999888062477,0.006130000110715628,0.0024999999441206455,0.057999998331069946
6970.22771467443,1652738.0,-0.03931000083684921,0.003590000094845891,-0.004089999943971634,0.058729998767375946
6970.228714446645,1652739.0,-0.040789999067783356,-0.0008200000156648457,-0.004769999999552965,0.05415000021457672
6970.229714218861,1652740.0,-0.04438000172376633,0.00031999999191612005,-0.014940000139176846,0.05260000005364418
6970.230713991075,1652741.0,-0.04789000004529953,0.003000000026077032,-0.01803000085055828,0.053050000220537186
6970.231713763291,1652742.0,-0.050939999520778656,0.0031300000846385956,-0.010990000329911709,0.05488999933004379
6970.232713535506,1652743.0,-0.05390999838709831,-0.001230000052601099,-0.007040000054985285,0.05992000177502632
6970.233713307722,1652744.0,-0.05364000052213669,0.004040000028908253,0.00031999999191612005,0.0618400014936924
6970.234713079937,1652745.0,-0.05067000165581703,-0.0037700000684708357,0.005900000222027302,0.06307999789714813
6970.235712852153,1652746.0,-0.047839999198913574,-0.010400000028312206,0.02206999994814396,0.06464000046253204
6970.236712624367,1652747.0,-0.044829998165369034,-0.015300000086426735,0.021929999813437462,0.06550999730825424
6970.2377123965825,1652748.0,-0.040789999067783356,-0.00839999970048666,0.003220000071451068,0.06656000018119812
6970.238712168798,1652749.0,-0.03756000101566315,-0.0036800000816583633,0.0035000001080334187,0.06757000088691711
6970.239711941013,1652750.0,-0.036570001393556595,0.005770000163465738,-0.00041000000783242285,0.0686199963092804
6970.240711713229,1652751.0,-0.036070000380277634,0.009399999864399433,-0.0019099999917671084,0.06926000118255615
6970.241711485443,1652752.0,-0.03790999948978424,0.010809999890625477,-0.007400000002235174,0.06958000361919403
6970.242711257659,1652753.0,-0.04042999818921089,0.004679999779909849,-0.007670000195503235,0.06857000291347504
6970.243711029874,1652754.0,-0.04438000172376633,-0.005859999917447567,0.005539999809116125,0.0667399987578392
6970.24471080209,1652755.0,-0.0471699982881546,-0.0013200000394135714,-0.000539999979082495,0.06564000248908997
6970.245710574305,1652756.0,-0.0494999997317791,0.00031999999191612005,0.0072200000286102295,0.06592000275850296
6970.246710346521,1652757.0,-0.050039999186992645,0.006810000166296959,0.0031300000846385956,0.06802000105381012
6970.247710118735,1652758.0,-0.05192999914288521,0.0045900000259280205,-0.004769999999552965,0.06843999773263931
6970.2487098909505,1652759.0,-0.05623999983072281,0.005770000163465738,-0.004000000189989805,0.06908000260591507
6970.249709663166,1652760.0,-0.06074000149965286,-0.0006399999838322401,-0.0018599999602884054,0.06976000219583511
6970.250709435381,1652761.0,-0.06451000273227692,-0.006719999946653843,-0.0011399999493733048,0.07520999759435654
6970.251709207597,1652762.0,-0.06604000180959702,-0.0010400000028312206,-0.004900000058114529,0.07227999716997147
6970.252708979811,1652763.0,-0.06612999737262726,-0.004040000028908253,-0.002589999930933118,0.07759000360965729
6970.253708752027,1652764.0,-0.0666700005531311,-0.008449999615550041,0.0027699999045580626,0.07886999845504761
6970.254708524242,1652765.0,-0.06724999845027924,-0.002589999930933118,0.0012700000079348683,0.08051999658346176
6970.255708296458,1652766.0,-0.06518000364303589,0.00031999999191612005,-0.007269999943673611,0.08189000189304352
6970.256708068673,1652767.0,-0.06074000149965286,-0.002090000081807375,-0.004040000028908253,0.08371999859809875
6970.2577078408885,1652768.0,-0.055879998952150345,0.00267999991774559,-0.004900000058114529,0.08510000258684158
6970.258707613103,1652769.0,-0.05220000073313713,0.004540000110864639,0.002360000042244792,0.08614999800920486
6970.2597073853185,1652770.0,-0.049059998244047165,0.011169999837875366,0.0012700000079348683,0.08303999900817871
6970.260707157534,1652771.0,-0.04470000043511391,0.006630000192672014,-0.000859999970998615,0.07993000000715256
6970.261706929749,1652772.0,-0.041099999099969864,0.012489999644458294,0.003949999809265137,0.0816200003027916
6970.262706701965,1652773.0,-0.03880999982357025,0.012489999644458294,0.009990000165998936,0.08258000016212463
6970.263706474179,1652774.0,-0.03517000004649162,-0.00041000000783242285,0.00018000000272877514,0.08349999785423279
6970.264706246395,1652775.0,-0.030640000477433205,-0.0003600000054575503,0.003809999907389283,0.08455000072717667
6970.26570601861,1652776.0,-0.026639999821782112,0.001230000052601099,0.006630000192672014,0.08545999974012375
6970.266705790826,1652777.0,-0.024569999426603317,-0.0013200000394135714,0.006130000110715628,0.08687999844551086
6970.267705563041,1652778.0,-0.022910000756382942,-0.006219999864697456,0.007809999864548445,0.08821000158786774
6970.2687053352565,1652779.0,-0.024529999122023582,-0.008860000409185886,-0.004540000110864639,0.09554000198841095
6970.269705107471,1652780.0,-0.02622999995946884,-0.002589999930933118,-0.004769999999552965,0.09731999784708023
6970.2707048796865,1652781.0,-0.027939999476075172,0.00031999999191612005,-0.01671000011265278,0.09150999784469604
6970.271704651902,1652782.0,-0.029109999537467957,-0.00686000008136034,-0.0030900000128895044,0.09195999801158905
6970.272704424117,1652783.0,-0.027939999476075172,-0.006630000192672014,-0.00044999999227002263,0.09773000329732895
6970.273704196333,1652784.0,-0.024979999288916588,-0.00203999993391335,0.0011399999493733048,0.09993000328540802
6970.274703968547,1652785.0,-0.026149999350309372,0.0030900000128895044,-0.002090000081807375,0.10322999954223633
6970.275703740763,1652786.0,-0.03127000108361244,-0.004410000052303076,-0.005900000222027302,0.10062000155448914
6970.276703512978,1652787.0,-0.03162999823689461,-0.007899999618530273,0.0030400000978261232,0.09769000113010406
6970.277703285194,1652788.0,-0.030729999765753746,-0.00839999970048666,0.004269999917596579,0.09860000014305115
6970.278703057409,1652789.0,-0.03136000037193298,0.00031999999191612005,0.00571999978274107,0.10497000068426132
6970.2797028296245,1652790.0,-0.0301900003105402,0.003949999809265137,-0.000859999970998615,0.10802999883890152
6970.280702601839,1652791.0,-0.02745000086724758,0.007899999618530273,-0.006769999861717224,0.1092199981212616
6970.2817023740545,1652792.0,-0.02694999985396862,0.011579999700188637,-0.008860000409185886,0.10382000356912613
6970.28270214627,1652793.0,-0.028300000354647636,0.006130000110715628,-0.0071299998089671135,0.11275000125169754
6970.283701918485,1652794.0,-0.029200000688433647,0.009759999811649323,-0.004900000058114529,0.1057400032877922
6970.2847016907,1652795.0,-0.027580000460147858,0.006130000110715628,0.00031999999191612005,0.1116499975323677
6970.285701462915,1652796.0,-0.026410000398755074,0.003220000071451068,-0.0007699999841861427,0.1139800027012825
6970.286701235131,1652797.0,-0.029109999537467957,0.009720000438392162,-0.003909999970346689,0.1123799979686737
6970.287701007346,1652798.0,-0.03482000157237053,0.005950000137090683,0.001769999973475933,0.11603999882936478
6970.288700779562,1652799.0,-0.041099999099969864,-0.0012700000079348683,0.009309999644756317,0.11403000354766846
6970.289700551777,1652800.0,-0.04537000134587288,-0.014759999699890614,0.016620000824332237,0.11896999925374985
6970.2907003239925,1652801.0,-0.04879000037908554,-0.012810000218451023,0.006769999861717224,0.11750999838113785
6970.291700096207,1652802.0,-0.052650000900030136,-0.000859999970998615,-0.006399999838322401,0.12195000052452087
6970.2926998684225,1652803.0,-0.05345999822020531,-0.0062699997797608376,-0.006630000192672014,0.11879000067710876
6970.293699640638,1652804.0,-0.052469998598098755,-0.002090000081807375,0.003220000071451068,0.12575000524520874
6970.294699412853,1652805.0,-0.049059998244047165,-0.008170000277459621,0.009359999559819698,0.11992999911308289
6970.295699185068,1652806.0,-0.04416000097990036,-0.008220000192523003,0.002859999891370535,0.12680000066757202
6970.296698957283,1652807.0,-0.03880999982357025,-0.00686000008136034,-0.0017300000181421638,0.12729999423027039
6970.297698729499,1652808.0,-0.033240001648664474,-0.007670000195503235,0.0010400000028312206,0.12601999938488007
6970.298698501714,1652809.0,-0.02928999997675419,0.0011399999493733048,0.001500000013038516,0.13178999722003937
6970.29969827393,1652810.0,-0.026149999350309372,0.00953999999910593,-0.005489999894052744,0.1269800066947937
6970.300698046145,1652811.0,-0.025790000334382057,0.0072200000286102295,-0.013530000112950802,0.13508999347686768
6970.30169781836,1652812.0,-0.02745000086724758,0.0024999999441206455,-0.004410000052303076,0.12761999666690826
6970.302697590575,1652813.0,-0.02978000044822693,-0.006630000192672014,0.001820000004954636,0.1378300040960312
6970.30369736279,1652814.0,-0.03198999911546707,-0.006719999946653843,-0.0020000000949949026,0.13663999736309052
6970.304697135006,1652815.0,-0.03127000108361244,0.004809999838471413,0.005040000192821026,0.13508999347686768
6970.305696907221,1652816.0,-0.030139999464154243,0.013580000028014183,-0.0027199999894946814,0.14008000493049622
6970.306696679436,1652817.0,-0.029600000008940697,0.01257999986410141,-0.006539999973028898,0.13663999736309052
6970.307696451651,1652818.0,-0.031449999660253525,0.0016799999866634607,-0.002859999891370535,0.1438799947500229
6970.308696223867,1652819.0,-0.032749999314546585,-0.0007699999841861427,0.005270000081509352,0.13801999390125275
6970.309695996082,1652820.0,-0.032519999891519547,-0.001500000013038516,0.004089999943971634,0.1467999964952469
6970.310695768298,1652821.0,-0.033560000360012054,-0.010940000414848328,-0.002319999970495701,0.1420000046491623
6970.311695540513,1652822.0,-0.032430000603199005,-0.011719999834895134,-0.0051299999468028545,0.15041999518871307
6970.312695312728,1652823.0,-0.029829999431967735,0.00031999999191612005,-0.005539999809116125,0.14203999936580658
6970.313695084943,1652824.0,-0.028349999338388443,0.00031999999191612005,-0.0052200001664459705,0.15207000076770782
6970.314694857158,1652825.0,-0.027089999988675117,0.004310000222176313,-0.002319999970495701,0.14406000077724457
6970.315694629374,1652826.0,-0.025520000606775284,0.001449999981559813,-0.009850000031292439,0.15549999475479126
6970.316694401589,1652827.0,-0.02443999983370304,0.004410000052303076,-0.0018599999602884054,0.14754000306129456
6970.317694173804,1652828.0,-0.020659999921917915,0.003220000071451068,-0.0013599999947473407,0.1576099991798401
6970.318693946019,1652829.0,-0.017470000311732292,-0.0007300000288523734,0.013170000165700912,0.14955000579357147
6970.319693718235,1652830.0,-0.015860000625252724,-0.0036800000816583633,0.006089999806135893,0.15633000433444977
6970.32069349045,1652831.0,-0.012400000356137753,-0.00839999970048666,0.009039999917149544,0.15971000492572784
6970.321693262666,1652832.0,-0.006920000072568655,-0.006990000139921904,0.011939999647438526,0.15467999875545502
6970.322693034881,1652833.0,-0.0024300001095980406,0.0014100000262260437,-0.0011399999493733048,0.1621900051832199
6970.3236928070955,1652834.0,-0.0007200000109151006,0.0031300000846385956,-0.006130000110715628,0.15828999876976013
6970.324692579311,1652835.0,0.0018899999558925629,0.012489999644458294,-0.002950000111013651,0.16548000276088715
6970.325692351526,1652836.0,0.0036800000816583633,0.013399999588727951,-0.004809999838471413,0.1592099964618683
6970.326692123742,1652837.0,-0.000539999979082495,0.003220000071451068,-0.006719999946653843,0.16864000260829926
6970.327691895957,1652838.0,-0.008449999615550041,0.0022700000554323196,-0.001230000052601099,0.16158999502658844
6970.328691668172,1652839.0,-0.015359999611973763,0.0010400000028312206,0.00031999999191612005,0.17001000046730042
6970.329691440387,1652840.0,-0.019770000129938126,-0.002630000002682209,0.003719999920576811,0.1713400036096573
6970.330691212603,1652841.0,-0.022690000012516975,-0.006399999838322401,0.004679999779909849,0.1643799990415573
6970.331690984818,1652842.0,-0.02443999983370304,-0.004449999891221523,0.004040000028908253,0.17161999642848969
6970.332690757034,1652843.0,-0.023000000044703484,-0.004040000028908253,0.000859999970998615,0.17427000403404236
6970.333690529249,1652844.0,-0.02191999927163124,-0.006219999864697456,0.0036800000816583633,0.16730999946594238
6970.3346903014635,1652845.0,-0.019859999418258667,-0.0010400000028312206,-0.006089999806135893,0.17367999255657196
6970.335690073679,1652846.0,-0.017650000751018524,-0.0005000000237487257,-0.005489999894052744,0.17893999814987183
6970.336689845894,1652847.0,-0.018869999796152115,-0.0013599999947473407,-0.00014000000373926014,0.17083999514579773
6970.33768961811,1652848.0,-0.024709999561309814,0.007579999975860119,0.0018599999602884054,0.18004000186920166
6970.338689390325,1652849.0,-0.028119999915361404,0.009759999811649323,0.002859999891370535,0.17903000116348267
6970.33968916254,1652850.0,-0.031939998269081116,-0.002589999930933118,0.006130000110715628,0.17971999943256378
6970.340688934755,1652851.0,-0.0350399985909462,0.0017300000181421638,-0.0028200000524520874,0.1817300021648407
6970.341688706971,1652852.0,-0.035760000348091125,0.003539999946951866,-0.005539999809116125,0.18616999685764313
6970.342688479186,1652853.0,-0.03629999980330467,0.00795000046491623,-0.008220000192523003,0.17564000189304352
6970.3436882514015,1652854.0,-0.036570001393556595,0.00014000000373926014,-0.009449999779462814,0.18613000214099884
6970.344688023617,1652855.0,-0.03136000037193298,0.0021299999207258224,0.0019099999917671084,0.18616999685764313
6970.3456877958315,1652856.0,-0.022420000284910202,0.005179999861866236,0.005590000189840794,0.18232999742031097
6970.346687568047,1652857.0,-0.016259999945759773,-4.999999873689376e-05,0.001769999973475933,0.19199000298976898
6970.347687340262,1652858.0,-0.015180000104010105,-0.004769999999552965,0.00267999991774559,0.18127000331878662
6970.348687112478,1652859.0,-0.017969999462366104,-0.015300000086426735,0.002319999970495701,0.1933099925518036
6970.349686884692,1652860.0,-0.022690000012516975,-0.006579999811947346,0.008580000139772892,0.18668000400066376
6970.350686656908,1652861.0,-0.028620000928640366,-0.00686000008136034,9.000000136438757e-05,0.19235000014305115
6970.351686429123,1652862.0,-0.036070000380277634,-0.013580000028014183,0.0037700000684708357,0.19655999541282654
6970.352686201339,1652863.0,-0.04145999997854233,-0.004129999782890081,0.00686000008136034,0.18932999670505524
6970.353685973554,1652864.0,-0.044920001178979874,0.007079999893903732,-0.0002699999895412475,0.1933099925518036
6970.3546857457695,1652865.0,-0.04416000097990036,9.000000136438757e-05,-0.0022299999836832285,0.19762000441551208
6970.355685517985,1652866.0,-0.03953000158071518,0.0015399999683722854,0.004000000189989805,0.19655999541282654
6970.3566852901995,1652867.0,-0.03413999825716019,0.0072200000286102295,0.003220000071451068,0.19043000042438507
6970.357685062415,1652868.0,-0.029829999431967735,0.010490000247955322,-0.001820000004954636,0.20045000314712524
6970.35868483463,1652869.0,-0.026100000366568565,0.007309999782592058,-0.007899999618530273,0.19537000358104706
6970.359684606846,1652870.0,-0.023310000076889992,0.0035000001080334187,-0.004809999838471413,0.2012300044298172
6970.36068437906,1652871.0,-0.0218299999833107,-0.012529999949038029,0.0064500002190470695,0.1990399956703186
6970.361684151276,1652872.0,-0.024979999288916588,-0.019300000742077827,0.019260000437498093,0.20173999667167664
6970.362683923491,1652873.0,-0.02785000018775463,-0.003539999946951866,0.011169999837875366,0.20534999668598175
6970.363683695707,1652874.0,-0.030139999464154243,0.006490000057965517,-0.0033599999733269215,0.20009000599384308
6970.364683467922,1652875.0,-0.03127000108361244,0.008860000409185886,-0.005900000222027302,0.20430000126361847
6970.3656832401375,1652876.0,-0.030640000477433205,0.01107999961823225,-0.005489999894052744,0.2085600048303604
6970.366683012352,1652877.0,-0.028209999203681946,0.016119999811053276,-0.007449999917298555,0.20247000455856323
6970.3676827845675,1652878.0,-0.02745000086724758,0.007449999917298555,-0.010540000163018703,0.2059900015592575
6970.368682556783,1652879.0,-0.026319999247789383,0.002409999957308173,-0.011309999972581863,0.20987999439239502
6970.369682328998,1652880.0,-0.02507000043988228,0.002859999891370535,-0.00795000046491623,0.20494000613689423
6970.370682101214,1652881.0,-0.022059999406337738,0.004089999943971634,0.0014100000262260437,0.20178000628948212
6970.371681873428,1652882.0,-0.018279999494552612,-0.002950000111013651,-4.999999873689376e-05,0.21312999725341797
6970.372681645644,1652883.0,-0.018689999356865883,-0.004769999999552965,0.002319999970495701,0.20196999609470367
6970.373681417859,1652884.0,-0.023360000923275948,-0.00571999978274107,0.00031999999191612005,0.21381999552249908
6970.374681190075,1652885.0,-0.026410000398755074,-0.0064500002190470695,-0.005489999894052744,0.21126000583171844
6970.37568096229,1652886.0,-0.028839999809861183,-0.0019099999917671084,0.0002300000051036477,0.21358999609947205
6970.3766807345055,1652887.0,-0.033649999648332596,0.004860000219196081,-0.004629999864846468,0.2146500051021576
6970.37768050672,1652888.0,-0.03198999911546707,0.0011399999493733048,0.00014000000373926014,0.2155199944972992
6970.3786802789355,1652889.0,-0.02703999914228916,0.0013200000394135714,0.0072200000286102295,0.2176699936389923
6970.379680051151,1652890.0,-0.02525000087916851,0.002859999891370535,0.0072200000286102295,0.21729999780654907
6970.380679823366,1652891.0,-0.027580000460147858,-0.005489999894052744,0.013030000030994415,0.2161100059747696
6970.381679595582,1652892.0,-0.02857000008225441,-0.00203999993391335,0.0045900000259280205,0.21487000584602356
6970.382679367796,1652893.0,-0.026149999350309372,-0.007040000054985285,0.01375999953597784,0.21258999407291412
6970.383679140012,1652894.0,-0.02353999949991703,0.00014000000373926014,0.00795000046491623,0.21410000324249268
6970.384678912227,1652895.0,-0.02043999917805195,0.006680000107735395,-0.008630000054836273,0.214369997382164
6970.385678684443,1652896.0,-0.01779000088572502,0.003220000071451068,-0.01334999967366457,0.21459999680519104
6970.386678456658,1652897.0,-0.016349999234080315,0.006130000110715628,-0.011719999834895134,0.21758000552654266
6970.3876782288735,1652898.0,-0.016580000519752502,-0.001500000013038516,0.005400000140070915,0.2211499959230423
6970.388678001088,1652899.0,-0.018239999189972878,-0.012529999949038029,9.000000136438757e-05,0.2238900065422058
6970.389677773303,1652900.0,-0.023989999666810036,-0.0027199999894946814,-0.0010000000474974513,0.21807999908924103
6970.390677545519,1652901.0,-0.031449999660253525,0.0028200000524520874,-0.0022700000554323196,0.2242099940776825
6970.391677317734,1652902.0,-0.03539999946951866,0.003220000071451068,-0.0018599999602884054,0.21240000426769257
6970.39267708995,1652903.0,-0.03539999946951866,0.0017300000181421638,-0.0007300000288523734,0.21976999938488007
6970.393676862164,1652904.0,-0.03260999917984009,0.004360000137239695,-0.003269999986514449,0.22443999350070953
6970.39467663438,1652905.0,-0.028529999777674675,0.006039999891072512,-0.005489999894052744,0.21642999351024628
6970.395676406595,1652906.0,-0.022460000589489937,0.003220000071451068,0.00031999999191612005,0.22645999491214752
6970.396676178811,1652907.0,-0.017389999702572823,0.00686000008136034,-0.0033599999733269215,0.22371000051498413
6970.397675951026,1652908.0,-0.013030000030994415,0.004900000058114529,0.0,0.22123999893665314
6970.3986757232415,1652909.0,-0.010110000148415565,0.00267999991774559,0.001180000021122396,0.22833000123500824
6970.399675495456,1652910.0,-0.008089999668300152,0.00203999993391335,0.00031999999191612005,0.22443999350070953
6970.400675267671,1652911.0,-0.007009999826550484,0.0024999999441206455,0.007360000163316727,0.22165000438690186
6970.401675039887,1652912.0,-0.005750000011175871,-0.006949999835342169,0.010400000028312206,0.22934000194072723
6970.402674812102,1652913.0,-0.00674000009894371,-0.017890000715851784,0.016669999808073044,0.22452999651432037
6970.403674584318,1652914.0,-0.009519999846816063,-0.021530000492930412,0.018479999154806137,0.2224300056695938
6970.404674356532,1652915.0,-0.011230000294744968,-0.012350000441074371,0.00989999994635582,0.22696000337600708
6970.405674128748,1652916.0,-0.01128000020980835,0.0002699999895412475,-0.00031999999191612005,0.22618000209331512
6970.406673900963,1652917.0,-0.01181000005453825,0.005950000137090683,-0.005489999894052744,0.22719000279903412
6970.407673673179,1652918.0,-0.011640000157058239,0.006719999946653843,-0.0022700000554323196,0.22412000596523285
6970.408673445394,1652919.0,-0.013120000250637531,0.00686000008136034,-0.0010000000474974513,0.22800999879837036
6970.409673217609,1652920.0,-0.01679999940097332,0.008670000359416008,-0.0051299999468028545,0.22536000609397888
6970.410672989824,1652921.0,-0.020309999585151672,0.003590000094845891,-0.0072200000286102295,0.22856000065803528
6970.411672762039,1652922.0,-0.023269999772310257,0.004310000222176313,-0.005489999894052744,0.22005000710487366
6970.412672534255,1652923.0,-0.019950000569224358,-0.002630000002682209,-0.0044999998062849045,0.22842000424861908
6970.41367230647,1652924.0,-0.014639999717473984,-0.005950000137090683,-0.005630000028759241,0.22957000136375427
6970.414672078685,1652925.0,-0.009519999846816063,0.00267999991774559,-0.004809999838471413,0.21967999637126923
6970.4156718509,1652926.0,-0.007009999826550484,0.00418000016361475,-0.006680000107735395,0.2257699966430664
6970.416671623116,1652927.0,-0.005750000011175871,0.0037700000684708357,-9.000000136438757e-05,0.23029999434947968
6970.417671395331,1652928.0,-0.00215999991632998,0.00014000000373926014,0.007400000002235174,0.2242099940776825
6970.418671167547,1652929.0,-0.00018000000272877514,-0.002589999930933118,0.007449999917298555,0.23231999576091766
6970.419670939762,1652930.0,-0.0034099998883903027,-0.0022299999836832285,0.011260000057518482,0.2211499959230423
6970.420670711977,1652931.0,-0.008980000391602516,-0.006680000107735395,0.011490000411868095,0.2306700050830841
6970.421670484192,1652932.0,-0.009970000013709068,-0.006219999864697456,0.004220000002533197,0.22745999693870544
6970.422670256407,1652933.0,-0.011370000429451466,-0.0002300000051036477,0.0035000001080334187,0.22774000465869904
6970.423670028623,1652934.0,-0.009789999574422836,-0.0011399999493733048,-0.0024500000290572643,0.23029999434947968
6970.424669800838,1652935.0,-0.004579999949783087,0.000859999970998615,-0.00749000022187829,0.22553999722003937
6970.425669573053,1652936.0,-0.00107999995816499,0.0072200000286102295,-0.00803999975323677,0.2293899953365326
6970.426669345268,1652937.0,-0.0023399998899549246,0.003590000094845891,-0.001769999973475933,0.22622999548912048
6970.427669117484,1652938.0,-0.004040000028908253,0.008129999972879887,0.0019099999917671084,0.2317200005054474
6970.428668889699,1652939.0,-0.0028800000436604023,0.012129999697208405,0.0021299999207258224,0.22397999465465546
6970.429668661915,1652940.0,-0.0036800000816583633,0.015939999371767044,-0.0025400000158697367,0.23360000550746918
6970.43066843413,1652941.0,-0.00646999990567565,0.012760000303387642,-0.006810000166296959,0.22879000008106232
6970.4316682063445,1652942.0,-0.0071000000461936,-0.00044999999227002263,0.003220000071451068,0.22599999606609344
6970.43266797856,1652943.0,-0.004629999864846468,-0.007579999975860119,-0.0013200000394135714,0.23130999505519867
6970.433667750775,1652944.0,-0.004089999943971634,9.000000136438757e-05,-0.008899999782443047,0.22614000737667084
6970.434667522991,1652945.0,-0.004540000110864639,0.0022299999836832285,-0.007670000195503235,0.23176999390125275
6970.435667295206,1652946.0,-0.0012600000482052565,-0.002950000111013651,-0.004410000052303076,0.22687000036239624
6970.436667067421,1652947.0,0.0031900000758469105,-0.017799999564886093,0.006539999973028898,0.2322700023651123
6970.437666839636,1652948.0,0.006289999932050705,-0.014209999702870846,0.005040000192821026,0.22279000282287598
6970.438666611852,1652949.0,0.008670000359416008,-0.011309999972581863,0.004679999779909849,0.2324499934911728
6970.439666384067,1652950.0,0.010379999876022339,-0.006219999864697456,0.005040000192821026,0.22951999306678772
6970.4406661562825,1652951.0,0.01095999963581562,0.0030400000978261232,-9.000000136438757e-05,0.2273699939250946
6970.441665928498,1652952.0,0.009069999679923058,0.005040000192821026,0.0017300000181421638,0.23263999819755554
6970.4426657007125,1652953.0,0.008940000087022781,0.01576000079512596,0.0028200000524520874,0.22279000282287598
6970.443665472928,1652954.0,0.007189999800175428,0.009759999811649323,0.006219999864697456,0.23231999576091766
6970.444665245143,1652955.0,0.004129999782890081,0.00795000046491623,0.007309999782592058,0.22883999347686768
6970.445665017359,1652956.0,0.004040000028908253,0.010940000414848328,0.004269999917596579,0.2273699939250946
6970.446664789574,1652957.0,0.0022499999031424522,0.013030000030994415,-0.0002300000051036477,0.2322700023651123
6970.447664561789,1652958.0,-0.0034099998883903027,-0.0010900000343099236,0.004220000002533197,0.23061999678611755
6970.448664334004,1652959.0,-0.010470000095665455,-0.015939999371767044,0.002409999957308173,0.22627000510692596
6970.44966410622,1652960.0,-0.015540000051259995,-0.018389999866485596,0.009039999917149544,0.2331400066614151
6970.450663878435,1652961.0,-0.015629999339580536,-0.01566999964416027,0.00686000008136034,0.22883999347686768
6970.4516636506505,1652962.0,-0.01508999988436699,-0.007860000245273113,-0.003949999809265137,0.2272299975156784
6970.452663422866,1652963.0,-0.01384000014513731,0.003719999920576811,-0.005489999894052744,0.23263999819755554
6970.4536631950805,1652964.0,-0.01257999986410141,0.002859999891370535,0.0022700000554323196,0.23263999819755554
6970.454662967296,1652965.0,-0.010420000180602074,-0.004449999891221523,0.0016799999866634607,0.22234000265598297
6970.455662739511,1652966.0,-0.006649999879300594,-0.004860000219196081,0.002630000002682209,0.22951999306678772
6970.456662511727,1652967.0,-0.002739999908953905,0.004809999838471413,0.0031300000846385956,0.23176999390125275
6970.457662283942,1652968.0,0.0002699999895412475,0.0014100000262260437,0.008580000139772892,0.22791999578475952
6970.458662056157,1652969.0,0.0023399998899549246,0.003590000094845891,-0.0019099999917671084,0.23432999849319458
6970.459661828372,1652970.0,0.0016199999954551458,0.010759999975562096,-0.002589999930933118,0.2259099930524826
6970.460661600588,1652971.0,-0.0017500000540167093,0.010759999975562096,-0.003269999986514449,0.2317200005054474
6970.461661372803,1652972.0,-0.004939999897032976,0.004449999891221523,-0.005900000222027302,0.2312600016593933
6970.4626611450185,1652973.0,-0.007679999805986881,-0.005489999894052744,-0.0011399999493733048,0.2276500016450882
6970.463660917234,1652974.0,-0.010060000233352184,-0.013489999808371067,0.010540000163018703,0.23469999432563782
6970.4646606894485,1652975.0,-0.011370000429451466,-0.006579999811947346,0.01331000030040741,0.22443999350070953
6970.465660461664,1652976.0,-0.011590000241994858,0.006949999835342169,0.007079999893903732,0.23523999750614166
6970.466660233879,1652977.0,-0.01095999963581562,0.003220000071451068,0.007079999893903732,0.22572000324726105
6970.467660006095,1652978.0,-0.011189999990165234,-0.0014100000262260437,0.008990000002086163,0.23351000249385834
6970.46865977831,1652979.0,-0.009700000286102295,0.0027699999045580626,0.011309999972581863,0.2313999980688095
6970.469659550525,1652980.0,-0.007550000213086605,0.00031999999191612005,0.006490000057965517,0.23058000206947327
6970.47065932274,1652981.0,-0.008270000107586384,-0.005489999894052744,-0.0011399999493733048,0.22934000194072723
6970.471659094956,1652982.0,-0.01051000040024519,-0.008449999615550041,-0.007540000136941671,0.2357500046491623
6970.472658867171,1652983.0,-0.012529999949038029,0.0021299999207258224,-0.01071999967098236,0.23396000266075134
6970.4736586393865,1652984.0,-0.012670000083744526,0.005859999917447567,-0.016119999811053276,0.2246199995279312
6970.474658411602,1652985.0,-0.013659999705851078,0.006130000110715628,-0.008899999782443047,0.22869999706745148
6970.475658183816,1652986.0,-0.015449999831616879,-0.00913000013679266,0.004679999779909849,0.23611000180244446
6970.476657956032,1652987.0,-0.0147299999371171,0.008489999920129776,0.0059899999760091305,0.23451000452041626
6970.477657728247,1652988.0,-0.01131999958306551,0.012670000083744526,0.004089999943971634,0.2259099930524826
6970.478657500463,1652989.0,-0.006380000151693821,0.004679999779909849,0.0015899999998509884,0.23578999936580658
6970.479657272677,1652990.0,-0.0031399999279528856,-0.006579999811947346,0.005770000163465738,0.23267999291419983
6970.480657044893,1652991.0,-0.0008500000112690032,-0.013489999808371067,0.001769999973475933,0.22970999777317047
6970.481656817108,1652992.0,0.0006300000241026282,0.0016299999551847577,0.00031999999191612005,0.2337300032377243
6970.482656589324,1652993.0,0.0016199999954551458,0.0071299998089671135,-0.003000000026077032,0.2302599996328354
6970.483656361539,1652994.0,0.0018400000408291817,0.00031999999191612005,-0.00041000000783242285,0.23520000278949738
6970.4846561337545,1652995.0,0.004670000169426203,0.0010400000028312206,-0.0005000000237487257,0.22719000279903412
6970.48565590597,1652996.0,0.009340000338852406,0.0024500000290572643,-0.0007699999841861427,0.2379000037908554
6970.486655678184,1652997.0,0.011409999802708626,0.008310000412166119,-0.004040000028908253,0.22443999350070953
6970.4876554504,1652998.0,0.01181000005453825,0.009309999644756317,-0.004040000028908253,0.2370299994945526
6970.488655222615,1652999.0,0.012040000408887863,0.008449999615550041,0.0014100000262260437,0.23331999778747559
6970.489654994831,1653000.0,0.01095999963581562,-0.004769999999552965,0.0029100000392645597,0.2322700023651123
6970.490654767045,1653001.0,0.008980000391602516,-0.007400000002235174,-0.0029100000392645597,0.23543000221252441
6970.491654539261,1653002.0,0.007369999773800373,-0.003539999946951866,-0.008580000139772892,0.2259099930524826
6970.492654311476,1653003.0,0.006020000204443932,-0.004809999838471413,-0.006680000107735395,0.23725999891757965
6970.493654083692,1653004.0,0.006829999852925539,-0.009949999861419201,-0.004769999999552965,0.23331999778747559
6970.494653855907,1653005.0,0.0083600003272295,-0.00913000013679266,-0.0031799999997019768,0.23176999390125275
6970.495653628122,1653006.0,0.009879999794065952,-0.011579999700188637,0.004449999891221523,0.23615999519824982
6970.496653400337,1653007.0,0.006380000151693821,-0.004360000137239695,0.0035000001080334187,0.22883999347686768
6970.497653172552,1653008.0,0.0028299998957663774,0.0008200000156648457,0.001500000013038516,0.2386299967765808
6970.498652944768,1653009.0,0.0028800000436604023,0.004679999779909849,0.0010400000028312206,0.23446999490261078
6970.499652716983,1653010.0,0.006829999852925539,0.009580000303685665,-0.0013599999947473407,0.23250000178813934
6970.500652489199,1653011.0,0.008580000139772892,0.0034099998883903027,0.0013599999947473407,0.23601999878883362
6970.501652261413,1653012.0,0.008089999668300152,-0.002859999891370535,0.006990000139921904,0.23038999736309052
6970.502652033629,1653013.0,0.0037700000684708357,-0.004769999999552965,0.012529999949038029,0.23871999979019165
6970.503651805844,1653014.0,0.0014400000218302011,0.003220000071451068,0.003949999809265137,0.22754999995231628
6970.50465157806,1653015.0,0.0031399999279528856,0.008670000359416008,-0.001500000013038516,0.23752999305725098
6970.505651350275,1653016.0,0.004040000028908253,0.013399999588727951,-0.0045900000259280205,0.23396000266075134
6970.50665112249,1653017.0,0.0017099999822676182,0.016300000250339508,-0.017669999971985817,0.23469999432563782
6970.507650894705,1653018.0,-0.002959999954327941,0.013580000028014183,-0.014990000054240227,0.23729999363422394
6970.50865066692,1653019.0,-0.00965999998152256,0.001820000004954636,-0.006949999835342169,0.22846999764442444
6970.509650439136,1653020.0,-0.01671000011265278,-0.0024500000290572643,0.013399999588727951,0.2380799949169159
6970.510650211351,1653021.0,-0.023180000483989716,-0.007720000110566616,0.018300000578165054,0.23469999432563782
6970.511649983567,1653022.0,-0.024080000817775726,-0.0064500002190470695,0.003220000071451068,0.23469999432563782
6970.512649755781,1653023.0,-0.019950000569224358,0.002360000042244792,-0.003809999907389283,0.23653000593185425
6970.513649527997,1653024.0,-0.01508999988436699,0.003590000094845891,-0.01030999980866909,0.2368900030851364
6970.514649300212,1653025.0,-0.0088900001719594,0.0013200000394135714,-0.012529999949038029,0.23552000522613525
6970.515649072428,1653026.0,-0.003229999914765358,-0.00839999970048666,0.001449999981559813,0.23643000423908234
6970.516648844643,1653027.0,0.0002699999895412475,-0.017669999971985817,0.004999999888241291,0.23885999619960785
6970.517648616858,1653028.0,0.0017500000540167093,-0.014670000411570072,0.0076299998909235,0.23351000249385834
6970.518648389073,1653029.0,0.0028800000436604023,-0.012760000303387642,0.0021800000686198473,0.240229994058609
6970.519648161288,1653030.0,0.005030000116676092,-0.013939999975264072,0.001769999973475933,0.23377999663352966
6970.520647933504,1653031.0,0.0101500004529953,-0.001500000013038516,-0.001500000013038516,0.24087999761104584
6970.521647705719,1653032.0,0.01508999988436699,0.008220000192523003,-0.0014100000262260437,0.23103000223636627
6970.522647477935,1653033.0,0.019050000235438347,9.000000136438757e-05,0.004089999943971634,0.24247999489307404
6970.523647250149,1653034.0,0.019950000569224358,0.00031999999191612005,-0.0036800000816583633,0.22975000739097595
6970.524647022365,1653035.0,0.01841999962925911,0.017389999702572823,-0.005040000192821026,0.23991000652313232
6970.52564679458,1653036.0,0.01679999940097332,0.01711999997496605,-0.00018000000272877514,0.2390899956226349
6970.5266465667955,1653037.0,0.015449999831616879,0.010850000195205212,0.003590000094845891,0.23469999432563782
6970.527646339011,1653038.0,0.012849999591708183,0.009669999592006207,-0.006769999861717224,0.23853999376296997
6970.528646111226,1653039.0,0.00872000027447939,0.005309999920427799,-0.010040000081062317,0.24201999604701996
6970.529645883441,1653040.0,0.005969999823719263,0.004679999779909849,-0.001180000021122396,0.23592999577522278
6970.530645655656,1653041.0,0.004540000110864639,-0.0003600000054575503,0.0016799999866634607,0.23836000263690948
6970.531645427872,1653042.0,0.005929999984800816,0.0052200001664459705,-0.006810000166296959,0.2321300059556961
6970.532645200087,1653043.0,0.00872000027447939,-0.00203999993391335,-0.004900000058114529,0.2380799949169159
6970.533644972303,1653044.0,0.0129399998113513,-0.00839999970048666,0.0013200000394135714,0.24018999934196472
6970.534644744517,1653045.0,0.0185100007802248,-0.01875999942421913,-0.00014000000373926014,0.24448999762535095
6970.535644516733,1653046.0,0.02191999927163124,-0.022929999977350235,0.016669999808073044,0.2448599934577942
6970.536644288948,1653047.0,0.024620000272989273,-0.007540000136941671,0.010759999975562096,0.24347999691963196
6970.5376440611635,1653048.0,0.02622999995946884,0.00267999991774559,0.003220000071451068,0.24275000393390656
6970.538643833379,1653049.0,0.02676999941468239,0.007040000054985285,-0.009259999729692936,0.24129000306129456
6970.539643605594,1653050.0,0.027130000293254852,-0.004129999782890081,0.004129999782890081,0.2337300032377243
6970.540643377809,1653051.0,0.027899999171495438,-0.009399999864399433,0.0021299999207258224,0.23624999821186066
6970.541643150024,1653052.0,0.028389999642968178,0.005400000140070915,-4.999999873689376e-05,0.2393600046634674
6970.54264292224,1653053.0,0.02776000089943409,0.013030000030994415,-0.004449999891221523,0.2396399974822998
6970.543642694455,1653054.0,0.02645999938249588,0.011579999700188637,-0.002409999957308173,0.24000999331474304
6970.54464246667,1653055.0,0.024529999122023582,0.00795000046491623,-0.00267999991774559,0.24000999331474304
6970.545642238885,1653056.0,0.021199999377131462,0.010940000414848328,0.0034099998883903027,0.2405100017786026
6970.546642011101,1653057.0,0.016979999840259552,0.010219999589025974,-0.0028200000524520874,0.24907000362873077
6970.547641783316,1653058.0,0.013120000250637531,0.00014000000373926014,-0.001180000021122396,0.23543000221252441
6970.5486415555315,1653059.0,0.008489999920129776,-0.012900000438094139,0.007670000195503235,0.24815000593662262
6970.549641327747,1653060.0,0.0036800000816583633,-0.012400000356137753,0.010490000247955322,0.23991000652313232
6970.550641099962,1653061.0,0.0016199999954551458,-0.006089999806135893,-0.0006399999838322401,0.2487500011920929
6970.551640872177,1653062.0,0.004129999782890081,-0.002589999930933118,-0.003719999920576811,0.23816999793052673
6970.552640644392,1653063.0,0.007009999826550484,-0.000539999979082495,0.002409999957308173,0.2506699860095978
6970.553640416608,1653064.0,0.011859999969601631,-0.006039999891072512,-0.002859999891370535,0.24330000579357147
6970.554640188823,1653065.0,0.0175199992954731,-0.014940000139176846,-0.003909999970346689,0.24856999516487122
6970.555639961038,1653066.0,0.02394000068306923,-0.009850000031292439,-0.004410000052303076,0.24966000020503998
6970.556639733253,1653067.0,0.029559999704360962,0.0016299999551847577,-0.004269999917596579,0.23923000693321228
6970.557639505469,1653068.0,0.03413999825716019,0.006949999835342169,-0.004540000110864639,0.25301000475883484
6970.558639277684,1653069.0,0.037379998713731766,0.0059899999760091305,0.001500000013038516,0.24330000579357147
6970.5596390498995,1653070.0,0.040789999067783356,0.0034099998883903027,0.004310000222176313,0.2500300109386444
6970.560638822115,1653071.0,0.04343999922275543,0.0071299998089671135,-0.00839999970048666,0.2533299922943115
6970.561638594329,1653072.0,0.042089998722076416,0.014670000411570072,-0.014670000411570072,0.2536900043487549
6970.562638366545,1653073.0,0.0370200015604496,0.01331000030040741,-0.008080000057816505,0.2535099983215332
6970.56363813876,1653074.0,0.03189999982714653,0.013489999808371067,-0.01030999980866909,0.25227001309394836
6970.564637910976,1653075.0,0.03328999876976013,0.01689000055193901,-0.0016299999551847577,0.25181999802589417
6970.565637683191,1653076.0,0.03423000127077103,0.01140000019222498,-0.0019099999917671084,0.243709996342659
6970.566637455406,1653077.0,0.03027999959886074,-0.008129999972879887,0.014120000414550304,0.2471500039100647
6970.567637227621,1653078.0,0.025200000032782555,-0.01566999964416027,0.026979999616742134,0.2502099871635437
6970.568636999837,1653079.0,0.020479999482631683,-0.012400000356137753,0.012310000136494637,0.25117000937461853
6970.569636772052,1653080.0,0.0147299999371171,-0.025299999862909317,0.010759999975562096,0.256989985704422
6970.5706365442675,1653081.0,0.009700000286102295,-0.012310000136494637,-0.001500000013038516,0.26010000705718994
6970.571636316483,1653082.0,0.00610999995842576,-0.00267999991774559,-0.007040000054985285,0.25951001048088074
6970.572636088697,1653083.0,0.005929999984800816,-0.000910000002477318,-0.007770000025629997,0.2574000060558319
6970.573635860913,1653084.0,0.00839999970048666,0.003000000026077032,-0.006949999835342169,0.25694000720977783
6970.574635633128,1653085.0,0.010689999908208847,0.008489999920129776,-0.011490000411868095,0.256850004196167
6970.575635405344,1653086.0,0.014469999819993973,0.007309999782592058,-0.006089999806135893,0.24878999590873718
6970.576635177559,1653087.0,0.017160000279545784,-0.004679999779909849,0.005590000189840794,0.25117000937461853
6970.577634949774,1653088.0,0.018330000340938568,-0.00203999993391335,0.0022700000554323196,0.2581300139427185
6970.578634721989,1653089.0,0.019680000841617584,0.0031799999997019768,-0.0015399999683722854,0.260699987411499
6970.579634494205,1653090.0,0.02151999995112419,0.00686000008136034,-0.0044999998062849045,0.2663699984550476
6970.58063426642,1653091.0,0.025429999455809593,0.006130000110715628,-0.0031799999997019768,0.260699987411499
6970.5816340386355,1653092.0,0.027219999581575394,-0.006490000057965517,-0.0007699999841861427,0.25461000204086304
6970.582633810851,1653093.0,0.025609999895095825,-0.00571999978274107,0.003220000071451068,0.26614001393318176
6970.583633583065,1653094.0,0.024800000712275505,-0.003269999986514449,0.0014100000262260437,0.26664999127388
6970.584633355281,1653095.0,0.026149999350309372,-0.0015399999683722854,0.004310000222176313,0.261570006608963
6970.585633127496,1653096.0,0.027990000322461128,0.0030900000128895044,0.002859999891370535,0.26554998755455017
6970.586632899712,1653097.0,0.0257399994879961,0.0076299998909235,-0.003809999907389283,0.27035999298095703
6970.587632671927,1653098.0,0.020390000194311142,0.0059899999760091305,-0.000539999979082495,0.26517999172210693
6970.588632444142,1653099.0,0.011680000461637974,0.010219999589025974,-0.0031300000846385956,0.257860004901886
6970.589632216357,1653100.0,0.005840000230818987,0.006579999811947346,-0.003000000026077032,0.2718200087547302
6970.590631988573,1653101.0,0.0052999998442828655,0.00031999999191612005,0.0015399999683722854,0.27121999859809875
6970.591631760788,1653102.0,0.006020000204443932,-0.011350000277161598,0.00571999978274107,0.26517999172210693
6970.592631533003,1653103.0,0.0020699999295175076,-0.011350000277161598,0.003590000094845891,0.273470014333725
6970.593631305219,1653104.0,0.0025599999353289604,-0.0051299999468028545,0.0014100000262260437,0.26930001378059387
6970.594631077433,1653105.0,0.005929999984800816,-0.008670000359416008,0.0010000000474974513,0.2711299955844879
6970.595630849649,1653106.0,0.007369999773800373,0.005040000192821026,0.003719999920576811,0.2753399908542633
6970.596630621864,1653107.0,0.005119999870657921,0.00686000008136034,-0.003539999946951866,0.2805599868297577
6970.59763039408,1653108.0,0.0027000000700354576,0.007670000195503235,-0.005900000222027302,0.28148001432418823
6970.598630166295,1653109.0,0.0009899999713525176,0.00795000046491623,-0.01785000041127205,0.2822999954223633
6970.59962993851,1653110.0,0.0012600000482052565,0.0037700000684708357,-0.010259999893605709,0.2808400094509125
6970.600629710725,1653111.0,-0.00018000000272877514,-0.004129999782890081,-0.010080000385642052,0.2793700098991394
6970.601629482941,1653112.0,-0.0012600000482052565,-0.017170000821352005,0.006399999838322401,0.2787800133228302
6970.602629255156,1653113.0,-0.0014400000218302011,-0.02775000035762787,0.021209999918937683,0.27191001176834106
6970.603629027371,1653114.0,0.0,-0.010850000195205212,0.01257999986410141,0.2835800051689148
6970.604628799587,1653115.0,0.0026499999221414328,-0.0018599999602884054,0.007449999917298555,0.2867400050163269
6970.605628571801,1653116.0,0.003229999914765358,0.00795000046491623,-0.014209999702870846,0.28582999110221863
6970.606628344017,1653117.0,0.0003100000030826777,0.013399999588727951,-0.005590000189840794,0.28450000286102295
6970.607628116232,1653118.0,-0.004089999943971634,0.0010400000028312206,0.00014000000373926014,0.2756200134754181
6970.608627888448,1653119.0,-0.007369999773800373,0.001230000052601099,0.005179999861866236,0.2815699875354767
6970.609627660662,1653120.0,-0.010599999688565731,0.010219999589025974,-0.0006799999973736703,0.2854200005531311
6970.610627432878,1653121.0,-0.014059999957680702,-0.0035000001080334187,-0.002360000042244792,0.29100000858306885
6970.611627205093,1653122.0,-0.012670000083744526,-0.003719999920576811,-0.006769999861717224,0.29502999782562256
6970.6126269773085,1653123.0,-0.009209999814629555,0.002090000081807375,-0.009759999811649323,0.29548999667167664
6970.613626749524,1653124.0,-0.004449999891221523,-0.0029100000392645597,-0.0019099999917671084,0.29622000455856323
6970.614626521739,1653125.0,0.00215999991632998,-4.999999873689376e-05,-0.004410000052303076,0.2975899875164032
6970.615626293955,1653126.0,0.009030000306665897,0.006680000107735395,0.00031999999191612005,0.29868999123573303
6970.616626066169,1653127.0,0.01384000014513731,0.0010400000028312206,0.0022700000554323196,0.29877999424934387
6970.617625838385,1653128.0,0.018149999901652336,0.008489999920129776,0.0002699999895412475,0.2991499900817871
6970.6186256106,1653129.0,0.021290000528097153,0.002859999891370535,0.004269999917596579,0.30011001229286194
6970.619625382816,1653130.0,0.023669999092817307,0.0019499999471008778,0.011669999919831753,0.30153000354766846
6970.62062515503,1653131.0,0.02263999916613102,-0.0045900000259280205,0.010990000329911709,0.30281001329421997
6970.621624927246,1653132.0,0.02012999914586544,-0.010940000414848328,0.0129399998113513,0.30098000168800354
6970.622624699461,1653133.0,0.01940999925136566,0.004129999782890081,0.0027699999045580626,0.2991499900817871
6970.6236244716765,1653134.0,0.021560000255703926,0.005590000189840794,0.0002699999895412475,0.30024999380111694
6970.624624243892,1653135.0,0.024080000817775726,0.015850000083446503,-0.018570000305771828,0.2910900115966797
6970.625624016107,1653136.0,0.02597000077366829,0.012620000168681145,-0.014399999752640724,0.3084000051021576
6970.626623788322,1653137.0,0.02735999971628189,0.0010900000343099236,-0.0051299999468028545,0.29502999782562256
6970.627623560537,1653138.0,0.027489999309182167,-0.0033199999015778303,-0.0011399999493733048,0.30849000811576843
6970.628623332753,1653139.0,0.025609999895095825,0.00203999993391335,-0.009630000218749046,0.304639995098114
6970.629623104968,1653140.0,0.02273000031709671,0.005539999809116125,-0.01576000079512596,0.30660998821258545
6970.630622877184,1653141.0,0.019770000129938126,0.001180000021122396,-0.006949999835342169,0.3130199909210205
6970.631622649398,1653142.0,0.0175199992954731,-0.00571999978274107,0.008489999920129776,0.3101300001144409
6970.632622421614,1653143.0,0.018330000340938568,-0.006680000107735395,0.008310000412166119,0.3006100058555603
6970.633622193829,1653144.0,0.018330000340938568,-0.000859999970998615,0.0016799999866634607,0.31325000524520874
6970.6346219660445,1653145.0,0.019770000129938126,-0.0062699997797608376,0.006579999811947346,0.31470999121665955
6970.63562173826,1653146.0,0.020840000361204147,0.003220000071451068,0.003000000026077032,0.30559998750686646
6970.636621510475,1653147.0,0.02111000008881092,0.004310000222176313,-0.00203999993391335,0.3146199882030487
6970.63762128269,1653148.0,0.020840000361204147,0.008310000412166119,-0.008860000409185886,0.3196600079536438
6970.638621054905,1653149.0,0.02012999914586544,-0.002589999930933118,-0.002090000081807375,0.3086700141429901
6970.639620827121,1653150.0,0.020749999210238457,-0.01063000038266182,0.009630000218749046,0.31874001026153564
6970.640620599336,1653151.0,0.023269999772310257,-0.009170000441372395,0.0030400000978261232,0.32148998975753784
6970.641620371552,1653152.0,0.028209999203681946,-0.013220000080764294,0.007860000245273113,0.31237998604774475
6970.642620143766,1653153.0,0.03215999901294708,-0.011669999919831753,-9.000000136438757e-05,0.3192000091075897
6970.643619915982,1653154.0,0.032660000026226044,-0.00418000016361475,-0.0045900000259280205,0.32552000880241394
6970.644619688197,1653155.0,0.032030001282691956,0.008580000139772892,-0.01370999962091446,0.320389986038208
6970.6456194604125,1653156.0,0.03099999949336052,0.011219999752938747,-0.009359999559819698,0.3212999999523163
6970.646619232628,1653157.0,0.028119999915361404,0.01375999953597784,-0.011579999700188637,0.3284499943256378
6970.647619004843,1653158.0,0.02281999960541725,0.014120000414550304,-0.007860000245273113,0.3240100145339966
6970.648618777058,1653159.0,0.01860000006854534,0.009039999917149544,-0.011309999972581863,0.31424999237060547
6970.649618549273,1653160.0,0.015320000238716602,0.005679999943822622,-0.013810000382363796,0.329039990901947
6970.650618321489,1653161.0,0.012760000303387642,0.001769999973475933,-0.006219999864697456,0.33013999462127686
6970.651618093704,1653162.0,0.01257999986410141,-0.00031999999191612005,-0.00872000027447939,0.3284499943256378
6970.65261786592,1653163.0,0.015809999778866768,-0.012670000083744526,-0.000859999970998615,0.33173999190330505
6970.653617638134,1653164.0,0.019950000569224358,-0.016850000247359276,0.007180000189691782,0.33348000049591064
6970.65461741035,1653165.0,0.02483999915421009,-0.017480000853538513,0.017710000276565552,0.3305099904537201
6970.655617182565,1653166.0,0.02947000041604042,-0.004220000002533197,0.014209999702870846,0.3348099887371063
6970.6566169547805,1653167.0,0.03378000110387802,-0.0009500000160187483,0.007770000025629997,0.33344000577926636
6970.657616726996,1653168.0,0.03922000154852867,0.003220000071451068,-0.004769999999552965,0.336870014667511
6970.658616499211,1653169.0,0.043219998478889465,-0.00044999999227002263,0.001500000013038516,0.3341200053691864
6970.659616271426,1653170.0,0.044610001146793365,-0.003909999970346689,0.0051299999468028545,0.33722999691963196
6970.660616043641,1653171.0,0.044920001178979874,0.005040000192821026,-0.011900000274181366,0.3404799997806549
6970.661615815857,1653172.0,0.04600000008940697,0.010850000195205212,-0.01648000068962574,0.3386099934577942
6970.662615588072,1653173.0,0.04586999863386154,0.01063000038266182,-0.00913000013679266,0.34419000148773193
6970.663615360288,1653174.0,0.0456399992108345,0.015890000388026237,-0.009850000031292439,0.33928999304771423
6970.664615132502,1653175.0,0.04187000170350075,0.013399999588727951,-0.001180000021122396,0.34588998556137085
6970.665614904718,1653176.0,0.03612000122666359,0.009580000303685665,-0.0011399999493733048,0.34226998686790466
6970.666614676933,1653177.0,0.030640000477433205,-0.008539999835193157,0.006949999835342169,0.3320600092411041
6970.6676144491485,1653178.0,0.02443999983370304,-0.018939999863505363,0.01558000035583973,0.3469800055027008
6970.668614221364,1653179.0,0.01779000088572502,-0.018570000305771828,0.007899999618530273,0.34731000661849976
6970.669613993579,1653180.0,0.015990000218153,-0.012760000303387642,-0.0019499999471008778,0.3396100103855133
6970.670613765794,1653181.0,0.018239999189972878,-0.00267999991774559,-0.00418000016361475,0.352620005607605
6970.671613538009,1653182.0,0.021250000223517418,-0.003539999946951866,0.00267999991774559,0.3470799922943115
6970.672613310225,1653183.0,0.0258799996227026,-0.002090000081807375,0.003590000094845891,0.34894999861717224
6970.67361308244,1653184.0,0.03220999985933304,-0.013530000112950802,0.009949999861419201,0.3559100031852722
6970.674612854655,1653185.0,0.0393499992787838,-0.000859999970998615,0.003220000071451068,0.3458400070667267
6970.67561262687,1653186.0,0.04362000152468681,0.0072200000286102295,-0.005489999894052744,0.35833999514579773
6970.676612399086,1653187.0,0.047529999166727066,0.01484999991953373,-0.010940000414848328,0.3527500033378601
6970.677612171301,1653188.0,0.05031000077724457,0.018850000575184822,-0.008449999615550041,0.35457998514175415
6970.678611943516,1653189.0,0.05201999843120575,0.022029999643564224,-0.005859999917447567,0.35861000418663025
6970.679611715732,1653190.0,0.05112000182271004,0.007309999782592058,0.0014100000262260437,0.34964001178741455
6970.680611487947,1653191.0,0.05048999935388565,0.0009500000160187483,-0.003719999920576811,0.3614000082015991
6970.681611260162,1653192.0,0.04842999950051308,-0.00041000000783242285,-0.00795000046491623,0.36177000403404236
6970.682611032377,1653193.0,0.046939998865127563,-0.0022299999836832285,-0.007180000189691782,0.3467999994754791
6970.683610804593,1653194.0,0.046810001134872437,-0.0063599999994039536,0.0030400000978261232,0.3614000082015991
6970.684610576808,1653195.0,0.04608999937772751,-0.0031300000846385956,0.0045900000259280205,0.36333000659942627
6970.685610349023,1653196.0,0.04303999990224838,-0.008080000057816505,0.01648000068962574,0.36017000675201416
6970.686610121238,1653197.0,0.038989998400211334,-0.0027699999045580626,0.00749000022187829,0.36524999141693115
6970.687609893454,1653198.0,0.03472999855875969,-0.0010000000474974513,0.007400000002235174,0.36653000116348267
6970.688609665669,1653199.0,0.030549999326467514,-0.0002300000051036477,-0.00041000000783242285,0.3678100109100342
6970.689609437884,1653200.0,0.02937999926507473,-0.0010400000028312206,-0.002409999957308173,0.37193000316619873
6970.6906092101,1653201.0,0.027720000594854355,0.003719999920576811,-0.003220000071451068,0.3707900047302246
6970.691608982314,1653202.0,0.02507000043988228,0.00031999999191612005,-0.006579999811947346,0.36855000257492065
6970.69260875453,1653203.0,0.025019999593496323,-0.00031999999191612005,-0.002589999930933118,0.36667001247406006
6970.693608526745,1653204.0,0.029559999704360962,-0.0010000000474974513,-0.006579999811947346,0.36021000146865845
6970.694608298961,1653205.0,0.035760000348091125,-0.0013200000394135714,-0.0011399999493733048,0.35846999287605286
6970.695608071176,1653206.0,0.044110000133514404,-0.0031799999997019768,0.0027699999045580626,0.3705599904060364
6970.696607843391,1653207.0,0.04967999830842018,0.002360000042244792,-0.000859999970998615,0.3735400140285492
6970.697607615606,1653208.0,0.05445000156760216,0.010130000300705433,-0.0035000001080334187,0.3768799901008606
6970.6986073878215,1653209.0,0.054269999265670776,-0.000539999979082495,-0.00494999997317791,0.3791700005531311
6970.699607160037,1653210.0,0.0528700016438961,0.0044999998062849045,0.00031999999191612005,0.3771499991416931
6970.700606932252,1653211.0,0.051569998264312744,0.010990000329911709,-0.007400000002235174,0.37509000301361084
6970.701606704468,1653212.0,0.0528700016438961,-0.0022299999836832285,0.00031999999191612005,0.36653000116348267
6970.702606476682,1653213.0,0.05372999981045723,0.008220000192523003,-0.006680000107735395,0.3753199875354767
6970.703606248898,1653214.0,0.05463000014424324,0.012900000438094139,-0.0006399999838322401,0.3781599998474121
6970.704606021113,1653215.0,0.05463000014424324,0.004310000222176313,-0.0021800000686198473,0.37970998883247375
6970.705605793329,1653216.0,0.05012999847531319,-0.007670000195503235,0.00418000016361475,0.38245999813079834
6970.706605565544,1653217.0,0.041370000690221786,-0.004040000028908253,0.003220000071451068,0.3855299949645996
6970.707605337759,1653218.0,0.029559999704360962,-0.012760000303387642,0.014670000411570072,0.3859899938106537
6970.708605109974,1653219.0,0.020309999585151672,-0.027160000056028366,0.030700000002980232,0.3849300146102905
6970.7096048821895,1653220.0,0.01590000092983246,-0.023479999974370003,0.010940000414848328,0.3808099925518036
6970.710604654405,1653221.0,0.013120000250637531,-0.000590000010561198,-0.007899999618530273,0.38100001215934753
6970.71160442662,1653222.0,0.013340000063180923,0.00031999999191612005,-0.0063599999994039536,0.3735800087451935
6970.712604198836,1653223.0,0.0185100007802248,-0.004769999999552965,-0.0008200000156648457,0.38328999280929565
6970.71360397105,1653224.0,0.025699999183416367,-0.0012700000079348683,0.003590000094845891,0.3861199915409088
6970.714603743266,1653225.0,0.033240001648664474,0.00031999999191612005,-0.006949999835342169,0.3880000114440918
6970.715603515481,1653226.0,0.04016000032424927,0.003949999809265137,-0.0029100000392645597,0.38877999782562256
6970.716603287697,1653227.0,0.04473999887704849,0.005309999920427799,0.00031999999191612005,0.38951000571250916
6970.717603059912,1653228.0,0.04676000028848648,0.014759999699890614,-0.005489999894052744,0.39252999424934387
6970.718602832127,1653229.0,0.048020001500844955,0.017480000853538513,-0.010579999536275864,0.3917999863624573
6970.719602604342,1653230.0,0.04861000180244446,0.020349999889731407,-0.011529999785125256,0.3880000114440918
6970.7206023765575,1653231.0,0.047120001167058945,0.011219999752938747,-0.009449999779462814,0.3898800015449524
6970.721602148773,1653232.0,0.04473999887704849,0.007770000025629997,-0.016440000385046005,0.38951000571250916
6970.722601920988,1653233.0,0.04016000032424927,0.004310000222176313,-0.018209999427199364,0.3899199962615967
6970.723601693204,1653234.0,0.03720000013709068,0.005900000222027302,-0.0036800000816583633,0.3928999900817871
6970.724601465418,1653235.0,0.03328999876976013,-0.005489999894052744,0.012350000441074371,0.3839699923992157
6970.725601237634,1653236.0,0.029069999232888222,-0.019619999453425407,0.025299999862909317,0.39757001399993896
6970.726601009849,1653237.0,0.024299999698996544,-0.023019999265670776,0.029200000688433647,0.39052000641822815
6970.727600782065,1653238.0,0.02012999914586544,0.00018000000272877514,0.011219999752938747,0.39757001399993896
6970.72860055428,1653239.0,0.01671000011265278,0.008080000057816505,-0.0036800000816583633,0.39197999238967896
6970.729600326495,1653240.0,0.012400000356137753,0.003000000026077032,0.001769999973475933,0.3958300054073334
6970.73060009871,1653241.0,0.009700000286102295,-0.0019099999917671084,-0.0045900000259280205,0.3940899968147278
6970.7315998709255,1653242.0,0.0129399998113513,-0.009359999559819698,0.0018599999602884054,0.39427000284194946
6970.732599643141,1653243.0,0.01909000054001808,-0.0063599999994039536,-9.000000136438757e-05,0.3958300054073334
6970.733599415356,1653244.0,0.026590000838041306,-0.006680000107735395,0.010490000247955322,0.39340001344680786
6970.734599187572,1653245.0,0.03260999917984009,-0.001769999973475933,0.0022700000554323196,0.39757001399993896
6970.735598959786,1653246.0,0.03382999822497368,0.003949999809265137,-0.003860000055283308,0.39719998836517334
6970.736598732002,1653247.0,0.03413999825716019,0.007770000025629997,-0.0031799999997019768,0.38264000415802
6970.737598504217,1653248.0,0.032430000603199005,0.007269999943673611,-0.013030000030994415,0.39875999093055725
6970.738598276433,1653249.0,0.03109000064432621,-0.005630000028759241,-0.001500000013038516,0.398389995098114
6970.739598048647,1653250.0,0.030500000342726707,-0.004540000110864639,0.0031799999997019768,0.39528000354766846
6970.740597820863,1653251.0,0.028929999098181725,-0.0006399999838322401,-0.005489999894052744,0.39980998635292053
6970.741597593078,1653252.0,0.028209999203681946,0.004310000222176313,-0.010219999589025974,0.39803001284599304
6970.7425973652935,1653253.0,0.027400000020861626,0.00795000046491623,-0.01566999964416027,0.3839299976825714
6970.743597137509,1653254.0,0.027489999309182167,0.00031999999191612005,-0.010080000385642052,0.4030599892139435
6970.744596909724,1653255.0,0.028389999642968178,0.0022700000554323196,-0.00267999991774559,0.3839699923992157
6970.74559668194,1653256.0,0.028389999642968178,-0.006899999920278788,0.005040000192821026,0.4032000005245209
6970.746596454154,1653257.0,0.02606000006198883,0.00014000000373926014,9.000000136438757e-05,0.384799987077713
6970.74759622637,1653258.0,0.02143000066280365,0.0030900000128895044,-0.00203999993391335,0.40351998805999756
6970.748595998585,1653259.0,0.01679999940097332,0.00795000046491623,-0.005489999894052744,0.3963800072669983
6970.749595770801,1653260.0,0.014469999819993973,0.004860000219196081,0.002859999891370535,0.4037500023841858
6970.750595543015,1653261.0,0.013570000417530537,-0.0044999998062849045,0.02043999917805195,0.39733999967575073
6970.751595315231,1653262.0,0.012350000441074371,-0.00795000046491623,0.007809999864548445,0.4046199917793274
6970.752595087446,1653263.0,0.013299999758601189,-0.0011399999493733048,0.000859999970998615,0.3972899913787842
6970.7535948596615,1653264.0,0.016979999840259552,0.0072200000286102295,-0.005489999894052744,0.4041599929332733
6970.754594631877,1653265.0,0.022460000589489937,0.006490000057965517,-0.009039999917149544,0.39803001284599304
6970.755594404092,1653266.0,0.027400000020861626,0.007040000054985285,-0.004040000028908253,0.4046199917793274
6970.756594176307,1653267.0,0.031449999660253525,0.008270000107586384,-0.004679999779909849,0.3963800072669983
6970.757593948522,1653268.0,0.033959999680519104,0.0017300000181421638,-0.00571999978274107,0.4013200104236603
6970.758593720738,1653269.0,0.0354899987578392,-0.012760000303387642,-0.0007300000288523734,0.3969300091266632
6970.759593492953,1653270.0,0.037379998713731766,-0.004410000052303076,0.00031999999191612005,0.4022800028324127
6970.760593265169,1653271.0,0.037379998713731766,-0.005859999917447567,-0.000590000010561198,0.39980998635292053
6970.761593037383,1653272.0,0.03522000089287758,-0.002950000111013651,-0.0076299998909235,0.4020499885082245
6970.762592809599,1653273.0,0.03136000037193298,0.005630000028759241,-0.007040000054985285,0.39531999826431274
6970.763592581814,1653274.0,0.025790000334382057,0.00795000046491623,-0.0029100000392645597,0.40452998876571655
6970.764592354029,1653275.0,0.02053000032901764,0.0008200000156648457,0.004679999779909849,0.38791000843048096
6970.765592126245,1653276.0,0.012849999591708183,-0.001500000013038516,0.003949999809265137,0.4045700132846832
6970.76659189846,1653277.0,0.003590000094845891,-0.014259999617934227,0.014310000464320183,0.38703998923301697
6970.767591670675,1653278.0,-0.0053900000639259815,-0.002950000111013651,0.009220000356435776,0.4052099883556366
6970.76859144289,1653279.0,-0.011640000157058239,0.002319999970495701,-4.999999873689376e-05,0.3981199860572815
6970.769591215106,1653280.0,-0.0147299999371171,-0.0028200000524520874,-0.0011399999493733048,0.4052099883556366
6970.770590987321,1653281.0,-0.015049999579787254,-0.008630000054836273,0.0014100000262260437,0.3912000060081482
6970.771590759537,1653282.0,-0.011140000075101852,-0.012900000438094139,0.011350000277161598,0.4037899971008301
6970.772590531751,1653283.0,-0.004900000058114529,0.000859999970998615,0.0028200000524520874,0.3994399905204773
6970.773590303967,1653284.0,0.002520000096410513,0.009039999917149544,-0.008949999697506428,0.40237000584602356
6970.774590076182,1653285.0,0.012489999644458294,0.0072200000286102295,-0.00875999964773655,0.3985700011253357
6970.775589848397,1653286.0,0.019859999418258667,0.0071299998089671135,-0.011669999919831753,0.4015499949455261
6970.776589620613,1653287.0,0.025429999455809593,0.0030400000978261232,-0.004040000028908253,0.40108999609947205
6970.777589392828,1653288.0,0.030729999765753746,0.002859999891370535,-0.003860000055283308,0.4016900062561035
6970.778589165043,1653289.0,0.03382999822497368,-0.0063599999994039536,0.006539999973028898,0.39875999093055725
6970.779588937258,1653290.0,0.03373999893665314,-0.00839999970048666,0.012670000083744526,0.40191999077796936
6970.780588709474,1653291.0,0.032249998301267624,-0.012029999867081642,0.011350000277161598,0.3995400071144104
6970.781588481689,1653292.0,0.032340001314878464,-0.00949000008404255,-0.0027199999894946814,0.40268999338150024
6970.782588253905,1653293.0,0.033959999680519104,-0.0027699999045580626,-0.004449999891221523,0.38997000455856323
6970.783588026119,1653294.0,0.03491000086069107,0.007309999782592058,-0.008489999920129776,0.4060800075531006
6970.7845877983345,1653295.0,0.03342000022530556,0.009990000165998936,-0.0022700000554323196,0.38666999340057373
6970.78558757055,1653296.0,0.029829999431967735,0.005489999894052744,-0.002319999970495701,0.4046199917793274
6970.786587342765,1653297.0,0.02622999995946884,0.007400000002235174,0.003449999960139394,0.3873099982738495
6970.787587114981,1653298.0,0.02102000080049038,0.0027199999894946814,4.999999873689376e-05,0.40626999735832214
6970.788586887196,1653299.0,0.016170000657439232,0.0071299998089671135,-0.003909999970346689,0.398389995098114
6970.789586659411,1653300.0,0.011859999969601631,0.008310000412166119,0.0009500000160187483,0.40393000841140747
6970.790586431626,1653301.0,0.010870000347495079,0.006130000110715628,0.00203999993391335,0.4007300138473511
6970.791586203842,1653302.0,0.01095999963581562,-0.005859999917447567,0.002409999957308173,0.3987100124359131
6970.792585976057,1653303.0,0.012310000136494637,-0.011309999972581863,0.0007300000288523734,0.40279000997543335
6970.793585748273,1653304.0,0.013749999925494194,-0.008580000139772892,-0.005950000137090683,0.38923999667167664
6970.794585520487,1653305.0,0.016349999234080315,-0.0031300000846385956,-0.006949999835342169,0.4052099883556366
6970.7955852927025,1653306.0,0.020390000194311142,0.007079999893903732,-0.006490000057965517,0.3865799903869629
6970.796585064918,1653307.0,0.02314000017940998,0.009039999917149544,-0.009809999726712704,0.4056699872016907
6970.797584837133,1653308.0,0.022280000150203705,0.0027199999894946814,-0.0005000000237487257,0.39844000339508057
6970.798584609349,1653309.0,0.018330000340938568,-0.002589999930933118,0.007079999893903732,0.40191999077796936
6970.799584381564,1653310.0,0.011719999834895134,-0.0036800000816583633,0.006579999811947346,0.4021500051021576
6970.800584153779,1653311.0,0.00773000018671155,-0.008630000054836273,-0.0016799999866634607,0.39770999550819397
6970.801583925994,1653312.0,0.007139999885112047,-0.01448999997228384,0.0034099998883903027,0.40544000267982483
6970.80258369821,1653313.0,0.00646999990567565,-0.006949999835342169,0.003949999809265137,0.38703998923301697
6970.803583470425,1653314.0,0.004089999943971634,0.0045900000259280205,0.003220000071451068,0.405349999666214
6970.80458324264,1653315.0,0.0014400000218302011,0.011130000464618206,0.002409999957308173,0.40053999423980713
6970.805583014855,1653316.0,-0.0017999999690800905,0.009309999644756317,0.0013599999947473407,0.39875999093055725
6970.8065827870705,1653317.0,-0.004900000058114529,0.007180000189691782,0.004679999779909849,0.40310999751091003
6970.807582559286,1653318.0,-0.0101500004529953,0.01217000000178814,-0.008990000002086163,0.39083999395370483
6970.808582331501,1653319.0,-0.015809999778866768,0.014310000464320183,-0.005810000002384186,0.4059399962425232
6970.809582103717,1653320.0,-0.019050000235438347,0.018300000578165054,-0.01140000019222498,0.4004499912261963
6970.810581875932,1653321.0,-0.019950000569224358,0.010850000195205212,-0.014310000464320183,0.4009599983692169
6970.811581648147,1653322.0,-0.020479999482631683,0.002090000081807375,-0.01566999964416027,0.4045700132846832
6970.812581420362,1653323.0,-0.01671000011265278,-0.0017300000181421638,-0.007720000110566616,0.39948999881744385
6970.813581192578,1653324.0,-0.010689999908208847,-0.0035000001080334187,0.002319999970495701,0.4016900062561035
6970.814580964793,1653325.0,-0.0037700000684708357,-0.020250000059604645,0.014170000329613686,0.4046199917793274
6970.815580737008,1653326.0,0.0012600000482052565,-0.02452000044286251,0.014399999752640724,0.3895600140094757
6970.816580509223,1653327.0,0.0037700000684708357,-0.024390000849962234,0.01865999959409237,0.40553000569343567
6970.8175802814385,1653328.0,0.004670000169426203,-0.018850000575184822,0.00798999983817339,0.4021899998188019
6970.818580053654,1653329.0,0.0028800000436604023,0.0014100000262260437,-0.0034099998883903027,0.40191999077796936
6970.819579825869,1653330.0,-0.00044999999227002263,0.01711999997496605,-0.01217000000178814,0.40452998876571655
6970.820579598085,1653331.0,-0.0012600000482052565,0.003220000071451068,-0.007180000189691782,0.39875999093055725
6970.821579370299,1653332.0,-0.0034099998883903027,0.004269999917596579,-0.010809999890625477,0.4076800048351288
6970.822579142515,1653333.0,-0.00872000027447939,0.013489999808371067,-0.010940000414848328,0.3893299996852875
6970.82357891473,1653334.0,-0.018239999189972878,0.00880999956279993,-0.005859999917447567,0.4052099883556366
6970.824578686946,1653335.0,-0.025699999183416367,0.003220000071451068,0.008990000002086163,0.4074999988079071
6970.825578459161,1653336.0,-0.033560000360012054,0.003809999907389283,0.006539999973028898,0.40268999338150024
6970.826578231376,1653337.0,-0.04097000136971474,-0.001230000052601099,0.0083600003272295,0.39980998635292053
6970.827578003591,1653338.0,-0.04631999880075455,-0.012760000303387642,0.0072200000286102295,0.4093799889087677
6970.8285777758065,1653339.0,-0.04991000145673752,-0.014990000054240227,0.016939999535679817,0.40612998604774475
6970.829577548022,1653340.0,-0.05062999948859215,-0.02411000058054924,0.019710000604391098,0.40237000584602356
6970.830577320237,1653341.0,-0.04991000145673752,-0.013489999808371067,0.011309999972581863,0.4025999903678894
6970.831577092453,1653342.0,-0.04569000005722046,-0.0022299999836832285,-0.0027699999045580626,0.41001999378204346
6970.832576864667,1653343.0,-0.04016000032424927,0.008220000192523003,-0.00949000008404255,0.4046199917793274
6970.833576636883,1653344.0,-0.03458999842405319,0.007579999975860119,-0.006130000110715628,0.39656001329421997
6970.834576409098,1653345.0,-0.02978000044822693,0.01066999975591898,-0.0129399998113513,0.4083699882030487
6970.835576181314,1653346.0,-0.027130000293254852,0.016620000824332237,-0.007309999782592058,0.40961000323295593
6970.836575953529,1653347.0,-0.026149999350309372,0.01484999991953373,-0.007860000245273113,0.40384000539779663
6970.837575725744,1653348.0,-0.027400000020861626,0.008860000409185886,-0.006039999891072512,0.40049999952316284
6970.838575497959,1653349.0,-0.027400000020861626,0.008129999972879887,-0.00014000000373926014,0.4098399877548218
6970.8395752701745,1653350.0,-0.02425999939441681,-4.999999873689376e-05,0.005040000192821026,0.4081000089645386
6970.84057504239,1653351.0,-0.01769999973475933,-0.009220000356435776,0.008630000054836273,0.4046199917793274
6970.841574814605,1653352.0,-0.01221999991685152,-0.013849999755620956,0.003000000026077032,0.4046199917793274
6970.842574586821,1653353.0,-0.0065100002102553844,-0.004129999782890081,0.0002699999895412475,0.4122200012207031
6970.843574359035,1653354.0,-0.0020699999295175076,0.005900000222027302,9.000000136438757e-05,0.4092400074005127
6970.844574131251,1653355.0,-0.0015699999639764428,0.011939999647438526,-0.0012700000079348683,0.3939099907875061
6970.845573903466,1653356.0,-0.004220000002533197,0.01607999950647354,-0.012400000356137753,0.4117099940776825
6970.846573675682,1653357.0,-0.009159999899566174,0.016850000247359276,-0.010219999589025974,0.4082300066947937
6970.847573447897,1653358.0,-0.017030000686645508,0.006130000110715628,-0.00839999970048666,0.406360000371933
6970.848573220112,1653359.0,-0.024620000272989273,-0.006769999861717224,-0.001230000052601099,0.40988001227378845
6970.849572992327,1653360.0,-0.029020000249147415,-0.00044999999227002263,-0.002589999930933118,0.4073199927806854
6970.850572764542,1653361.0,-0.02694999985396862,-0.0045900000259280205,0.00203999993391335,0.41075000166893005
6970.851572536758,1653362.0,-0.022690000012516975,-0.020029999315738678,0.008080000057816505,0.39803001284599304
6970.852572308973,1653363.0,-0.02012999914586544,-0.02548000030219555,0.016300000250339508,0.41437000036239624
6970.853572081189,1653364.0,-0.017969999462366104,-0.01217000000178814,0.0013200000394135714,0.4065900146961212
6970.854571853403,1653365.0,-0.013659999705851078,-0.014580000191926956,-0.002859999891370535,0.4134100079536438
6970.855571625619,1653366.0,-0.008539999835193157,-0.0010400000028312206,-0.006089999806135893,0.4078199863433838
6970.856571397834,1653367.0,-0.0037299999967217445,0.008860000409185886,-0.01448999997228384,0.4081000089645386
6970.85757117005,1653368.0,-0.0002699999895412475,0.010259999893605709,-0.009949999861419201,0.4156000018119812
6970.858570942265,1653369.0,0.0012600000482052565,0.003000000026077032,0.0022700000554323196,0.4113900065422058
6970.85957071448,1653370.0,0.0008099999977275729,-4.999999873689376e-05,0.006490000057965517,0.4074600040912628
6970.860570486695,1653371.0,-0.0026499999221414328,0.00203999993391335,-0.0019499999471008778,0.415149986743927
6970.86157025891,1653372.0,-0.005530000198632479,0.004999999888241291,-0.00203999993391335,0.4092400074005127
6970.862570031126,1653373.0,-0.008220000192523003,0.007860000245273113,-0.00018000000272877514,0.40918999910354614
6970.863569803341,1653374.0,-0.011409999802708626,0.009990000165998936,-0.005539999809116125,0.4138199985027313
6970.864569575557,1653375.0,-0.016349999234080315,0.009990000165998936,-0.010759999975562096,0.3972899913787842
6970.865569347771,1653376.0,-0.022460000589489937,0.004860000219196081,-0.011579999700188637,0.4144099950790405
6970.866569119987,1653377.0,-0.027489999309182167,0.009359999559819698,-0.0010900000343099236,0.4102500081062317
6970.867568892202,1653378.0,-0.03288000077009201,0.01257999986410141,-0.0033199999015778303,0.40988001227378845
6970.868568664418,1653379.0,-0.03432000055909157,-0.0033199999015778303,-0.000590000010561198,0.41321998834609985
6970.869568436632,1653380.0,-0.03522000089287758,-0.01181000005453825,0.007670000195503235,0.4009599983692169
6970.8705682088475,1653381.0,-0.0364300012588501,-0.007860000245273113,0.009580000303685665,0.41523998975753784
6970.871567981063,1653382.0,-0.03669999912381172,-0.018479999154806137,0.008129999972879887,0.3972899913787842
6970.872567753278,1653383.0,-0.032249998301267624,-0.016620000824332237,-0.003949999809265137,0.41596999764442444
6970.873567525494,1653384.0,-0.026009999215602875,-0.006310000084340572,-0.00044999999227002263,0.4029200077056885
6970.874567297709,1653385.0,-0.023180000483989716,-0.004269999917596579,0.00571999978274107,0.41683998703956604
6970.875567069925,1653386.0,-0.025019999593496323,0.005400000140070915,0.00267999991774559,0.4144099950790405
6970.876566842139,1653387.0,-0.02848000079393387,0.007579999975860119,0.01221999991685152,0.41047999262809753
6970.877566614355,1653388.0,-0.030910000205039978,0.002859999891370535,0.002630000002682209,0.4046199917793274
6970.87856638657,1653389.0,-0.033149998635053635,0.004129999782890081,-0.0011399999493733048,0.39816001057624817
6970.879566158786,1653390.0,-0.03423000127077103,0.001449999981559813,-0.0024500000290572643,0.41047999262809753
6970.880565931,1653391.0,-0.03440999984741211,0.0009500000160187483,-0.005630000028759241,0.4144099950790405
6970.8815657032155,1653392.0,-0.03319999948143959,-4.999999873689376e-05,-0.005489999894052744,0.4154700040817261
6970.882565475431,1653393.0,-0.028030000627040863,0.006130000110715628,-0.005859999917447567,0.41771000623703003
6970.883565247646,1653394.0,-0.021469999104738235,0.008670000359416008,-0.0015899999998509884,0.41047999262809753
6970.884565019862,1653395.0,-0.019770000129938126,0.011719999834895134,-0.004040000028908253,0.40136998891830444
6970.885564792077,1653396.0,-0.022190000861883163,0.013170000165700912,-0.001230000052601099,0.4101099967956543
6970.886564564292,1653397.0,-0.0258799996227026,0.00031999999191612005,-0.003539999946951866,0.41391000151634216
6970.887564336507,1653398.0,-0.030820000916719437,-0.0010000000474974513,0.006130000110715628,0.4157400131225586
6970.888564108723,1653399.0,-0.036660000681877136,-0.0027699999045580626,0.006130000110715628,0.40511998534202576
6970.889563880938,1653400.0,-0.03971000015735626,-0.001769999973475933,-0.0003600000054575503,0.41047999262809753
6970.890563653154,1653401.0,-0.038270000368356705,-0.00949000008404255,-0.001500000013038516,0.4102500081062317
6970.891563425368,1653402.0,-0.035760000348091125,0.003949999809265137,-0.00494999997317791,0.4108400046825409
6970.8925631975835,1653403.0,-0.03449999913573265,0.006490000057965517,-0.012029999867081642,0.4163399934768677
6970.893562969799,1653404.0,-0.03458999842405319,0.003590000094845891,-0.011309999972581863,0.41102999448776245
6970.894562742014,1653405.0,-0.033330000936985016,-0.0017300000181421638,-0.006719999946653843,0.41089001297950745
6970.89556251423,1653406.0,-0.030050000175833702,-0.00949000008404255,0.0014100000262260437,0.4157400131225586
6970.896562286445,1653407.0,-0.028349999338388443,-0.02969999983906746,0.01775999926030636,0.3982999920845032
6970.89756205866,1653408.0,-0.025520000606775284,-0.018209999427199364,0.007400000002235174,0.41738998889923096
6970.898561830875,1653409.0,-0.022099999710917473,0.00031999999191612005,-0.004410000052303076,0.4103899896144867
6970.899561603091,1653410.0,-0.01923000067472458,0.002360000042244792,0.0027699999045580626,0.4163399934768677
6970.900561375306,1653411.0,-0.0175199992954731,-0.0022299999836832285,0.001230000052601099,0.3982999920845032
6970.9015611475215,1653412.0,-0.018640000373125076,0.003949999809265137,0.001769999973475933,0.41596999764442444
6970.902560919736,1653413.0,-0.021469999104738235,0.008270000107586384,0.00686000008136034,0.4067699909210205
6970.9035606919515,1653414.0,-0.023809999227523804,0.004310000222176313,0.003220000071451068,0.41780000925064087
6970.904560464167,1653415.0,-0.029109999537467957,0.003220000071451068,-0.002090000081807375,0.40077000856399536
6970.905560236382,1653416.0,-0.03880999982357025,0.00031999999191612005,-0.0030900000128895044,0.4176200032234192
6970.906560008598,1653417.0,-0.05144000053405762,-0.011669999919831753,0.002360000042244792,0.40022000670433044
6970.907559780813,1653418.0,-0.0611799992620945,-0.011309999972581863,-0.003860000055283308,0.41857999563217163
6970.908559553028,1653419.0,-0.0670199990272522,-0.004769999999552965,0.001769999973475933,0.40283000469207764
6970.909559325243,1653420.0,-0.07026000320911407,-0.002589999930933118,0.002589999930933118,0.4184899926185608
6970.910559097459,1653421.0,-0.06972000002861023,-0.0007300000288523734,0.00031999999191612005,0.41157999634742737
6970.911558869674,1653422.0,-0.06684999912977219,0.008449999615550041,-0.006810000166296959,0.41596999764442444
6970.9125586418895,1653423.0,-0.06289000064134598,0.0027699999045580626,-0.009399999864399433,0.41367998719215393
6970.913558414104,1653424.0,-0.0568699985742569,0.0015899999998509884,-0.007670000195503235,0.413129985332489
6970.9145581863195,1653425.0,-0.05067000165581703,0.0021299999207258224,-0.005489999894052744,0.4162899851799011
6970.915557958535,1653426.0,-0.04428999871015549,0.011579999700188637,-0.005859999917447567,0.4046199917793274
6970.91655773075,1653427.0,-0.03863000124692917,0.015399999916553497,-0.010219999589025974,0.42013999819755554
6970.917557502966,1653428.0,-0.034949999302625656,0.010130000300705433,-0.007400000002235174,0.4122200012207031
6970.918557275181,1653429.0,-0.03413999825716019,0.01063000038266182,-0.0031300000846385956,0.4173400104045868
6970.919557047396,1653430.0,-0.03359999880194664,0.003220000071451068,0.0045900000259280205,0.4148299992084503
6970.920556819611,1653431.0,-0.035349998623132706,0.004679999779909849,0.006630000192672014,0.41437000036239624
6970.921556591827,1653432.0,-0.04052000120282173,0.0024999999441206455,0.0008200000156648457,0.41780000925064087
6970.922556364042,1653433.0,-0.045779999345541,-0.015080000273883343,0.008539999835193157,0.40900999307632446
6970.9235561362575,1653434.0,-0.049240000545978546,-0.021250000223517418,0.018120000138878822,0.4197700023651123
6970.924555908472,1653435.0,-0.05390999838709831,-0.01566999964416027,0.021479999646544456,0.41753000020980835
6970.9255556806875,1653436.0,-0.060920000076293945,-0.00031999999191612005,0.005810000002384186,0.4134100079536438
6970.926555452903,1653437.0,-0.06801000237464905,0.012670000083744526,-0.0045900000259280205,0.4212299883365631
6970.927555225118,1653438.0,-0.07197000086307526,-0.0022299999836832285,0.000859999970998615,0.40384000539779663
6970.928554997334,1653439.0,-0.07384999841451645,-0.005489999894052744,0.0016799999866634607,0.421779990196228
6970.929554769549,1653440.0,-0.07511000335216522,0.007860000245273113,-0.0063599999994039536,0.40421000123023987
6970.930554541764,1653441.0,-0.07444000244140625,0.005770000163465738,-0.00686000008136034,0.4238399863243103
6970.931554313979,1653442.0,-0.0743900015950203,0.00014000000373926014,-0.013849999755620956,0.4161500036716461
6970.932554086195,1653443.0,-0.0762299969792366,-0.0013200000394135714,-0.01298999972641468,0.423660010099411
6970.93355385841,1653444.0,-0.07884000241756439,-0.00418000016361475,0.00014000000373926014,0.41743001341819763
6970.934553630625,1653445.0,-0.07631999999284744,-0.00880999956279993,0.0018599999602884054,0.423660010099411
6970.93555340284,1653446.0,-0.06869000196456909,0.0010000000474974513,-0.00535999983549118,0.41780000925064087
6970.936553175055,1653447.0,-0.06032999977469444,0.0028200000524520874,-0.0051299999468028545,0.4251300096511841
6970.937552947271,1653448.0,-0.05852999910712242,0.00795000046491623,0.004000000189989805,0.41927000880241394
6970.938552719486,1653449.0,-0.058400001376867294,0.01484999991953373,0.00880999956279993,0.41927000880241394
6970.939552491702,1653450.0,-0.0628499984741211,0.01561999972909689,0.008990000002086163,0.4271399974822998
6970.940552263917,1653451.0,-0.06824000179767609,0.010040000081062317,9.000000136438757e-05,0.42146000266075134
6970.941552036132,1653452.0,-0.07044000178575516,0.003590000094845891,-0.0031799999997019768,0.41437000036239624
6970.942551808347,1653453.0,-0.06917999684810638,0.0027699999045580626,-0.0030900000128895044,0.4269599914550781
6970.943551580563,1653454.0,-0.06836999952793121,-0.007269999943673611,-0.0015399999683722854,0.4255799949169159
6970.944551352778,1653455.0,-0.06954000145196915,-0.026159999892115593,0.010040000081062317,0.41967999935150146
6970.945551124993,1653456.0,-0.07349000126123428,-0.018570000305771828,0.018479999154806137,0.42864999175071716
6970.946550897208,1653457.0,-0.07817000150680542,-0.0021299999207258224,0.010350000113248825,0.412990003824234
6970.947550669423,1653458.0,-0.08305999636650085,0.0027699999045580626,0.001769999973475933,0.4293400049209595
6970.948550441639,1653459.0,-0.08562000095844269,0.00014000000373926014,-0.003909999970346689,0.4184400141239166
6970.949550213854,1653460.0,-0.08517000079154968,-0.0011399999493733048,-0.014399999752640724,0.43024998903274536
6970.95054998607,1653461.0,-0.0817599967122078,-0.0014100000262260437,-0.01720999926328659,0.4162899851799011
6970.951549758284,1653462.0,-0.07519999891519547,0.0022299999836832285,-0.007860000245273113,0.43244999647140503
6970.9525495305,1653463.0,-0.0666700005531311,-0.0021800000686198473,-0.004999999888241291,0.4260900020599365
6970.953549302715,1653464.0,-0.052379999309778214,0.0014100000262260437,0.004900000058114529,0.4275999963283539
6970.954549074931,1653465.0,-0.03629999980330467,0.01375999953597784,0.000910000002477318,0.43272000551223755
6970.955548847146,1653466.0,-0.022779999300837517,0.0064500002190470695,0.008310000412166119,0.41523998975753784
6970.956548619361,1653467.0,-0.014910000376403332,0.00795000046491623,0.00031999999191612005,0.4343299865722656
6970.957548391576,1653468.0,-0.01051000040024519,0.00031999999191612005,0.001769999973475933,0.428739994764328
6970.958548163791,1653469.0,-0.006649999879300594,0.008310000412166119,-0.0030900000128895044,0.4343299865722656
6970.959547936007,1653470.0,-0.0027000000700354576,0.013220000080764294,-0.010130000300705433,0.4333600103855133
6970.960547708222,1653471.0,0.004129999782890081,-0.0013200000394135714,-0.007809999864548445,0.42388999462127686
6970.961547480438,1653472.0,0.01221999991685152,-0.02548000030219555,0.009259999729692936,0.4368399977684021
6970.962547252652,1653473.0,0.019770000129938126,-0.031150000169873238,0.018300000578165054,0.43097999691963196
6970.963547024868,1653474.0,0.025830000638961792,-0.008860000409185886,0.005539999809116125,0.4376699924468994
6970.964546797083,1653475.0,0.02857000008225441,0.010579999536275864,-0.007540000136941671,0.43097999691963196
6970.965546569299,1653476.0,0.028030000627040863,0.016300000250339508,-0.009990000165998936,0.43953999876976013
6970.966546341514,1653477.0,0.025520000606775284,0.01484999991953373,-0.00989999994635582,0.43268001079559326
6970.9675461137285,1653478.0,0.019990000873804092,0.012620000168681145,-0.009170000441372395,0.44051000475883484
6970.968545885944,1653479.0,0.017969999462366104,0.010449999943375587,-0.010080000385642052,0.43314000964164734
6970.969545658159,1653480.0,0.017340000718832016,-0.00044999999227002263,0.00018000000272877514,0.4397299885749817
6970.970545430375,1653481.0,0.020260000601410866,-0.006579999811947346,0.005040000192821026,0.43529000878334045
6970.97154520259,1653482.0,0.027990000322461128,-0.01066999975591898,0.0024500000290572643,0.4395900070667267
6970.972544974806,1653483.0,0.03692999854683876,-0.0044999998062849045,-0.005859999917447567,0.4352400004863739
6970.97354474702,1653484.0,0.045729998499155045,0.008670000359416008,-0.00949000008404255,0.4411900043487549
6970.974544519236,1653485.0,0.05400000140070915,0.008489999920129776,-0.010350000113248825,0.43794000148773193
6970.975544291451,1653486.0,0.06109999865293503,0.0033199999015778303,-0.009850000031292439,0.43821999430656433
6970.976544063667,1653487.0,0.06549999862909317,-0.002589999930933118,-0.007400000002235174,0.43977001309394836
6970.977543835882,1653488.0,0.06491000205278397,-0.0003600000054575503,-0.005859999917447567,0.4339100122451782
6970.9785436080965,1653489.0,0.06253000348806381,-0.0044999998062849045,0.007400000002235174,0.44238001108169556
6970.979543380312,1653490.0,0.06109999865293503,-0.006579999811947346,0.008580000139772892,0.43057000637054443
6970.980543152527,1653491.0,0.06379000097513199,-0.01648000068962574,0.019349999725818634,0.4450399875640869
6970.981542924743,1653492.0,0.06932000070810318,-0.018300000578165054,0.022299999371170998,0.425029993057251
6970.982542696958,1653493.0,0.07232999801635742,-0.009850000031292439,0.007079999893903732,0.44472000002861023
6970.983542469174,1653494.0,0.07179000228643417,0.008899999782443047,-0.010400000028312206,0.42879000306129456
6970.984542241388,1653495.0,0.06694000214338303,0.024800000712275505,-0.01566999964416027,0.4456300139427185
6970.985542013604,1653496.0,0.0603800006210804,0.016850000247359276,-0.014209999702870846,0.4411900043487549
6970.986541785819,1653497.0,0.05480999872088432,0.011939999647438526,-0.010400000028312206,0.43977001309394836
6970.9875415580345,1653498.0,0.04887999966740608,-0.003449999960139394,-0.0007699999841861427,0.4466400146484375
6970.98854133025,1653499.0,0.04187000170350075,-0.007670000195503235,0.0031799999997019768,0.44051000475883484
6970.9895411024645,1653500.0,0.03423000127077103,0.003590000094845891,-0.003539999946951866,0.4473699927330017
6970.99054087468,1653501.0,0.028839999809861183,0.004089999943971634,-0.0011399999493733048,0.44040998816490173
6970.991540646895,1653502.0,0.02676999941468239,-0.004629999864846468,0.001769999973475933,0.4471000134944916
6970.992540419111,1653503.0,0.029020000249147415,-0.003860000055283308,0.0010000000474974513,0.4411900043487549
6970.993540191326,1653504.0,0.03181000053882599,-0.0030400000978261232,-0.000590000010561198,0.44426000118255615
6970.994539963542,1653505.0,0.03077000007033348,-0.005859999917447567,9.000000136438757e-05,0.4454500079154968
6970.995539735756,1653506.0,0.02848000079393387,-0.011309999972581863,0.004720000084489584,0.44051000475883484
6970.996539507972,1653507.0,0.024080000817775726,-0.00803999975323677,0.001230000052601099,0.4465000033378601
6970.997539280187,1653508.0,0.017160000279545784,-0.0020000000949949026,0.003220000071451068,0.4339100122451782
6970.9985390524025,1653509.0,0.007410000078380108,0.00203999993391335,0.007040000054985285,0.4489699900150299
6970.999538824618,1653510.0,-0.0031399999279528856,-0.0052200001664459705,0.00795000046491623,0.43097999691963196
6971.0005385968325,1653511.0,-0.011680000461637974,-0.00041000000783242285,0.010169999673962593,0.4485599994659424
6971.001538369048,1653512.0,-0.019859999418258667,0.00014000000373926014,-0.0013200000394135714,0.42969998717308044
6971.002538141263,1653513.0,-0.02694999985396862,0.008670000359416008,-0.012350000441074371,0.45002999901771545
6971.003537913479,1653514.0,-0.03432000055909157,0.011939999647438526,-0.009759999811649323,0.44192999601364136
6971.004537685694,1653515.0,-0.044199999421834946,0.015119999647140503,-0.008270000107586384,0.4488399922847748
6971.00553745791,1653516.0,-0.05660000070929527,0.012310000136494637,-0.008990000002086163,0.44251999258995056
6971.006537230124,1653517.0,-0.07519999891519547,0.00880999956279993,-0.007670000195503235,0.4456300139427185
6971.00753700234,1653518.0,-0.09560000151395798,0.005040000192821026,-0.0009500000160187483,0.44659000635147095
6971.008536774555,1653519.0,-0.11643999814987183,-0.011309999972581863,0.0025400000158697367,0.4389500021934509
6971.0095365467705,1653520.0,-0.13696999847888947,-0.01834999956190586,0.01775999926030636,0.4485599994659424
6971.010536318985,1653521.0,-0.15286999940872192,-0.009039999917149544,0.009039999917149544,0.43024998903274536
6971.0115360912005,1653522.0,-0.15987999737262726,0.004269999917596579,-0.008580000139772892,0.4485599994659424
6971.012535863416,1653523.0,-0.15956999361515045,0.00203999993391335,-0.013120000250637531,0.4446299970149994
6971.013535635631,1653524.0,-0.1541299968957901,0.00031999999191612005,-0.013810000382363796,0.44444000720977783
6971.014535407847,1653525.0,-0.1442900002002716,0.007579999975860119,-0.009399999864399433,0.4456300139427185
6971.015535180062,1653526.0,-0.13095000386238098,0.003220000071451068,-0.005539999809116125,0.447050005197525
6971.016534952277,1653527.0,-0.11527000367641449,0.00267999991774559,0.0019499999471008778,0.4299300014972687
6971.017534724492,1653528.0,-0.1035500019788742,0.007040000054985285,0.009580000303685665,0.4499399960041046
6971.018534496708,1653529.0,-0.09187000244855881,0.0008200000156648457,0.014399999752640724,0.4302099943161011
6971.019534268923,1653530.0,-0.07772000133991241,-0.006949999835342169,0.019440000876784325,0.4496600031852722
6971.0205340411385,1653531.0,-0.06064999848604202,0.002859999891370535,0.003949999809265137,0.4427900016307831
6971.021533813353,1653532.0,-0.04163999855518341,0.010990000329911709,-0.008489999920129776,0.4428899884223938
6971.022533585568,1653533.0,-0.020840000361204147,0.003860000055283308,0.00031999999191612005,0.4488399922847748
6971.023533357784,1653534.0,-3.9999998989515007e-05,-0.0059899999760091305,0.006949999835342169,0.4438000023365021
6971.024533129999,1653535.0,0.0175199992954731,0.0019099999917671084,0.008310000412166119,0.44284000992774963
6971.025532902215,1653536.0,0.03413999825716019,0.00267999991774559,-0.0036800000816583633,0.4456300139427185
6971.02653267443,1653537.0,0.04761999845504761,0.010850000195205212,-0.007670000195503235,0.44238001108169556
6971.027532446645,1653538.0,0.05934000015258789,0.00018000000272877514,-0.009309999644756317,0.4423399865627289
6971.02853221886,1653539.0,0.07717999815940857,-0.0019099999917671084,-0.0029100000392645597,0.4478299915790558
6971.029531991076,1653540.0,0.10512000322341919,-0.005590000189840794,0.002360000042244792,0.43171998858451843
6971.030531763291,1653541.0,0.13745999336242676,-0.005630000028759241,0.0020000000949949026,0.44756001234054565
6971.0315315355065,1653542.0,0.16909000277519226,0.004410000052303076,0.004220000002533197,0.4415999948978424
6971.032531307721,1653543.0,0.19604000449180603,0.001500000013038516,0.0033599999733269215,0.44411998987197876
6971.033531079936,1653544.0,0.21710999310016632,-0.001820000004954636,0.003220000071451068,0.4441699981689453
6971.034530852152,1653545.0,0.23607000708580017,-0.0002699999895412475,-0.005630000028759241,0.44192999601364136
6971.035530624367,1653546.0,0.25380998849868774,0.006130000110715628,-0.01370999962091446,0.444489985704422
6971.036530396583,1653547.0,0.2735399901866913,0.004310000222176313,-0.015300000086426735,0.4385400116443634
6971.037530168798,1653548.0,0.2934400141239166,0.006130000110715628,-0.006579999811947346,0.44527000188827515
6971.038529941013,1653549.0,0.31266000866889954,-0.014209999702870846,0.014259999617934227,0.42750999331474304
6971.039529713228,1653550.0,0.3248800039291382,-0.03043000027537346,0.022120000794529915,0.4453999996185303
6971.040529485444,1653551.0,0.3282099962234497,-0.015440000221133232,0.01181000005453825,0.42621999979019165
6971.041529257659,1653552.0,0.3305000066757202,0.001769999973475933,-0.0031300000846385956,0.44558998942375183
6971.0425290298745,1653553.0,0.33059000968933105,0.0016799999866634607,-0.0037700000684708357,0.43830999732017517
6971.043528802089,1653554.0,0.327129989862442,0.00203999993391335,-0.0018599999602884054,0.43977001309394836
6971.044528574304,1653555.0,0.319489985704422,0.011760000139474869,-0.009080000221729279,0.44040998816490173
6971.04552834652,1653556.0,0.3054800033569336,0.02452000044286251,-0.013120000250637531,0.4362899959087372
6971.046528118735,1653557.0,0.28992998600006104,0.02855999954044819,-0.018300000578165054,0.4397299885749817
6971.047527890951,1653558.0,0.27838999032974243,0.02166000008583069,-0.014709999784827232,0.4280500113964081
6971.048527663166,1653559.0,0.2693600058555603,0.012310000136494637,-0.01730000041425228,0.44183000922203064
6971.049527435381,1653560.0,0.26423999667167664,0.0012700000079348683,-0.01566999964416027,0.43456000089645386
6971.050527207596,1653561.0,0.2628900110721588,-0.027470000088214874,0.0051299999468028545,0.4388599991798401
6971.051526979812,1653562.0,0.26504001021385193,-0.0413299985229969,0.02133999951183796,0.43514999747276306
6971.052526752027,1653563.0,0.2656700015068054,-0.02988000027835369,0.023339999839663506,0.4368399977684021
6971.053526524242,1653564.0,0.26072999835014343,-0.01865999959409237,0.020570000633597374,0.4341900050640106
6971.054526296457,1653565.0,0.25084999203681946,-0.005179999861866236,-0.0002300000051036477,0.4350599944591522
6971.055526068672,1653566.0,0.2366500049829483,0.004220000002533197,-0.010400000028312206,0.43097999691963196
6971.056525840888,1653567.0,0.219760000705719,0.01375999953597784,-0.01217000000178814,0.43575000762939453
6971.057525613103,1653568.0,0.20340999960899353,0.012310000136494637,-0.007670000195503235,0.43487998843193054
6971.058525385319,1653569.0,0.1862500011920929,0.015399999916553497,0.004540000110864639,0.4243899881839752
6971.059525157534,1653570.0,0.1653199940919876,0.004679999779909849,0.003449999960139394,0.43097999691963196
6971.060524929749,1653571.0,0.1430799961090088,0.011760000139474869,-0.002360000042244792,0.43575000762939453
6971.061524701964,1653572.0,0.12236999720335007,0.011850000359117985,-0.006719999946653843,0.42142000794410706
6971.06252447418,1653573.0,0.1031000018119812,0.015399999916553497,-0.01334999967366457,0.43084999918937683
6971.063524246395,1653574.0,0.08481000363826752,0.006130000110715628,-0.014580000191926956,0.4266799986362457
6971.06452401861,1653575.0,0.06631000339984894,0.0009500000160187483,-0.001449999981559813,0.42603999376296997
6971.065523790825,1653576.0,0.04627000167965889,0.0030400000978261232,0.0006399999838322401,0.4312100112438202
6971.06652356304,1653577.0,0.02622999995946884,0.0072200000286102295,0.0045900000259280205,0.4233900010585785
6971.067523335256,1653578.0,0.007550000213086605,0.0020000000949949026,0.008310000412166119,0.4228399991989136
6971.068523107471,1653579.0,-0.008630000054836273,-0.004999999888241291,0.012900000438094139,0.42723000049591064
6971.069522879687,1653580.0,-0.020840000361204147,-0.012849999591708183,0.013810000382363796,0.4245299994945526
6971.070522651902,1653581.0,-0.027130000293254852,-0.02525000087916851,0.01720999926328659,0.4212299883365631
6971.071522424117,1653582.0,-0.027489999309182167,-0.012810000218451023,0.006130000110715628,0.42508000135421753
6971.072522196332,1653583.0,-0.025609999895095825,-0.002589999930933118,0.00031999999191612005,0.4221999943256378
6971.0735219685475,1653584.0,-0.023360000923275948,0.0051299999468028545,-0.007040000054985285,0.41927000880241394
6971.074521740763,1653585.0,-0.020309999585151672,0.006039999891072512,-0.005489999894052744,0.4221000075340271
6971.0755215129775,1653586.0,-0.016259999945759773,0.005450000055134296,-0.01104000024497509,0.4231100082397461
6971.076521285193,1653587.0,-0.012040000408887863,0.004679999779909849,-0.013120000250637531,0.4125399887561798
6971.077521057408,1653588.0,-0.00925000011920929,-0.0003600000054575503,-0.007040000054985285,0.4185299873352051
6971.078520829624,1653589.0,-0.008940000087022781,-0.005489999894052744,-0.0030900000128895044,0.4203599989414215
6971.079520601839,1653590.0,-0.0101500004529953,0.0024999999441206455,-0.0022299999836832285,0.41451001167297363
6971.080520374055,1653591.0,-0.010239999741315842,0.0015899999998509884,-0.009399999864399433,0.41986000537872314
6971.081520146269,1653592.0,-0.010200000368058681,0.0044999998062849045,-0.004040000028908253,0.4052099883556366
6971.082519918485,1653593.0,-0.01051000040024519,0.01063000038266182,-0.010219999589025974,0.4202300012111664
6971.0835196907,1653594.0,-0.009879999794065952,0.010080000385642052,0.004720000084489584,0.4118500053882599
6971.0845194629155,1653595.0,-0.01181000005453825,0.009759999811649323,0.009309999644756317,0.415010005235672
6971.085519235131,1653596.0,-0.017249999567866325,0.008080000057816505,0.011579999700188637,0.414139986038208
6971.0865190073455,1653597.0,-0.02507000043988228,0.009399999864399433,0.007670000195503235,0.4097900092601776
6971.087518779561,1653598.0,-0.03279000148177147,-0.0025400000158697367,0.009850000031292439,0.4162899851799011
6971.088518551776,1653599.0,-0.040389999747276306,-0.004769999999552965,0.008860000409185886,0.4082300066947937
6971.089518323992,1653600.0,-0.046720001846551895,-0.004410000052303076,0.0027699999045580626,0.414139986038208
6971.090518096207,1653601.0,-0.047210000455379486,-0.015030000358819962,0.002859999891370535,0.40887001156806946
6971.091517868423,1653602.0,-0.04303999990224838,-0.007670000195503235,9.000000136438757e-05,0.40755000710487366
6971.092517640637,1653603.0,-0.03458999842405319,-0.0002300000051036477,-0.0036800000816583633,0.4089699983596802
6971.093517412853,1653604.0,-0.023809999227523804,-0.0020000000949949026,-0.0022299999836832285,0.4057199954986572
6971.094517185068,1653605.0,-0.013120000250637531,0.003220000071451068,-0.014619999565184116,0.4111599922180176
6971.0955169572835,1653606.0,-0.0035000001080334187,0.01484999991953373,-0.019659999758005142,0.4046199917793274
6971.096516729499,1653607.0,0.00107999995816499,0.009720000438392162,-0.0064500002190470695,0.4060400128364563
6971.0975165017135,1653608.0,0.0015300000086426735,-0.004769999999552965,-0.002589999930933118,0.40584999322891235
6971.098516273929,1653609.0,0.0022899999748915434,-0.02947000041604042,0.001769999973475933,0.40283000469207764
6971.099516046144,1653610.0,0.003949999809265137,0.017349999397993088,0.02483999915421009,0.4073199927806854
6971.10051581836,1653611.0,0.005350000225007534,-0.03886999934911728,0.01484999991953373,0.39052000641822815
6971.101515590575,1653612.0,0.005080000031739473,-0.0072200000286102295,-0.007400000002235174,0.408050000667572
6971.102515362791,1653613.0,0.004040000028908253,0.008080000057816505,-0.0019099999917671084,0.40004000067710876
6971.103515135005,1653614.0,0.004220000002533197,0.015350000001490116,-0.006219999864697456,0.4052099883556366
6971.104514907221,1653615.0,0.002959999954327941,0.010449999943375587,-0.0044999998062849045,0.40049999952316284
6971.105514679436,1653616.0,-0.0026100000832229853,0.01484999991953373,-0.00839999970048666,0.39875999093055725
6971.1065144516515,1653617.0,-0.009879999794065952,0.011850000359117985,-0.0011399999493733048,0.4021500051021576
6971.107514223867,1653618.0,-0.02012999914586544,-0.0009500000160187483,0.0027699999045580626,0.39252999424934387
6971.1085139960815,1653619.0,-0.030859999358654022,-0.011579999700188637,0.00872000027447939,0.4037500023841858
6971.109513768297,1653620.0,-0.038989998400211334,-0.011309999972581863,0.013810000382363796,0.39688000082969666
6971.110513540512,1653621.0,-0.04295000061392784,-0.013079999946057796,0.0030400000978261232,0.4021899998188019
6971.111513312728,1653622.0,-0.04123999923467636,-0.001449999981559813,-0.004900000058114529,0.3958300054073334
6971.112513084943,1653623.0,-0.03593999892473221,-0.00803999975323677,-0.0015399999683722854,0.40004000067710876
6971.113512857159,1653624.0,-0.027580000460147858,0.0014100000262260437,-0.006680000107735395,0.3965100049972534
6971.114512629373,1653625.0,-0.019540000706911087,0.022619999945163727,-0.018710000440478325,0.39399999380111694
6971.115512401589,1653626.0,-0.01257999986410141,0.015209999866783619,-0.01711999997496605,0.39702001214027405
6971.116512173804,1653627.0,-0.006289999932050705,0.009720000438392162,-0.01576000079512596,0.39412999153137207
6971.1175119460195,1653628.0,0.0003100000030826777,0.004679999779909849,-0.0051299999468028545,0.3960599899291992
6971.118511718235,1653629.0,0.00925000011920929,-0.01566999964416027,0.018479999154806137,0.3880000114440918
6971.119511490449,1653630.0,0.015180000104010105,-0.007670000195503235,0.00872000027447939,0.398250013589859
6971.120511262665,1653631.0,0.01568000018596649,-0.00839999970048666,-0.002589999930933118,0.3901999890804291
6971.12151103488,1653632.0,0.012760000303387642,0.00031999999191612005,0.005950000137090683,0.39614999294281006
6971.122510807096,1653633.0,0.007189999800175428,-0.00798999983817339,0.008580000139772892,0.3898800015449524
6971.123510579311,1653634.0,0.004129999782890081,-0.01648000068962574,0.019300000742077827,0.39285001158714294
6971.124510351527,1653635.0,0.0011699999449774623,-0.004449999891221523,0.019209999591112137,0.391620010137558
6971.125510123741,1653636.0,-0.0016199999954551458,0.0015899999998509884,0.011939999647438526,0.3836100101470947
6971.126509895957,1653637.0,-0.0035000001080334187,0.00535999983549118,0.0052200001664459705,0.39353999495506287
6971.127509668172,1653638.0,-0.008220000192523003,0.010759999975562096,-0.0051299999468028545,0.38662999868392944
6971.1285094403875,1653639.0,-0.010649999603629112,0.011939999647438526,-0.017260000109672546,0.38982999324798584
6971.129509212603,1653640.0,-0.010110000148415565,0.01140000019222498,-0.025019999593496323,0.3890100121498108
6971.130508984817,1653641.0,-0.002199999988079071,0.009039999917149544,-0.02329999953508377,0.3772900104522705
6971.131508757033,1653642.0,0.012670000083744526,0.010219999589025974,-0.01906999945640564,0.39166000485420227
6971.132508529248,1653643.0,0.030729999765753746,0.0044999998062849045,-0.012760000303387642,0.384660005569458
6971.133508301464,1653644.0,0.049150001257658005,0.002589999930933118,-0.00872000027447939,0.3904300034046173
6971.134508073679,1653645.0,0.06801000237464905,-0.021800000220537186,0.0083600003272295,0.37810999155044556
6971.135507845895,1653646.0,0.08517000079154968,-0.026979999616742134,0.006769999861717224,0.38631001114845276
6971.136507618109,1653647.0,0.10197000205516815,-0.013670000247657299,0.01816999912261963,0.38199999928474426
6971.137507390325,1653648.0,0.1161699965596199,-0.007809999864548445,0.009039999917149544,0.3809100091457367
6971.13850716254,1653649.0,0.12604999542236328,0.0045900000259280205,0.0019499999471008778,0.38648998737335205
6971.139506934755,1653650.0,0.13050000369548798,0.0027699999045580626,0.008670000359416008,0.36873000860214233
6971.14050670697,1653651.0,0.13207000494003296,-0.000590000010561198,0.012529999949038029,0.38534998893737793
6971.141506479185,1653652.0,0.131400004029274,-0.013260000385344028,0.014310000464320183,0.3799000084400177
6971.142506251401,1653653.0,0.1283400058746338,-0.0013599999947473407,0.006130000110715628,0.37898001074790955
6971.143506023616,1653654.0,0.12434999644756317,0.009580000303685665,-0.00494999997317791,0.3829199969768524
6971.144505795832,1653655.0,0.1146399974822998,0.013030000030994415,-0.008670000359416008,0.3773300051689148
6971.145505568047,1653656.0,0.0997299998998642,0.00795000046491623,-0.0006399999838322401,0.37970998883247375
6971.146505340262,1653657.0,0.08302000164985657,0.006130000110715628,0.005450000055134296,0.3752700090408325
6971.147505112477,1653658.0,0.06896000355482101,0.005630000028759241,-0.000910000002477318,0.3815000057220459
6971.148504884693,1653659.0,0.05934000015258789,0.008580000139772892,-0.009759999811649323,0.3731200098991394
6971.149504656908,1653660.0,0.05121000111103058,0.005770000163465738,-0.006399999838322401,0.37678998708724976
6971.150504429123,1653661.0,0.04258999973535538,0.006949999835342169,-0.010809999890625477,0.37852001190185547
6971.151504201338,1653662.0,0.034860000014305115,0.0015899999998509884,-0.007180000189691782,0.37303000688552856
6971.152503973553,1653663.0,0.03215999901294708,-0.0011399999493733048,0.00031999999191612005,0.3738600015640259
6971.153503745769,1653664.0,0.03458999842405319,0.004220000002533197,0.0010400000028312206,0.37404000759124756
6971.154503517984,1653665.0,0.04075000062584877,-4.999999873689376e-05,-0.002589999930933118,0.3735800087451935
6971.1555032902,1653666.0,0.04473999887704849,0.0027699999045580626,-0.006089999806135893,0.37330999970436096
6971.156503062415,1653667.0,0.04205000028014183,-0.00839999970048666,0.007860000245273113,0.3656199872493744
6971.15750283463,1653668.0,0.03711000084877014,-0.005489999894052744,0.006630000192672014,0.3753199875354767
6971.158502606845,1653669.0,0.03162999823689461,0.011939999647438526,0.00267999991774559,0.36754000186920166
6971.1595023790605,1653670.0,0.026590000838041306,0.017030000686645508,-0.0028200000524520874,0.3684999942779541
6971.160502151276,1653671.0,0.02363000065088272,-0.002090000081807375,-0.001820000004954636,0.3705100119113922
6971.161501923491,1653672.0,0.021740000694990158,-0.004769999999552965,0.0022299999836832285,0.3550400137901306
6971.162501695706,1653673.0,0.02092999964952469,0.008080000057816505,-0.004089999943971634,0.37106001377105713
6971.163501467921,1653674.0,0.022099999710917473,0.014399999752640724,-0.006089999806135893,0.3651599884033203
6971.164501240137,1653675.0,0.021290000528097153,0.007079999893903732,0.00031999999191612005,0.36496999859809875
6971.165501012352,1653676.0,0.0175199992954731,-0.011669999919831753,0.01484999991953373,0.3674499988555908
6971.166500784568,1653677.0,0.013159999623894691,-0.00875999964773655,0.017669999971985817,0.36291998624801636
6971.167500556783,1653678.0,0.007189999800175428,-0.008129999972879887,0.013489999808371067,0.36597999930381775
6971.168500328998,1653679.0,0.0014400000218302011,-0.019120000302791595,0.01775999926030636,0.36107999086380005
6971.169500101213,1653680.0,-0.004629999864846468,-0.004220000002533197,0.00031999999191612005,0.36629998683929443
6971.1704998734285,1653681.0,-0.00872000027447939,0.003220000071451068,-0.0027699999045580626,0.3528900146484375
6971.171499645644,1653682.0,-0.008980000391602516,0.009399999864399433,-0.0022299999836832285,0.3616800010204315
6971.172499417859,1653683.0,-0.005030000116676092,-0.002950000111013651,-0.004269999917596579,0.366349995136261
6971.173499190074,1653684.0,0.004540000110864639,-0.005489999894052744,-0.006630000192672014,0.35892999172210693
6971.174498962289,1653685.0,0.01671000011265278,-0.000590000010561198,-0.009449999779462814,0.3635999858379364
6971.175498734505,1653686.0,0.025790000334382057,0.0027699999045580626,-0.015709999948740005,0.35857000946998596
6971.17649850672,1653687.0,0.03037000074982643,0.003220000071451068,-0.016170000657439232,0.3621399998664856
6971.177498278936,1653688.0,0.03027999959886074,-0.0015399999683722854,-0.0002699999895412475,0.34661999344825745
6971.178498051151,1653689.0,0.025699999183416367,0.004809999838471413,-0.004000000189989805,0.359250009059906
6971.179497823366,1653690.0,0.018060000613331795,0.01558000035583973,-0.009309999644756317,0.36136001348495483
6971.180497595581,1653691.0,0.005929999984800816,0.010219999589025974,-0.014940000139176846,0.3488599956035614
6971.1814973677965,1653692.0,-0.005169999785721302,0.007809999864548445,-0.016170000657439232,0.3581100106239319
6971.182497140012,1653693.0,-0.013120000250637531,-0.008630000054836273,-0.004629999864846468,0.3601199984550476
6971.183496912227,1653694.0,-0.019770000129938126,-0.014399999752640724,0.011719999834895134,0.3469400107860565
6971.184496684442,1653695.0,-0.027939999476075172,-0.027879999950528145,0.02937999926507473,0.3572799861431122
6971.185496456657,1653696.0,-0.03943999856710434,-0.03164999932050705,0.039650000631809235,0.35326001048088074
6971.186496228873,1653697.0,-0.05138999968767166,-0.0031300000846385956,0.016850000247359276,0.3565100133419037
6971.187496001088,1653698.0,-0.060109999030828476,0.013030000030994415,0.007579999975860119,0.3430899977684021
6971.188495773304,1653699.0,-0.064240001142025,0.03002000041306019,-0.0022299999836832285,0.35861000418663025
6971.189495545519,1653700.0,-0.064690001308918,0.23374000191688538,-0.0033599999733269215,0.3518800139427185
6971.190495317734,1653701.0,-0.06055999919772148,0.12696999311447144,-0.006219999864697456,0.3518800139427185
6971.191495089949,1653702.0,-0.05144000053405762,0.03338000178337097,-0.009759999811649323,0.35554999113082886
6971.1924948621645,1653703.0,-0.04016000032424927,-0.002589999930933118,-0.005859999917447567,0.3414900004863739
6971.19349463438,1653704.0,-0.025919999927282333,-0.052000001072883606,-0.013220000080764294,0.35701000690460205
6971.194494406595,1653705.0,-0.00965999998152256,-0.04619000107049942,-0.014940000139176846,0.34995999932289124
6971.19549417881,1653706.0,0.004670000169426203,-0.048179998993873596,-0.000539999979082495,0.3548099994659424
6971.196493951025,1653707.0,0.014240000396966934,-0.04532000049948692,-0.00041000000783242285,0.34821999073028564
6971.197493723241,1653708.0,0.019139999523758888,-0.04718000069260597,0.005040000192821026,0.35541000962257385
6971.198493495456,1653709.0,0.021609999239444733,-0.03646999970078468,-0.004900000058114529,0.34894999861717224
6971.199493267672,1653710.0,0.021740000694990158,-0.029109999537467957,-0.002630000002682209,0.3504599928855896
6971.200493039887,1653711.0,0.01860000006854534,-0.028750000521540642,0.00267999991774559,0.3500100076198578
6971.201492812102,1653712.0,0.015359999611973763,-0.011760000139474869,-0.0011399999493733048,0.3487200140953064
6971.202492584317,1653713.0,0.012849999591708183,-0.004269999917596579,-0.011760000139474869,0.3514299988746643
6971.2034923565325,1653714.0,0.008630000054836273,-0.0017300000181421638,-0.012760000303387642,0.34676000475883484
6971.204492128748,1653715.0,0.0,0.00749000022187829,-0.014209999702870846,0.3504199981689453
6971.205491900962,1653716.0,-0.010830000042915344,0.010809999890625477,-0.013399999588727951,0.34804001450538635
6971.206491673178,1653717.0,-0.022280000150203705,-0.005859999917447567,-0.004129999782890081,0.3495500087738037
6971.207491445393,1653718.0,-0.031220000237226486,-0.020029999315738678,0.011900000274181366,0.34735000133514404
6971.208491217609,1653719.0,-0.03652000054717064,-0.036740001291036606,0.036559998989105225,0.34676000475883484
6971.209490989824,1653720.0,-0.04173000156879425,-0.04763999953866005,0.04187000170350075,0.3485899865627289
6971.21049076204,1653721.0,-0.042410001158714294,-0.03638000041246414,0.024299999698996544,0.34821999073028564
6971.211490534254,1653722.0,-0.03863000124692917,0.0013599999947473407,-0.001500000013038516,0.3462499976158142
6971.21249030647,1653723.0,-0.030500000342726707,0.009449999779462814,-0.013989999890327454,0.3478499948978424
6971.213490078685,1653724.0,-0.018370000645518303,0.013530000112950802,-0.020029999315738678,0.34588998556137085
6971.2144898509005,1653725.0,-0.007679999805986881,0.01566999964416027,-0.01558000035583973,0.34804001450538635
6971.215489623116,1653726.0,-0.00018000000272877514,0.01775999926030636,-0.007180000189691782,0.3452500104904175
6971.21648939533,1653727.0,0.0013500000350177288,0.016300000250339508,-0.002090000081807375,0.3495500087738037
6971.217489167546,1653728.0,0.0014400000218302011,0.01257999986410141,-0.002360000042244792,0.3394300043582916
6971.218488939761,1653729.0,0.003590000094845891,0.004129999782890081,0.001769999973475933,0.3504199981689453
6971.219488711977,1653730.0,0.006060000043362379,-0.014209999702870846,0.007180000189691782,0.33906999230384827
6971.220488484192,1653731.0,0.009030000306665897,-0.015890000388026237,0.007899999618530273,0.35106000304222107
6971.221488256408,1653732.0,0.009879999794065952,-0.004720000084489584,0.004629999864846468,0.3342599868774414
6971.222488028622,1653733.0,0.009429999627172947,0.008449999615550041,-0.007269999943673611,0.350600004196167
6971.223487800838,1653734.0,0.00872000027447939,0.013670000247657299,-0.013220000080764294,0.34455999732017517
6971.224487573053,1653735.0,0.006240000016987324,0.013399999588727951,-0.012489999644458294,0.34863001108169556
6971.225487345268,1653736.0,0.0003100000030826777,0.013260000385344028,-0.013810000382363796,0.34419000148773193
6971.226487117484,1653737.0,-0.007139999885112047,0.006810000166296959,-0.005489999894052744,0.34731000661849976
6971.227486889698,1653738.0,-0.015540000051259995,-0.0019099999917671084,-0.0017300000181421638,0.34602001309394836
6971.228486661914,1653739.0,-0.022690000012516975,-0.019750000908970833,0.010850000195205212,0.3448300063610077
6971.229486434129,1653740.0,-0.026410000398755074,-0.036010000854730606,0.033330000936985016,0.34455999732017517
6971.230486206345,1653741.0,-0.02785000018775463,-0.028470000252127647,0.021980000659823418,0.3449699878692627
6971.23148597856,1653742.0,-0.02694999985396862,-0.004629999864846468,0.0029100000392645597,0.34602001309394836
6971.232485750776,1653743.0,-0.021379999816417694,0.009220000356435776,-0.011939999647438526,0.34286001324653625
6971.23348552299,1653744.0,-0.014379999600350857,0.015939999371767044,-0.008170000277459621,0.34676000475883484
6971.234485295206,1653745.0,-0.008310000412166119,0.0014100000262260437,-0.00803999975323677,0.33956998586654663
6971.235485067421,1653746.0,-0.0028800000436604023,0.0002300000051036477,0.002589999930933118,0.34821999073028564
6971.236484839636,1653747.0,0.0026100000832229853,0.00875999964773655,-0.006630000192672014,0.33562999963760376
6971.237484611852,1653748.0,0.004900000058114529,0.010850000195205212,-0.007809999864548445,0.3484500050544739
6971.238484384066,1653749.0,0.0037700000684708357,0.008990000002086163,-0.004410000052303076,0.33316001296043396
6971.239484156282,1653750.0,0.0035000001080334187,0.015350000001490116,-0.0037700000684708357,0.3479900062084198
6971.240483928497,1653751.0,0.0033199999015778303,0.006630000192672014,-0.0028200000524520874,0.34185999631881714
6971.241483700713,1653752.0,0.0048500001430511475,0.005040000192821026,-0.006089999806135893,0.34400999546051025
6971.242483472928,1653753.0,0.006829999852925539,0.003590000094845891,-0.009949999861419201,0.3423599898815155
6971.243483245144,1653754.0,0.008670000359416008,-0.003449999960139394,-0.012849999591708183,0.34226998686790466
6971.244483017358,1653755.0,0.007860000245273113,-0.0007699999841861427,-0.0013599999947473407,0.34360000491142273
6971.2454827895735,1653756.0,0.005799999926239252,-0.015799999237060547,0.010490000247955322,0.33956998586654663
6971.246482561789,1653757.0,0.0031900000758469105,-0.03260999917984009,0.01875999942421913,0.3414900004863739
6971.247482334004,1653758.0,-0.0037700000684708357,-0.013170000165700912,0.010940000414848328,0.3401600122451782
6971.24848210622,1653759.0,-0.007819999940693378,0.013399999588727951,0.011490000411868095,0.34125998616218567
6971.249481878434,1653760.0,-0.009879999794065952,0.016979999840259552,0.006039999891072512,0.3430899977684021
6971.25048165065,1653761.0,-0.010739999823272228,0.01566999964416027,-0.012400000356137753,0.3387500047683716
6971.251481422865,1653762.0,-0.008980000391602516,0.01221999991685152,-0.010579999536275864,0.34578999876976013
6971.252481195081,1653763.0,-0.00215999991632998,0.003220000071451068,-0.01030999980866909,0.33842000365257263
6971.253480967296,1653764.0,0.007819999940693378,0.005770000163465738,-0.01071999967098236,0.33897000551223755
6971.254480739512,1653765.0,0.016979999840259552,0.000910000002477318,-0.004040000028908253,0.3433699905872345
6971.255480511726,1653766.0,0.02363000065088272,-0.013220000080764294,0.012489999644458294,0.3343000113964081
6971.2564802839415,1653767.0,0.028440000489354134,-0.018570000305771828,0.00795000046491623,0.3440999984741211
6971.257480056157,1653768.0,0.030910000205039978,-0.00571999978274107,-0.0027699999045580626,0.32624998688697815
6971.258479828372,1653769.0,0.030729999765753746,0.0007699999841861427,-0.002589999930933118,0.34213000535964966
6971.259479600588,1653770.0,0.02785000018775463,0.009039999917149544,-0.005679999943822622,0.3361400067806244
6971.260479372802,1653771.0,0.024080000817775726,0.005590000189840794,-0.0028200000524520874,0.3370499908924103
6971.261479145018,1653772.0,0.020390000194311142,0.005590000189840794,-0.0033199999015778303,0.34272998571395874
6971.262478917233,1653773.0,0.018689999356865883,0.007360000163316727,-0.003719999920576811,0.3354499936103821
6971.263478689449,1653774.0,0.01940999925136566,0.0027699999045580626,-0.006630000192672014,0.33636000752449036
6971.264478461664,1653775.0,0.017160000279545784,0.0027699999045580626,-0.008670000359416008,0.34172001481056213
6971.26547823388,1653776.0,0.011009999550879002,0.011850000359117985,-0.01140000019222498,0.33188000321388245
6971.266478006094,1653777.0,0.004089999943971634,0.013849999755620956,-0.0010400000028312206,0.33695998787879944
6971.2674777783095,1653778.0,-0.0028800000436604023,0.00031999999191612005,0.00795000046491623,0.33719000220298767
6971.268477550525,1653779.0,-0.010200000368058681,-0.003860000055283308,0.00686000008136034,0.3339399993419647
6971.26947732274,1653780.0,-0.014290000312030315,-0.0002699999895412475,-0.0013200000394135714,0.33878999948501587
6971.270477094955,1653781.0,-0.014059999957680702,0.003220000071451068,-0.0028200000524520874,0.3332099914550781
6971.27147686717,1653782.0,-0.009340000338852406,-0.0011399999493733048,-0.0037700000684708357,0.334989994764328
6971.272476639386,1653783.0,0.000539999979082495,-0.003539999946951866,0.00031999999191612005,0.3361400067806244
6971.273476411601,1653784.0,0.009929999709129333,-0.003449999960139394,-0.003909999970346689,0.3200699985027313
6971.274476183817,1653785.0,0.017880000174045563,0.00031999999191612005,-0.0016799999866634607,0.3351700007915497
6971.275475956032,1653786.0,0.025609999895095825,0.0035000001080334187,0.0009500000160187483,0.32982000708580017
6971.276475728247,1653787.0,0.032340001314878464,-0.002319999970495701,0.003590000094845891,0.329910010099411
6971.277475500462,1653788.0,0.035670001059770584,0.004410000052303076,-0.003539999946951866,0.33577001094818115
6971.2784752726775,1653789.0,0.03822999820113182,0.00686000008136034,-0.008990000002086163,0.32368001341819763
6971.279475044893,1653790.0,0.040070001035928726,-0.00044999999227002263,0.0031300000846385956,0.3320600092411041
6971.280474817108,1653791.0,0.04056999832391739,-0.04250999912619591,0.035009998828172684,0.328220009803772
6971.281474589323,1653792.0,0.04052000120282173,-0.04123999923467636,0.03206000104546547,0.32912999391555786
6971.282474361538,1653793.0,0.040699999779462814,-0.015709999948740005,0.008580000139772892,0.3321099877357483
6971.283474133754,1653794.0,0.04106000065803528,0.009039999917149544,-0.009850000031292439,0.32120999693870544
6971.284473905969,1653795.0,0.03822999820113182,0.015209999866783619,-0.013939999975264072,0.3284499943256378
6971.285473678185,1653796.0,0.031539998948574066,0.01638999953866005,-0.013939999975264072,0.3313800096511841
6971.2864734504,1653797.0,0.02384999953210354,0.025110000744462013,-0.012260000221431255,0.31915000081062317
6971.287473222615,1653798.0,0.01841999962925911,0.025699999183416367,-0.009759999811649323,0.32651999592781067
6971.28847299483,1653799.0,0.015540000051259995,0.02012000046670437,-0.007670000195503235,0.32666000723838806
6971.2894727670455,1653800.0,0.014019999653100967,0.011579999700188637,-0.011669999919831753,0.3114599883556366
6971.290472539261,1653801.0,0.014469999819993973,0.004999999888241291,-0.004360000137239695,0.3251500129699707
6971.291472311476,1653802.0,0.017160000279545784,-0.013120000250637531,0.003809999907389283,0.3234100043773651
6971.292472083691,1653803.0,0.022099999710917473,-0.008539999835193157,0.009399999864399433,0.31292998790740967
6971.293471855906,1653804.0,0.028839999809861183,0.005770000163465738,0.00031999999191612005,0.32295000553131104
