LSL_Time,PLUX_P1_nSeq,PLUX_P1_ECG0,PLUX_P1_EMG1,PLUX_P1_EMG2,PLUX_P1_RESPIRATION3
6668.895369220202,1351337.0,-0.00965999998152256,0.005770000163465738,0.006130000110715628,0.334989994764328
6668.896368992418,1351338.0,-0.018549999222159386,-4.999999873689376e-05,-0.00203999993391335,0.3451499938964844
6668.897368764632,1351339.0,-0.024620000272989273,-0.003719999920576811,-0.005489999894052744,0.34643998742103577
6668.898368536848,1351340.0,-0.02493000030517578,0.0013200000394135714,0.003949999809265137,0.33261001110076904
6668.899368309063,1351341.0,-0.019680000841617584,-0.0045900000259280205,0.00031999999191612005,0.3438299894332886
6668.900368081278,1351342.0,-0.011230000294744968,-0.008630000054836273,-0.0014100000262260437,0.3412199914455414
6668.901367853494,1351343.0,0.0012600000482052565,-0.003539999946951866,-0.0029100000392645597,0.3284499943256378
6668.902367625709,1351344.0,0.010420000180602074,-0.007040000054985285,-0.001230000052601099,0.3425399959087372
6668.903367397924,1351345.0,0.01860000006854534,-0.004720000084489584,0.002859999891370535,0.34011998772621155
6668.904367170139,1351346.0,0.024529999122023582,-0.0008200000156648457,-0.001180000021122396,0.327349990606308
6668.905366942355,1351347.0,0.028929999098181725,-0.0002699999895412475,0.004129999782890081,0.3409000039100647
6668.90636671457,1351348.0,0.029020000249147415,0.005770000163465738,-0.0007300000288523734,0.33678001165390015
6668.907366486786,1351349.0,0.027310000732541084,0.003719999920576811,-0.0020000000949949026,0.3401600122451782
6668.908366259,1351350.0,0.02606000006198883,0.001449999981559813,0.0017300000181421638,0.33682000637054443
6668.9093660312155,1351351.0,0.024119999259710312,0.0037700000684708357,0.004129999782890081,0.33906999230384827
6668.910365803431,1351352.0,0.024480000138282776,-0.004410000052303076,-0.001180000021122396,0.3351700007915497
6668.911365575646,1351353.0,0.02622999995946884,-0.0015899999998509884,-0.0019099999917671084,0.3380599915981293
6668.912365347862,1351354.0,0.027130000293254852,0.002319999970495701,0.0015899999998509884,0.334989994764328
6668.913365120077,1351355.0,0.02191999927163124,0.0045900000259280205,-0.0024500000290572643,0.33722999691963196
6668.914364892292,1351356.0,0.01257999986410141,0.009720000438392162,-0.0028200000524520874,0.3323799967765808
6668.915364664507,1351357.0,0.0012600000482052565,0.005770000163465738,0.0008200000156648457,0.3386099934577942
6668.916364436723,1351358.0,-0.007639999967068434,0.0018599999602884054,-0.004449999891221523,0.3318299949169159
6668.917364208938,1351359.0,-0.012310000136494637,-0.00044999999227002263,-0.0002300000051036477,0.33169999718666077
6668.918363981154,1351360.0,-0.010780000127851963,-0.0013200000394135714,0.00031999999191612005,0.33421000838279724
6668.919363753368,1351361.0,-0.0047599999234080315,-0.005810000002384186,0.002630000002682209,0.3309600055217743
6668.9203635255835,1351362.0,0.003860000055283308,-0.0044999998062849045,-0.0013599999947473407,0.33101001381874084
6668.921363297799,1351363.0,0.013570000417530537,-0.005489999894052744,0.0010000000474974513,0.3284499943256378
6668.922363070014,1351364.0,0.025110000744462013,-0.00839999970048666,0.0012700000079348683,0.33246999979019165
6668.92336284223,1351365.0,0.03629999980330467,-0.001500000013038516,-0.0019099999917671084,0.3231399953365326
6668.924362614444,1351366.0,0.04106000065803528,0.0012700000079348683,-0.002630000002682209,0.3339399993419647
6668.92536238666,1351367.0,0.04114999994635582,-0.00041000000783242285,0.003590000094845891,0.3258399963378906
6668.926362158875,1351368.0,0.040070001035928726,0.00031999999191612005,0.004310000222176313,0.33028000593185425
6668.927361931091,1351369.0,0.03660999983549118,0.00031999999191612005,0.0031300000846385956,0.3258799910545349
6668.928361703306,1351370.0,0.03009999915957451,0.0010400000028312206,-0.005489999894052744,0.32368001341819763
6668.929361475521,1351371.0,0.02394000068306923,0.003220000071451068,-0.0007699999841861427,0.32679998874664307
6668.930361247736,1351372.0,0.02043999917805195,0.003949999809265137,0.002859999891370535,0.31718000769615173
6668.9313610199515,1351373.0,0.02043999917805195,0.00014000000373926014,-0.0016799999866634607,0.32798999547958374
6668.932360792167,1351374.0,0.0185100007802248,0.002090000081807375,0.0007300000288523734,0.32249000668525696
6668.933360564382,1351375.0,0.012760000303387642,0.0072200000286102295,-0.0013200000394135714,0.3196600079536438
6668.934360336598,1351376.0,0.0034099998883903027,0.0044999998062849045,0.0014100000262260437,0.32519999146461487
6668.935360108812,1351377.0,-0.0069599999114871025,0.004129999782890081,0.004410000052303076,0.3217200040817261
6668.936359881028,1351378.0,-0.015270000323653221,0.003220000071451068,-0.000910000002477318,0.3181900084018707
6668.937359653243,1351379.0,-0.02012999914586544,-0.000539999979082495,-0.003809999907389283,0.31264999508857727
6668.938359425459,1351380.0,-0.023360000923275948,0.000859999970998615,-0.0007300000288523734,0.31773000955581665
6668.939359197674,1351381.0,-0.021740000694990158,-0.007540000136941671,-0.0017300000181421638,0.32236000895500183
6668.940358969889,1351382.0,-0.016939999535679817,-0.0052200001664459705,0.0002300000051036477,0.3181000053882599
6668.941358742104,1351383.0,-0.00800000037997961,-0.008990000002086163,0.0021299999207258224,0.3149000108242035
6668.9423585143195,1351384.0,0.0008099999977275729,-0.0071299998089671135,0.002409999957308173,0.3081200122833252
6668.943358286535,1351385.0,0.010470000095665455,-0.0044999998062849045,0.0037700000684708357,0.3127000033855438
6668.94435805875,1351386.0,0.018060000613331795,0.0002699999895412475,-0.00018000000272877514,0.31755000352859497
6668.945357830966,1351387.0,0.020390000194311142,0.0021299999207258224,0.004220000002533197,0.31352001428604126
6668.94635760318,1351388.0,0.019269999116659164,0.0033599999733269215,0.00031999999191612005,0.30500999093055725
6668.947357375396,1351389.0,0.01671000011265278,0.001230000052601099,0.0010900000343099236,0.31512001156806946
6668.948357147611,1351390.0,0.012670000083744526,0.005630000028759241,-0.002589999930933118,0.30935999751091003
6668.949356919827,1351391.0,0.008630000054836273,0.003719999920576811,0.003220000071451068,0.30614998936653137
6668.950356692042,1351392.0,0.007860000245273113,0.004860000219196081,0.0014100000262260437,0.3127000033855438
6668.951356464257,1351393.0,0.008630000054836273,0.00031999999191612005,-0.001230000052601099,0.3086700141429901
6668.952356236472,1351394.0,0.009429999627172947,0.0021299999207258224,-0.004040000028908253,0.2987399995326996
6668.9533560086875,1351395.0,0.007009999826550484,0.007309999782592058,0.00031999999191612005,0.3096800148487091
6668.954355780903,1351396.0,0.0008999999845400453,0.008129999972879887,-0.0013200000394135714,0.30500999093055725
6668.955355553118,1351397.0,-0.007280000019818544,0.004089999943971634,0.0036299999337643385,0.29818999767303467
6668.956355325334,1351398.0,-0.013299999758601189,0.0002300000051036477,0.0014100000262260437,0.30643001198768616
6668.957355097548,1351399.0,-0.015629999339580536,0.003949999809265137,0.0007699999841861427,0.3000600039958954
6668.958354869764,1351400.0,-0.014469999819993973,-0.004999999888241291,-0.00041000000783242285,0.30469000339508057
6668.959354641979,1351401.0,-0.007590000052005053,-0.006579999811947346,-0.003949999809265137,0.28925999999046326
6668.960354414195,1351402.0,0.00279000005684793,-0.007309999782592058,-0.0008200000156648457,0.30285999178886414
6668.96135418641,1351403.0,0.013749999925494194,-0.0031300000846385956,0.001769999973475933,0.29475000500679016
6668.962353958625,1351404.0,0.023000000044703484,-0.006039999891072512,-0.000859999970998615,0.2991499900817871
6668.96335373084,1351405.0,0.03127000108361244,-0.006399999838322401,-0.002090000081807375,0.2937900125980377
6668.9643535030555,1351406.0,0.0393499992787838,0.0013200000394135714,0.0002300000051036477,0.2947100102901459
6668.965353275271,1351407.0,0.0451899990439415,0.004040000028908253,0.005770000163465738,0.29622000455856323
6668.966353047486,1351408.0,0.046720001846551895,0.0014100000262260437,0.0024999999441206455,0.28431999683380127
6668.967352819702,1351409.0,0.044610001146793365,0.0012700000079348683,0.00031999999191612005,0.29585000872612
6668.968352591916,1351410.0,0.042089998722076416,0.001769999973475933,0.00031999999191612005,0.2913700044155121
6668.969352364132,1351411.0,0.03925999999046326,0.0010400000028312206,0.0008200000156648457,0.2884399890899658
6668.970352136347,1351412.0,0.03849999979138374,0.0014100000262260437,-0.0014100000262260437,0.290910005569458
6668.971351908563,1351413.0,0.0413299985229969,0.0017300000181421638,-0.003590000094845891,0.2867000102996826
6668.972351680778,1351414.0,0.040789999067783356,-0.0002699999895412475,0.005179999861866236,0.287200003862381
6668.973351452993,1351415.0,0.034370001405477524,0.006130000110715628,0.004269999917596579,0.2874299883842468
6668.974351225208,1351416.0,0.02345000021159649,0.0052200001664459705,-0.0031300000846385956,0.2840000092983246
6668.975350997423,1351417.0,0.009519999846816063,0.006949999835342169,-0.0009500000160187483,0.2887600064277649
6668.976350769639,1351418.0,-0.0015300000086426735,0.004900000058114529,-0.004769999999552965,0.2720000147819519
6668.977350541854,1351419.0,-0.009879999794065952,-0.0018599999602884054,0.0010400000028312206,0.2864699959754944
6668.97835031407,1351420.0,-0.018549999222159386,-0.0008200000156648457,0.00031999999191612005,0.277539998292923
6668.979350086284,1351421.0,-0.022690000012516975,-0.005950000137090683,-0.004040000028908253,0.2837199866771698
6668.9803498585,1351422.0,-0.018689999356865883,-0.003860000055283308,-0.00494999997317791,0.2708599865436554
6668.981349630715,1351423.0,-0.009750000201165676,-0.00875999964773655,-0.002589999930933118,0.2823899984359741
6668.982349402931,1351424.0,0.0008999999845400453,-0.005489999894052744,0.00031999999191612005,0.26732999086380005
6668.983349175146,1351425.0,0.011459999717772007,-0.00203999993391335,0.0013599999947473407,0.2807900011539459
6668.984348947361,1351426.0,0.01909000054001808,0.00031999999191612005,-0.0007699999841861427,0.2649100124835968
6668.985348719576,1351427.0,0.0243500005453825,-0.0031799999997019768,-0.001230000052601099,0.2744300067424774
6668.986348491791,1351428.0,0.02928999997675419,0.00031999999191612005,0.00203999993391335,0.27553001046180725
6668.987348264007,1351429.0,0.032930001616477966,0.005950000137090683,0.003949999809265137,0.26399001479148865
6668.988348036222,1351430.0,0.03162999823689461,0.005040000192821026,0.0016799999866634607,0.26820001006126404
6668.989347808437,1351431.0,0.02273000031709671,0.0021299999207258224,-0.0007699999841861427,0.273470014333725
6668.990347580652,1351432.0,0.013299999758601189,0.00031999999191612005,-0.001180000021122396,0.2597399950027466
6668.991347352868,1351433.0,0.007369999773800373,0.0010000000474974513,0.003949999809265137,0.2714099884033203
6668.992347125083,1351434.0,0.0008099999977275729,0.007670000195503235,0.00267999991774559,0.2701700031757355
6668.993346897299,1351435.0,-0.009069999679923058,0.005400000140070915,0.0008200000156648457,0.26082998514175415
6668.994346669513,1351436.0,-0.018279999494552612,0.003949999809265137,-0.0016799999866634607,0.2697100043296814
6668.9953464417285,1351437.0,-0.026909999549388885,0.005810000002384186,0.0,0.26660001277923584
6668.996346213944,1351438.0,-0.03288000077009201,0.002859999891370535,0.0031799999997019768,0.2610599994659424
6668.997345986159,1351439.0,-0.03985000029206276,-0.0007699999841861427,-0.0037700000684708357,0.26787999272346497
6668.998345758375,1351440.0,-0.04447000101208687,0.00031999999191612005,-0.004860000219196081,0.2620199918746948
6668.99934553059,1351441.0,-0.041689999401569366,-0.006089999806135893,-0.00044999999227002263,0.2581300139427185
6669.000345302805,1351442.0,-0.03198999911546707,-0.007309999782592058,-0.000859999970998615,0.2652699947357178
6669.00134507502,1351443.0,-0.021560000255703926,-0.003539999946951866,-0.002950000111013651,0.2515000104904175
6669.002344847236,1351444.0,-0.01508999988436699,-0.004629999864846468,-0.0005000000237487257,0.26166000962257385
6669.003344619451,1351445.0,-0.00925000011920929,-0.0024999999441206455,0.0027699999045580626,0.2581300139427185
6669.004344391667,1351446.0,-0.0047599999234080315,0.00031999999191612005,0.0035000001080334187,0.2539199888706207
6669.005344163881,1351447.0,-0.0023399998899549246,0.00031999999191612005,-0.0011399999493733048,0.2601499855518341
6669.0063439360965,1351448.0,-0.0002699999895412475,-0.0002699999895412475,0.005900000222027302,0.24577000737190247
6669.007343708312,1351449.0,0.0031399999279528856,0.005539999809116125,-0.00041000000783242285,0.25602999329566956
6669.008343480527,1351450.0,0.006560000125318766,0.004089999943971634,-0.002090000081807375,0.25519999861717224
6669.009343252743,1351451.0,0.009340000338852406,-0.000590000010561198,-0.0011399999493733048,0.2500799894332886
6669.010343024958,1351452.0,0.011640000157058239,-0.001500000013038516,0.004769999999552965,0.25644001364707947
6669.011342797173,1351453.0,0.013159999623894691,0.004809999838471413,-4.999999873689376e-05,0.2413800060749054
6669.012342569388,1351454.0,0.012760000303387642,-0.000910000002477318,0.00031999999191612005,0.25044000148773193
6669.013342341604,1351455.0,0.007139999885112047,0.0036299999337643385,-0.000910000002477318,0.25227001309394836
6669.014342113819,1351456.0,-0.0007200000109151006,0.003220000071451068,0.0025400000158697367,0.2405499964952469
6669.015341886035,1351457.0,-0.008220000192523003,0.005179999861866236,-0.0016299999551847577,0.2470099925994873
6669.016341658249,1351458.0,-0.014150000177323818,0.0015899999998509884,-0.002589999930933118,0.2493399977684021
6669.0173414304645,1351459.0,-0.018239999189972878,-0.0006799999973736703,-0.003719999920576811,0.2405499964952469
6669.01834120268,1351460.0,-0.020080000162124634,-0.0003600000054575503,0.0021299999207258224,0.2504900097846985
6669.019340974895,1351461.0,-0.01720999926328659,-0.0072200000286102295,-0.00031999999191612005,0.23693999648094177
6669.020340747111,1351462.0,-0.010870000347495079,-0.0045900000259280205,-0.003860000055283308,0.2471500039100647
6669.021340519326,1351463.0,-0.004129999782890081,-0.007579999975860119,-0.0019099999917671084,0.24408000707626343
6669.022340291541,1351464.0,0.003229999914765358,-0.006490000057965517,0.0013200000394135714,0.23959000408649445
6669.023340063756,1351465.0,0.01348000019788742,-0.0051299999468028545,0.0011399999493733048,0.24591000378131866
6669.024339835972,1351466.0,0.020570000633597374,0.0018599999602884054,0.00014000000373926014,0.24178999662399292
6669.025339608187,1351467.0,0.023989999666810036,-0.0011399999493733048,-0.002589999930933118,0.2376299947500229
6669.0263393804025,1351468.0,0.024620000272989273,0.003949999809265137,-0.003449999960139394,0.2448599934577942
6669.027339152617,1351469.0,0.022190000861883163,0.0027699999045580626,0.003719999920576811,0.2405499964952469
6669.0283389248325,1351470.0,0.017389999702572823,0.00018000000272877514,-0.00041000000783242285,0.22951999306678772
6669.029338697048,1351471.0,0.011769999749958515,0.004860000219196081,0.001449999981559813,0.23543000221252441
6669.030338469263,1351472.0,0.007410000078380108,0.00203999993391335,0.003220000071451068,0.23813000321388245
6669.031338241479,1351473.0,0.004399999976158142,0.003220000071451068,0.0030900000128895044,0.2405499964952469
6669.032338013694,1351474.0,-9.000000136438757e-05,-0.0011399999493733048,0.0018599999602884054,0.2370299994945526
6669.033337785909,1351475.0,-0.009789999574422836,0.006130000110715628,0.0035000001080334187,0.2276500016450882
6669.034337558124,1351476.0,-0.022099999710917473,0.006130000110715628,0.004220000002533197,0.23015999794006348
6669.03533733034,1351477.0,-0.032519999891519547,0.003809999907389283,0.000910000002477318,0.23469999432563782
6669.036337102555,1351478.0,-0.038989998400211334,0.0016799999866634607,0.0022299999836832285,0.2380400002002716
6669.0373368747705,1351479.0,-0.04114999994635582,0.0019499999471008778,0.00031999999191612005,0.23578999936580658
6669.038336646985,1351480.0,-0.039170000702142715,0.0010400000028312206,-0.0011399999493733048,0.23305000364780426
6669.0393364192005,1351481.0,-0.03359999880194664,-0.0027199999894946814,-4.999999873689376e-05,0.2217400074005127
6669.040336191416,1351482.0,-0.02443999983370304,-0.003719999920576811,-0.0015399999683722854,0.23103000223636627
6669.041335963631,1351483.0,-0.012620000168681145,-0.007670000195503235,-0.004809999838471413,0.2305299937725067
6669.042335735847,1351484.0,-0.0013500000350177288,-0.006399999838322401,-0.0033599999733269215,0.22713999450206757
6669.043335508062,1351485.0,0.007369999773800373,-0.0044999998062849045,0.0,0.23035000264644623
6669.044335280277,1351486.0,0.012310000136494637,0.00031999999191612005,0.002589999930933118,0.22530999779701233
6669.045335052492,1351487.0,0.011590000241994858,-0.0009500000160187483,0.004540000110864639,0.22846999764442444
6669.046334824708,1351488.0,0.0101500004529953,0.002319999970495701,0.0006399999838322401,0.23080000281333923
6669.047334596923,1351489.0,0.007009999826550484,0.003220000071451068,0.0013200000394135714,0.22197000682353973
6669.0483343691385,1351490.0,0.004040000028908253,-0.0011399999493733048,-0.002950000111013651,0.22719000279903412
6669.049334141353,1351491.0,0.0011699999449774623,0.003220000071451068,-0.00571999978274107,0.22754999995231628
6669.0503339135685,1351492.0,-0.0011699999449774623,0.003220000071451068,0.004220000002533197,0.21895000338554382
6669.051333685784,1351493.0,-0.00044999999227002263,0.001180000021122396,0.0024999999441206455,0.22608999907970428
6669.052333457999,1351494.0,-0.0004900000058114529,0.0024999999441206455,-0.002090000081807375,0.22443999350070953
6669.053333230215,1351495.0,-0.006560000125318766,0.004629999864846468,9.000000136438757e-05,0.2137800008058548
6669.054333002429,1351496.0,-0.01779000088572502,0.0044999998062849045,0.004129999782890081,0.2249000072479248
6669.055332774645,1351497.0,-0.029559999704360962,0.008080000057816505,0.00031999999191612005,0.2215999960899353
6669.05633254686,1351498.0,-0.03773999959230423,0.003860000055283308,-0.0011399999493733048,0.22443999350070953
6669.057332319076,1351499.0,-0.03863000124692917,0.0018599999602884054,0.0029100000392645597,0.21235999464988708
6669.058332091291,1351500.0,-0.03629999980330467,-0.0033199999015778303,-0.0011399999493733048,0.22380000352859497
6669.059331863506,1351501.0,-0.0301900003105402,-0.00203999993391335,-0.003220000071451068,0.21533000469207764
6669.060331635721,1351502.0,-0.022549999877810478,-0.007860000245273113,0.0013599999947473407,0.2199999988079071
6669.061331407936,1351503.0,-0.01051000040024519,-0.007670000195503235,-0.001180000021122396,0.2199999988079071
6669.062331180152,1351504.0,0.0016199999954551458,-0.002859999891370535,-0.003809999907389283,0.2101600021123886
6669.063330952367,1351505.0,0.013120000250637531,-0.002589999930933118,-0.000590000010561198,0.22078000009059906
6669.064330724583,1351506.0,0.018869999796152115,0.00031999999191612005,0.003220000071451068,0.21381999552249908
6669.065330496797,1351507.0,0.021379999816417694,0.0015399999683722854,0.00014000000373926014,0.21807999908924103
6669.066330269013,1351508.0,0.02201000042259693,0.00031999999191612005,-4.999999873689376e-05,0.21381999552249908
6669.067330041228,1351509.0,0.021560000255703926,-0.0006399999838322401,0.00031999999191612005,0.21390999853610992
6669.068329813444,1351510.0,0.019500000402331352,0.003719999920576811,0.0016799999866634607,0.2171200066804886
6669.069329585659,1351511.0,0.018149999901652336,0.004310000222176313,0.0020000000949949026,0.20667999982833862
6669.070329357874,1351512.0,0.017249999567866325,-0.00041000000783242285,-0.000859999970998615,0.21762000024318695
6669.071329130089,1351513.0,0.01779000088572502,-0.00041000000783242285,-0.004269999917596579,0.20723000168800354
6669.072328902304,1351514.0,0.01640000008046627,0.0017300000181421638,0.0037700000684708357,0.21501000225543976
6669.07332867452,1351515.0,0.011140000075101852,0.010040000081062317,-0.0002699999895412475,0.20833000540733337
6669.074328446735,1351516.0,0.002959999954327941,0.005489999894052744,0.004679999779909849,0.21267999708652496
6669.075328218951,1351517.0,-0.006060000043362379,0.006130000110715628,-0.002090000081807375,0.20993000268936157
6669.076327991165,1351518.0,-0.01671000011265278,0.002319999970495701,-0.0045900000259280205,0.21080000698566437
6669.077327763381,1351519.0,-0.02937999926507473,-0.0011399999493733048,0.0031799999997019768,0.21126000583171844
6669.078327535596,1351520.0,-0.03711000084877014,-0.0020000000949949026,-0.0016799999866634607,0.20032000541687012
6669.079327307812,1351521.0,-0.03449999913573265,-0.004310000222176313,-0.0024999999441206455,0.21309000253677368
6669.080327080027,1351522.0,-0.027489999309182167,-0.005859999917447567,-0.004040000028908253,0.2029300034046173
6669.081326852242,1351523.0,-0.01761000044643879,-0.007720000110566616,0.003590000094845891,0.20934000611305237
6669.082326624457,1351524.0,-0.0053900000639259815,-0.003590000094845891,-0.0008200000156648457,0.20424999296665192
6669.083326396672,1351525.0,0.0052999998442828655,-0.0063599999994039536,-0.004040000028908253,0.20979000627994537
6669.084326168888,1351526.0,0.010830000042915344,0.0019499999471008778,-0.0006399999838322401,0.19916999340057373
6669.085325941103,1351527.0,0.011769999749958515,0.003860000055283308,0.005900000222027302,0.2054000049829483
6669.086325713319,1351528.0,0.008799999952316284,0.00267999991774559,-4.999999873689376e-05,0.19724999368190765
6669.087325485533,1351529.0,0.004490000195801258,-0.0021299999207258224,-0.001769999973475933,0.20833000540733337
6669.088325257749,1351530.0,0.0003100000030826777,0.0016299999551847577,-0.0009500000160187483,0.19954000413417816
6669.089325029964,1351531.0,-0.0020699999295175076,0.0016799999866634607,-0.0007300000288523734,0.20723000168800354
6669.09032480218,1351532.0,-0.0037700000684708357,0.0014100000262260437,9.000000136438757e-05,0.19742999970912933
6669.091324574395,1351533.0,-0.00610999995842576,-0.00041000000783242285,0.0025400000158697367,0.20740999281406403
6669.0923243466095,1351534.0,-0.009879999794065952,0.0,0.003949999809265137,0.19606000185012817
6669.093324118825,1351535.0,-0.017340000718832016,0.006630000192672014,0.003590000094845891,0.20663000643253326
6669.09432389104,1351536.0,-0.028389999642968178,0.006719999946653843,9.000000136438757e-05,0.19798000156879425
6669.095323663256,1351537.0,-0.038989998400211334,0.005950000137090683,0.00014000000373926014,0.20393000543117523
6669.096323435471,1351538.0,-0.04726000130176544,0.003539999946951866,-0.008949999697506428,0.19753000140190125
6669.097323207687,1351539.0,-0.05282999947667122,0.0037700000684708357,-0.00267999991774559,0.20232999324798584
6669.098322979901,1351540.0,-0.05610999837517738,-0.003269999986514449,0.003220000071451068,0.19794000685214996
6669.099322752117,1351541.0,-0.05121000111103058,-0.008899999782443047,-0.0002699999895412475,0.20045000314712524
6669.100322524332,1351542.0,-0.03863000124692917,-0.0030400000978261232,0.00018000000272877514,0.20100000500679016
6669.101322296548,1351543.0,-0.025520000606775284,-0.004809999838471413,-0.003909999970346689,0.19147999584674835
6669.102322068763,1351544.0,-0.01307000033557415,-0.00839999970048666,0.002409999957308173,0.2022400051355362
6669.1033218409775,1351545.0,-0.0008500000112690032,-0.002409999957308173,0.00031999999191612005,0.1933099925518036
6669.104321613193,1351546.0,0.008630000054836273,-0.0013200000394135714,0.0030400000978261232,0.20072999596595764
6669.105321385408,1351547.0,0.016620000824332237,0.0016799999866634607,0.000910000002477318,0.19437000155448914
6669.106321157624,1351548.0,0.02071000076830387,-0.00031999999191612005,-0.0022299999836832285,0.19916999340057373
6669.107320929839,1351549.0,0.02012999914586544,0.002589999930933118,0.00031999999191612005,0.19469000399112701
6669.108320702055,1351550.0,0.016039999201893806,-0.00031999999191612005,0.0013200000394135714,0.19578999280929565
6669.109320474269,1351551.0,0.011719999834895134,0.0037700000684708357,0.0025400000158697367,0.1980700045824051
6669.110320246485,1351552.0,0.009390000253915787,0.003220000071451068,-0.000590000010561198,0.18886999785900116
6669.1113200187,1351553.0,0.008940000087022781,0.00031999999191612005,9.000000136438757e-05,0.19939999282360077
6669.1123197909155,1351554.0,0.005750000011175871,-9.000000136438757e-05,0.00267999991774559,0.19216999411582947
6669.113319563131,1351555.0,-0.003949999809265137,0.005539999809116125,0.0015399999683722854,0.19652000069618225
6669.1143193353455,1351556.0,-0.015410000458359718,0.004679999779909849,-0.0027699999045580626,0.1956000030040741
6669.115319107561,1351557.0,-0.024620000272989273,0.006130000110715628,-0.0016299999551847577,0.18668000400066376
6669.116318879776,1351558.0,-0.030859999358654022,0.004720000084489584,-9.000000136438757e-05,0.19697999954223633
6669.117318651992,1351559.0,-0.03342000022530556,0.0035000001080334187,0.00031999999191612005,0.18915000557899475
6669.118318424207,1351560.0,-0.03215999901294708,-0.002589999930933118,-0.0016799999866634607,0.19710999727249146
6669.119318196422,1351561.0,-0.028209999203681946,-0.006089999806135893,-0.007400000002235174,0.19075000286102295
6669.120317968637,1351562.0,-0.019950000569224358,-0.004040000028908253,-0.0006399999838322401,0.1931300014257431
6669.121317740853,1351563.0,-0.00795000046491623,-0.0019099999917671084,0.0044999998062849045,0.19368000328540802
6669.122317513068,1351564.0,0.004579999949783087,-0.00798999983817339,-0.0008200000156648457,0.1912499964237213
6669.1233172852835,1351565.0,0.012889999896287918,-0.005489999894052744,0.0018599999602884054,0.19221000373363495
6669.124317057498,1351566.0,0.01761000044643879,0.0014100000262260437,-0.0021299999207258224,0.1848900020122528
6669.1253168297135,1351567.0,0.02043999917805195,0.001230000052601099,0.0016299999551847577,0.19537000358104706
6669.126316601929,1351568.0,0.02151999995112419,-0.0010000000474974513,0.00418000016361475,0.1876399964094162
6669.127316374144,1351569.0,0.018869999796152115,0.0024999999441206455,-0.0007699999841861427,0.1932699978351593
6669.12831614636,1351570.0,0.013299999758601189,0.0014100000262260437,0.0019499999471008778,0.18964999914169312
6669.129315918575,1351571.0,0.00872000027447939,0.002360000042244792,0.004089999943971634,0.1841599941253662
6669.13031569079,1351572.0,0.006829999852925539,0.0002699999895412475,-0.0031799999997019768,0.19221000373363495
6669.131315463005,1351573.0,0.007550000213086605,0.002409999957308173,0.0012700000079348683,0.19144000113010406
6669.132315235221,1351574.0,0.009429999627172947,0.003809999907389283,0.0016799999866634607,0.1859399974346161
6669.133315007436,1351575.0,0.005659999791532755,0.0027699999045580626,0.0010000000474974513,0.1905200034379959
6669.1343147796515,1351576.0,-0.0030499999411404133,0.009039999917149544,-0.003860000055283308,0.18877999484539032
6669.135314551866,1351577.0,-0.014019999653100967,0.007670000195503235,-0.0007699999841861427,0.1903800070285797
6669.1363143240815,1351578.0,-0.02515999972820282,0.0009500000160187483,0.0019499999471008778,0.18616999685764313
6669.137314096297,1351579.0,-0.03248000144958496,-0.00203999993391335,-0.0007699999841861427,0.19144000113010406
6669.138313868512,1351580.0,-0.035670001059770584,-0.0021800000686198473,0.003539999946951866,0.18251000344753265
6669.139313640728,1351581.0,-0.03413999825716019,-0.002589999930933118,0.0011399999493733048,0.19075000286102295
6669.140313412943,1351582.0,-0.02947000041604042,-0.008080000057816505,-0.001500000013038516,0.18727000057697296
6669.141313185158,1351583.0,-0.02525000087916851,-0.00913000013679266,-0.0012700000079348683,0.19075000286102295
6669.142312957373,1351584.0,-0.020840000361204147,-0.004769999999552965,-0.0029100000392645597,0.18137000501155853
6669.143312729589,1351585.0,-0.013700000010430813,0.0010400000028312206,-0.00041000000783242285,0.19202999770641327
6669.144312501804,1351586.0,-0.008489999920129776,-0.0006399999838322401,-0.001180000021122396,0.18411000072956085
6669.1453122740195,1351587.0,-0.00674000009894371,0.0027699999045580626,0.0007699999841861427,0.18782000243663788
6669.146312046234,1351588.0,-0.007319999858736992,0.003909999970346689,0.00031999999191612005,0.19144000113010406
6669.147311818449,1351589.0,-0.00803999975323677,0.0012700000079348683,-0.0030900000128895044,0.1833299994468689
6669.148311590665,1351590.0,-0.009700000286102295,0.004310000222176313,0.00031999999191612005,0.1873600035905838
6669.14931136288,1351591.0,-0.012260000221431255,-0.0002300000051036477,0.003220000071451068,0.19016000628471375
6669.150311135096,1351592.0,-0.015629999339580536,0.001769999973475933,0.0025400000158697367,0.1837500035762787
6669.151310907311,1351593.0,-0.017880000174045563,0.0016299999551847577,-0.002950000111013651,0.18671999871730804
6669.152310679526,1351594.0,-0.020309999585151672,0.0010000000474974513,-0.00014000000373926014,0.19016000628471375
6669.153310451741,1351595.0,-0.02686000056564808,0.005450000055134296,-0.0013200000394135714,0.18278999626636505
6669.154310223957,1351596.0,-0.03711000084877014,0.006680000107735395,-0.0016799999866634607,0.18694999814033508
6669.155309996172,1351597.0,-0.048700001090765,0.004000000189989805,-0.00044999999227002263,0.19016000628471375
6669.1563097683875,1351598.0,-0.06055999919772148,0.0031799999997019768,-0.0002699999895412475,0.18300999701023102
6669.157309540602,1351599.0,-0.0660799965262413,-0.002090000081807375,-0.002589999930933118,0.18625999987125397
6669.158309312817,1351600.0,-0.06586000323295593,0.0024500000290572643,0.00031999999191612005,0.1899300068616867
6669.159309085033,1351601.0,-0.05984000116586685,-0.005900000222027302,-0.0018599999602884054,0.18228000402450562
6669.160308857248,1351602.0,-0.04636000096797943,-0.0036800000816583633,0.0020000000949949026,0.1786700040102005
6669.161308629464,1351603.0,-0.032519999891519547,-0.005489999894052744,-0.0007300000288523734,0.18782000243663788
6669.162308401679,1351604.0,-0.02053000032901764,-0.0072200000286102295,-0.003590000094845891,0.1818699985742569
6669.163308173894,1351605.0,-0.009429999627172947,-0.0022700000554323196,0.001500000013038516,0.18525999784469604
6669.164307946109,1351606.0,-0.002520000096410513,-0.00041000000783242285,0.006039999891072512,0.1889200061559677
6669.165307718325,1351607.0,-0.001979999942705035,-0.0010900000343099236,-0.0007699999841861427,0.18145999312400818
6669.16630749054,1351608.0,-0.005570000037550926,0.002859999891370535,-9.000000136438757e-05,0.1848900020122528
6669.1673072627555,1351609.0,-0.011500000022351742,-0.0019099999917671084,0.0027699999045580626,0.18846000730991364
6669.16830703497,1351610.0,-0.015990000218153,0.005400000140070915,0.000859999970998615,0.18036000430583954
6669.169306807185,1351611.0,-0.01671000011265278,0.001230000052601099,0.0010400000028312206,0.18525999784469604
6669.170306579401,1351612.0,-0.015449999831616879,-0.0007699999841861427,0.0008200000156648457,0.18544000387191772
6669.171306351616,1351613.0,-0.015449999831616879,0.00031999999191612005,-0.000539999979082495,0.17789000272750854
6669.172306123832,1351614.0,-0.014639999717473984,0.002409999957308173,-0.0019099999917671084,0.18782000243663788
6669.173305896047,1351615.0,-0.017430000007152557,0.006579999811947346,0.002090000081807375,0.17971999943256378
6669.174305668262,1351616.0,-0.02507000043988228,0.00535999983549118,-0.0013200000394135714,0.18570999801158905
6669.175305440477,1351617.0,-0.03674999997019768,0.004129999782890081,-0.0015899999998509884,0.18365000188350677
6669.176305212693,1351618.0,-0.04627000167965889,0.00031999999191612005,-0.0002300000051036477,0.17757000029087067
6669.177304984908,1351619.0,-0.048700001090765,0.003719999920576811,0.0029100000392645597,0.18658000230789185
6669.178304757123,1351620.0,-0.046810001134872437,0.00031999999191612005,-0.002319999970495701,0.18076999485492706
6669.179304529338,1351621.0,-0.03880999982357025,-0.007040000054985285,-0.001230000052601099,0.18392999470233917
6669.180304301553,1351622.0,-0.027219999581575394,-0.004410000052303076,-0.004040000028908253,0.1848900020122528
6669.181304073769,1351623.0,-0.013570000417530537,-0.007309999782592058,0.0027199999894946814,0.17633000016212463
6669.182303845984,1351624.0,-0.00013000000035390258,-0.004720000084489584,0.001769999973475933,0.18671999871730804
6669.1833036182,1351625.0,0.01056000031530857,-0.000859999970998615,-0.0016799999866634607,0.17921000719070435
6669.184303390414,1351626.0,0.01841999962925911,-0.001449999981559813,0.0002300000051036477,0.18237000703811646
6669.18530316263,1351627.0,0.020840000361204147,0.0013599999947473407,-0.000539999979082495,0.18694999814033508
6669.186302934845,1351628.0,0.018239999189972878,0.003000000026077032,-0.002319999970495701,0.17861999571323395
6669.187302707061,1351629.0,0.014150000177323818,0.003000000026077032,0.0072200000286102295,0.18740999698638916
6669.188302479276,1351630.0,0.008630000054836273,0.0022299999836832285,0.003909999970346689,0.17642000317573547
6669.1893022514905,1351631.0,0.0016199999954551458,0.003220000071451068,0.0,0.1860799938440323
6669.190302023706,1351632.0,-0.005439999978989363,0.0010400000028312206,-0.0009500000160187483,0.17775000631809235
6669.191301795921,1351633.0,-0.006649999879300594,0.0031300000846385956,-0.000910000002477318,0.18622000515460968
6669.192301568137,1351634.0,-0.0053900000639259815,0.0017300000181421638,0.006130000110715628,0.1792600005865097
6669.193301340352,1351635.0,-0.007819999940693378,0.003809999907389283,-0.0022700000554323196,0.1761000007390976
6669.194301112568,1351636.0,-0.016979999840259552,0.004129999782890081,-0.0007300000288523734,0.18466000258922577
6669.195300884782,1351637.0,-0.02857000008225441,-0.0007699999841861427,4.999999873689376e-05,0.18378999829292297
6669.196300656998,1351638.0,-0.0370200015604496,0.001769999973475933,0.0029100000392645597,0.18323999643325806
6669.197300429213,1351639.0,-0.040070001035928726,0.00494999997317791,-0.0018599999602884054,0.18232999742031097
6669.1983002014285,1351640.0,-0.03880999982357025,-0.0031300000846385956,-0.004310000222176313,0.1745000034570694
6669.199299973644,1351641.0,-0.033240001648664474,-0.006949999835342169,-0.0010000000474974513,0.18553000688552856
6669.2002997458585,1351642.0,-0.02425999939441681,-0.005859999917447567,0.00031999999191612005,0.1783899962902069
6669.201299518074,1351643.0,-0.014329999685287476,-0.004040000028908253,-0.004900000058114529,0.18264999985694885
6669.202299290289,1351644.0,-0.004809999838471413,-0.005859999917447567,0.00031999999191612005,0.1842000037431717
6669.203299062505,1351645.0,0.003590000094845891,-0.001449999981559813,-0.0022299999836832285,0.1782499998807907
6669.20429883472,1351646.0,0.009390000253915787,-0.003539999946951866,-0.001769999973475933,0.18122999370098114
6669.205298606936,1351647.0,0.013700000010430813,0.0018599999602884054,0.004769999999552965,0.1856199949979782
6669.20629837915,1351648.0,0.015270000323653221,0.0035000001080334187,-9.000000136438757e-05,0.17821000516414642
6669.207298151366,1351649.0,0.01384000014513731,-0.0015899999998509884,-0.0011399999493733048,0.18283000588417053
6669.208297923581,1351650.0,0.010780000127851963,0.00494999997317791,-0.0006399999838322401,0.1802700012922287
6669.2092976957965,1351651.0,0.00646999990567565,0.005040000192821026,0.0017300000181421638,0.17554999887943268
6669.210297468012,1351652.0,0.006020000204443932,-0.000590000010561198,0.0014100000262260437,0.18512000143527985
6669.2112972402265,1351653.0,0.007189999800175428,0.003220000071451068,-0.003539999946951866,0.1775200068950653
6669.212297012442,1351654.0,0.008089999668300152,0.006130000110715628,0.002859999891370535,0.1836100071668625
6669.213296784657,1351655.0,0.004670000169426203,0.003949999809265137,0.0008200000156648457,0.1785700023174286
6669.214296556873,1351656.0,-0.00107999995816499,0.008990000002086163,-0.0013200000394135714,0.18045000731945038
6669.215296329088,1351657.0,-0.009429999627172947,0.005309999920427799,-0.0022299999836832285,0.18392999470233917
6669.216296101304,1351658.0,-0.0175199992954731,0.0024999999441206455,0.0012700000079348683,0.1761000007390976
6669.217295873518,1351659.0,-0.023669999092817307,-0.0009500000160187483,-0.0010000000474974513,0.18306000530719757
6669.218295645734,1351660.0,-0.024800000712275505,-0.004410000052303076,-9.000000136438757e-05,0.17591999471187592
6669.219295417949,1351661.0,-0.02133999951183796,-0.004040000028908253,-0.004629999864846468,0.18398000299930573
6669.2202951901645,1351662.0,-0.01631000079214573,-0.002950000111013651,-0.004040000028908253,0.17513999342918396
6669.22129496238,1351663.0,-0.006599999964237213,-0.007720000110566616,0.001769999973475933,0.1834300011396408
6669.2222947345945,1351664.0,0.0037700000684708357,-0.004220000002533197,0.00031999999191612005,0.1769700050354004
6669.22329450681,1351665.0,0.01348000019788742,-0.0033199999015778303,0.0024500000290572643,0.1818699985742569
6669.224294279025,1351666.0,0.01931999996304512,-0.003449999960139394,-0.002090000081807375,0.17564000189304352
6669.225294051241,1351667.0,0.023000000044703484,-0.0002300000051036477,-0.003000000026077032,0.1818699985742569
6669.226293823456,1351668.0,0.027130000293254852,0.004540000110864639,0.0044999998062849045,0.175369992852211
6669.227293595672,1351669.0,0.030460000038146973,0.001230000052601099,0.004999999888241291,0.18073000013828278
6669.228293367886,1351670.0,0.03260999917984009,0.0016799999866634607,0.000910000002477318,0.17757000029087067
6669.229293140102,1351671.0,0.034949999302625656,0.005950000137090683,-0.0019499999471008778,0.17106999456882477
6669.230292912317,1351672.0,0.035259999334812164,0.00018000000272877514,0.0024999999441206455,0.18091000616550446
6669.2312926845325,1351673.0,0.03378000110387802,-0.0007699999841861427,0.00031999999191612005,0.1742199957370758
6669.232292456748,1351674.0,0.03198999911546707,0.00267999991774559,0.002409999957308173,0.17990000545978546
6669.2332922289625,1351675.0,0.027580000460147858,0.006810000166296959,-0.0002699999895412475,0.17441000044345856
6669.234292001178,1351676.0,0.016349999234080315,0.00031999999191612005,0.0019099999917671084,0.17792999744415283
6669.235291773393,1351677.0,-0.0027000000700354576,0.004679999779909849,-0.000859999970998615,0.17990000545978546
6669.236291545609,1351678.0,-0.015990000218153,0.0036299999337643385,0.00031999999191612005,0.17020000517368317
6669.237291317824,1351679.0,-0.022099999710917473,0.0021800000686198473,0.004679999779909849,0.18059000372886658
6669.23829109004,1351680.0,-0.023360000923275948,-0.002950000111013651,-0.00041000000783242285,0.1713400036096573
6669.239290862254,1351681.0,-0.018279999494552612,-0.003809999907389283,-0.0031799999997019768,0.18050000071525574
6669.24029063447,1351682.0,-0.010060000233352184,-0.005859999917447567,-0.005489999894052744,0.1685899943113327
6669.241290406685,1351683.0,-0.001979999942705035,-0.005539999809116125,-0.004000000189989805,0.1761000007390976
6669.2422901789005,1351684.0,0.006560000125318766,-0.003449999960139394,-0.000590000010561198,0.1772499978542328
6669.243289951116,1351685.0,0.016620000824332237,-0.004129999782890081,0.003809999907389283,0.17151999473571777
6669.24428972333,1351686.0,0.023310000076889992,-0.00203999993391335,0.0027699999045580626,0.1759600043296814
6669.245289495546,1351687.0,0.025830000638961792,0.00031999999191612005,-0.00041000000783242285,0.17441000044345856
6669.246289267761,1351688.0,0.02425999939441681,0.00203999993391335,9.000000136438757e-05,0.16809000074863434
6669.247289039977,1351689.0,0.020080000162124634,0.001230000052601099,0.0022700000554323196,0.17844000458717346
6669.248288812192,1351690.0,0.010289999656379223,0.003449999960139394,0.0021299999207258224,0.17404000461101532
6669.249288584407,1351691.0,-0.0037700000684708357,0.005179999861866236,4.999999873689376e-05,0.1720699965953827
6669.250288356622,1351692.0,-0.01720999926328659,0.003220000071451068,-0.003539999946951866,0.1669899970293045
6669.251288128838,1351693.0,-0.02857000008225441,-0.0010900000343099236,-0.0033599999733269215,0.1769700050354004
6669.252287901053,1351694.0,-0.03849999979138374,0.003220000071451068,-0.0010900000343099236,0.16951000690460205
6669.2532876732685,1351695.0,-0.05192999914288521,0.0044999998062849045,-0.001230000052601099,0.17353999614715576
6669.254287445483,1351696.0,-0.06917999684810638,0.0020000000949949026,-0.0022700000554323196,0.17096999287605286
6669.255287217698,1351697.0,-0.08840999752283096,0.0031300000846385956,0.002859999891370535,0.17170999944210052
6669.256286989914,1351698.0,-0.10915999859571457,0.002859999891370535,0.0033599999733269215,0.17252999544143677
6669.257286762129,1351699.0,-0.12762999534606934,0.0002699999895412475,-0.001449999981559813,0.17143000662326813
6669.258286534345,1351700.0,-0.14343999326229095,0.0022700000554323196,-0.002950000111013651,0.16805000603199005
6669.25928630656,1351701.0,-0.1536400020122528,-0.007670000195503235,-0.0033199999015778303,0.1712000072002411
6669.260286078775,1351702.0,-0.15678000450134277,-0.008489999920129776,-0.004220000002533197,0.1664399951696396
6669.26128585099,1351703.0,-0.15418000519275665,-0.005090000107884407,-0.0008200000156648457,0.17151999473571777
6669.262285623206,1351704.0,-0.14699000120162964,-0.0018599999602884054,0.001769999973475933,0.16571000218391418
6669.263285395421,1351705.0,-0.13880999386310577,-0.0015399999683722854,0.0021299999207258224,0.1708800047636032
6669.264285167636,1351706.0,-0.1327899992465973,-0.0033599999733269215,0.0002300000051036477,0.1653899997472763
6669.265284939851,1351707.0,-0.130280002951622,-0.0019099999917671084,-0.003809999907389283,0.17010000348091125
6669.266284712066,1351708.0,-0.12812000513076782,0.006130000110715628,-0.0017300000181421638,0.16327999532222748
6669.267284484282,1351709.0,-0.1250700056552887,0.0045900000259280205,0.0013200000394135714,0.16864000260829926
6669.268284256497,1351710.0,-0.12120000272989273,0.006130000110715628,0.0021800000686198473,0.1668500006198883
6669.269284028713,1351711.0,-0.11396999657154083,0.004089999943971634,-0.001230000052601099,0.16095000505447388
6669.270283800928,1351712.0,-0.10530000180006027,0.0036299999337643385,0.004310000222176313,0.16809000074863434
6669.271283573143,1351713.0,-0.09612999856472015,0.0019499999471008778,0.001180000021122396,0.16327999532222748
6669.272283345358,1351714.0,-0.08462999761104584,0.00267999991774559,-0.00041000000783242285,0.1590300053358078
6669.273283117574,1351715.0,-0.07152000069618225,0.006130000110715628,-9.000000136438757e-05,0.16832000017166138
6669.274282889789,1351716.0,-0.059300001710653305,0.005400000140070915,0.004809999838471413,0.16405999660491943
6669.275282662004,1351717.0,-0.043710000813007355,0.004449999891221523,0.00014000000373926014,0.16017000377178192
6669.276282434219,1351718.0,-0.024080000817775726,0.0029100000392645597,-0.0013599999947473407,0.1652500033378601
6669.277282206434,1351719.0,0.001979999942705035,4.999999873689376e-05,0.005309999920427799,0.15825000405311584
6669.27828197865,1351720.0,0.03790999948978424,-0.00031999999191612005,0.0018599999602884054,0.16620999574661255
6669.279281750865,1351721.0,0.0806799978017807,-0.00203999993391335,-0.005489999894052744,0.1548600047826767
6669.280281523081,1351722.0,0.12110999971628189,-0.0045900000259280205,-0.0018599999602884054,0.16196000576019287
6669.281281295296,1351723.0,0.15692000091075897,-0.004769999999552965,0.005679999943822622,0.16255000233650208
6669.282281067511,1351724.0,0.18664999306201935,-0.004089999943971634,0.0008200000156648457,0.15595999360084534
6669.283280839726,1351725.0,0.2070000022649765,0.0009500000160187483,0.0011399999493733048,0.16282999515533447
6669.2842806119415,1351726.0,0.21526999771595,-0.0002699999895412475,0.0033599999733269215,0.1538500040769577
6669.285280384157,1351727.0,0.22255000472068787,0.0016299999551847577,0.003220000071451068,0.16181999444961548
6669.286280156372,1351728.0,0.23592999577522278,0.003220000071451068,-0.000539999979082495,0.15851999819278717
6669.287279928587,1351729.0,0.2619900107383728,0.00031999999191612005,-0.003220000071451068,0.1534000039100647
6669.288279700802,1351730.0,0.29280999302864075,0.004769999999552965,-0.00203999993391335,0.1607699990272522
6669.289279473018,1351731.0,0.3177799880504608,0.0019499999471008778,0.0008200000156648457,0.1511099934577942
6669.290279245233,1351732.0,0.3315800130367279,-0.0033599999733269215,-0.00203999993391335,0.15595999360084534
6669.291279017449,1351733.0,0.3408699929714203,-0.0016799999866634607,-0.0052200001664459705,0.15806999802589417
6669.292278789664,1351734.0,0.3460400104522705,0.0021299999207258224,-0.001449999981559813,0.14972999691963196
6669.293278561879,1351735.0,0.342849999666214,0.0021299999207258224,-0.001500000013038516,0.15435999631881714
6669.294278334094,1351736.0,0.32986998558044434,0.004269999917596579,0.003220000071451068,0.15581999719142914
6669.2952781063095,1351737.0,0.30619001388549805,0.0018599999602884054,-0.00267999991774559,0.15041999518871307
6669.296277878525,1351738.0,0.28525999188423157,-0.0002300000051036477,-0.004410000052303076,0.1564200073480606
6669.29727765074,1351739.0,0.2756499946117401,-0.0006799999973736703,0.00031999999191612005,0.14790000021457672
6669.298277422955,1351740.0,0.2729099988937378,-0.0037700000684708357,-0.002409999957308173,0.1560100018978119
6669.29927719517,1351741.0,0.2716900110244751,-0.004679999779909849,-0.0022299999836832285,0.15230000019073486
6669.300276967386,1351742.0,0.2712399959564209,-0.004999999888241291,-0.00203999993391335,0.14817999303340912
6669.301276739601,1351743.0,0.27573999762535095,-0.006949999835342169,-0.003220000071451068,0.1542699933052063
6669.302276511817,1351744.0,0.28786998987197876,-0.005590000189840794,-0.0003600000054575503,0.14470000565052032
6669.303276284032,1351745.0,0.2939800024032593,-0.0020000000949949026,-0.0015899999998509884,0.15001000463962555
6669.304276056247,1351746.0,0.28477001190185547,0.00014000000373926014,-0.004900000058114529,0.1507900059223175
6669.305275828462,1351747.0,0.26144999265670776,0.004220000002533197,0.0036299999337643385,0.14510999619960785
6669.3062756006775,1351748.0,0.23441000282764435,0.003220000071451068,0.002409999957308173,0.1518400013446808
6669.307275372893,1351749.0,0.21015000343322754,0.000910000002477318,-0.0005000000237487257,0.14203999936580658
6669.308275145108,1351750.0,0.18814000487327576,0.0011399999493733048,-0.0019099999917671084,0.14369000494480133
6669.309274917323,1351751.0,0.1644199937582016,0.003220000071451068,0.001769999973475933,0.15015000104904175
6669.310274689538,1351752.0,0.14253999292850494,0.006130000110715628,0.006130000110715628,0.1467600017786026
6669.311274461754,1351753.0,0.12128999829292297,0.0036299999337643385,0.0016799999866634607,0.1418199986219406
6669.312274233969,1351754.0,0.10102999955415726,0.005270000081509352,4.999999873689376e-05,0.14799000322818756
6669.313274006185,1351755.0,0.0786999985575676,0.006130000110715628,-0.002319999970495701,0.1393900066614151
6669.314273778399,1351756.0,0.054579999297857285,0.003220000071451068,0.0011399999493733048,0.14484000205993652
6669.315273550615,1351757.0,0.03206999972462654,0.0016799999866634607,-0.000859999970998615,0.14291000366210938
6669.31627332283,1351758.0,0.012670000083744526,0.0013599999947473407,-0.003220000071451068,0.14094999432563782
6669.3172730950455,1351759.0,-0.0028800000436604023,-0.0002300000051036477,-0.0033199999015778303,0.14461000263690948
6669.318272867261,1351760.0,-0.015589999966323376,0.00031999999191612005,0.0,0.13728000223636627
6669.3192726394755,1351761.0,-0.020840000361204147,-0.004269999917596579,0.0,0.14496999979019165
6669.320272411691,1351762.0,-0.017160000279545784,-0.0034099998883903027,0.0021299999207258224,0.13499000668525696
6669.321272183906,1351763.0,-0.006599999964237213,-0.005040000192821026,-0.003719999920576811,0.13741999864578247
6669.322271956122,1351764.0,0.004900000058114529,-0.003220000071451068,-0.003000000026077032,0.14094999432563782
6669.323271728337,1351765.0,0.015720000490546227,-0.003860000055283308,0.0028200000524520874,0.13454000651836395
6669.324271500553,1351766.0,0.02273000031709671,-0.0018599999602884054,0.001769999973475933,0.1418199986219406
6669.325271272767,1351767.0,0.025609999895095825,0.00018000000272877514,0.0009500000160187483,0.13572999835014343
6669.326271044983,1351768.0,0.024170000106096268,0.0027699999045580626,-0.0018599999602884054,0.13467000424861908
6669.327270817198,1351769.0,0.018689999356865883,0.006130000110715628,0.004679999779909849,0.1383800059556961
6669.3282705894135,1351770.0,0.01508999988436699,0.004679999779909849,0.00031999999191612005,0.13123999536037445
6669.329270361629,1351771.0,0.014019999653100967,-0.001230000052601099,-0.001820000004954636,0.1360500007867813
6669.330270133843,1351772.0,0.011459999717772007,-0.004269999917596579,-0.001230000052601099,0.13614000380039215
6669.331269906059,1351773.0,0.006829999852925539,-0.000859999970998615,-0.0022700000554323196,0.13064999878406525
6669.332269678274,1351774.0,0.0018899999558925629,0.0045900000259280205,0.0059899999760091305,0.1354999989271164
6669.33326945049,1351775.0,-0.006649999879300594,0.004679999779909849,0.0009500000160187483,0.13353000581264496
6669.334269222705,1351776.0,-0.01689000055193901,0.007269999943673611,0.0021299999207258224,0.12752999365329742
6669.335268994921,1351777.0,-0.027310000732541084,0.004129999782890081,-0.0009500000160187483,0.13431000709533691
6669.336268767135,1351778.0,-0.039889998733997345,0.001769999973475933,-0.0030900000128895044,0.13106000423431396
6669.337268539351,1351779.0,-0.04645000025629997,-0.0011399999493733048,0.0027699999045580626,0.12615999579429626
6669.338268311566,1351780.0,-0.048700001090765,-0.0034099998883903027,-0.002360000042244792,0.1320199966430664
6669.3392680837815,1351781.0,-0.04258999973535538,-0.003539999946951866,-0.002589999930933118,0.12447000294923782
6669.340267855997,1351782.0,-0.03172000125050545,-0.0051299999468028545,-0.004449999891221523,0.13224999606609344
6669.341267628211,1351783.0,-0.017249999567866325,-0.005630000028759241,0.003909999970346689,0.12304999679327011
6669.342267400427,1351784.0,-0.004040000028908253,-0.003949999809265137,0.00031999999191612005,0.12514999508857727
6669.343267172642,1351785.0,0.005969999823719263,-0.0027699999045580626,-0.003909999970346689,0.1288599967956543
6669.344266944858,1351786.0,0.009789999574422836,-9.000000136438757e-05,0.0011399999493733048,0.12185999751091003
6669.345266717073,1351787.0,0.011230000294744968,-0.00041000000783242285,0.0017300000181421638,0.12775999307632446
6669.346266489289,1351788.0,0.013120000250637531,-0.00041000000783242285,0.0027699999045580626,0.12592999637126923
6669.347266261503,1351789.0,0.011950000189244747,0.0030400000978261232,0.003220000071451068,0.12080000340938568
6669.348266033719,1351790.0,0.008270000107586384,0.001769999973475933,-0.0013599999947473407,0.1265300065279007
6669.349265805934,1351791.0,0.004310000222176313,0.0024999999441206455,-0.002589999930933118,0.11896999925374985
6669.350265578149,1351792.0,0.00215999991632998,0.0036299999337643385,0.003719999920576811,0.12621000409126282
6669.351265350365,1351793.0,-0.00107999995816499,0.0021299999207258224,-0.0027699999045580626,0.11677999794483185
6669.352265122579,1351794.0,-0.007319999858736992,0.0027199999894946814,-0.00044999999227002263,0.12387000024318695
6669.353264894795,1351795.0,-0.017969999462366104,0.0021800000686198473,-0.00018000000272877514,0.1214900016784668
6669.35426466701,1351796.0,-0.032340001314878464,0.0030900000128895044,0.004720000084489584,0.11548999696969986
6669.355264439226,1351797.0,-0.04608999937772751,0.005309999920427799,-0.0003600000054575503,0.12185999751091003
6669.356264211441,1351798.0,-0.056060001254081726,0.004129999782890081,-0.003809999907389283,0.11494000256061554
6669.357263983657,1351799.0,-0.06257999688386917,0.0027699999045580626,-0.002950000111013651,0.12157999724149704
6669.358263755871,1351800.0,-0.06459999829530716,0.003909999970346689,0.002859999891370535,0.11275000125169754
6669.359263528087,1351801.0,-0.06074000149965286,-0.004900000058114529,-0.002589999930933118,0.11677999794483185
6669.360263300302,1351802.0,-0.050269998610019684,-0.006899999920278788,-0.0033199999015778303,0.11110000312328339
6669.361263072517,1351803.0,-0.038270000368356705,-0.009580000303685665,-0.0006799999973736703,0.11750999838113785
6669.362262844733,1351804.0,-0.02686000056564808,-0.002950000111013651,0.0014100000262260437,0.11292999982833862
6669.363262616947,1351805.0,-0.014689999632537365,-0.006579999811947346,-0.0018599999602884054,0.10903999954462051
6669.364262389163,1351806.0,-0.004490000195801258,0.00014000000373926014,0.0044999998062849045,0.1139800027012825
6669.365262161378,1351807.0,0.0006300000241026282,-9.000000136438757e-05,0.00267999991774559,0.11535999923944473
6669.366261933594,1351808.0,0.0015300000086426735,-4.999999873689376e-05,-0.005489999894052744,0.1076200008392334
6669.367261705809,1351809.0,0.0016599999507889152,0.000910000002477318,0.003719999920576811,0.11110000312328339
6669.368261478025,1351810.0,0.0007200000109151006,0.00031999999191612005,0.0017300000181421638,0.1126599982380867
6669.369261250239,1351811.0,-0.002520000096410513,0.0027699999045580626,-0.0029100000392645597,0.10565000027418137
6669.3702610224545,1351812.0,-0.008270000107586384,-0.001180000021122396,-0.0006399999838322401,0.10853999853134155
6669.37126079467,1351813.0,-0.014290000312030315,-9.000000136438757e-05,0.001500000013038516,0.1092199981212616
6669.372260566885,1351814.0,-0.020800000056624413,0.004769999999552965,0.002859999891370535,0.10208000242710114
6669.373260339101,1351815.0,-0.03037000074982643,0.003590000094845891,-0.0027199999894946814,0.10204000025987625
6669.374260111315,1351816.0,-0.04383999854326248,0.0009500000160187483,-0.003000000026077032,0.10798999667167664
6669.375259883531,1351817.0,-0.05714000016450882,0.004129999782890081,-0.00044999999227002263,0.1043199971318245
6669.376259655746,1351818.0,-0.06774000078439713,0.00686000008136034,0.002630000002682209,0.09860000014305115
6669.377259427962,1351819.0,-0.07357999682426453,0.0024999999441206455,0.0006399999838322401,0.10281000286340714
6669.378259200177,1351820.0,-0.07304000109434128,-0.007040000054985285,0.002409999957308173,0.10373000055551529
6669.379258972392,1351821.0,-0.06676000356674194,-0.004540000110864639,-0.0024500000290572643,0.09645000100135803
6669.380258744607,1351822.0,-0.05623999983072281,-0.0037700000684708357,-0.003449999960139394,0.09554000198841095
6669.3812585168225,1351823.0,-0.04433999955654144,-0.004769999999552965,-0.0015899999998509884,0.10042999684810638
6669.382258289038,1351824.0,-0.030549999326467514,0.001230000052601099,0.0021800000686198473,0.09246999770402908
6669.383258061253,1351825.0,-0.01779000088572502,-0.0036800000816583633,0.004449999891221523,0.09993000328540802
6669.384257833468,1351826.0,-0.010780000127851963,-0.003719999920576811,-0.000590000010561198,0.09076999872922897
6669.385257605683,1351827.0,-0.00839999970048666,0.0021299999207258224,-0.0019099999917671084,0.09736999869346619
6669.386257377899,1351828.0,-0.009569999761879444,0.0021299999207258224,0.0017300000181421638,0.09407000243663788
6669.387257150114,1351829.0,-0.012040000408887863,0.002589999930933118,0.004129999782890081,0.08917000144720078
6669.38825692233,1351830.0,-0.016529999673366547,0.0014100000262260437,-0.0011399999493733048,0.09402000159025192
6669.389256694545,1351831.0,-0.01940999925136566,0.0064500002190470695,-0.0020000000949949026,0.0878399983048439
6669.39025646676,1351832.0,-0.019139999523758888,0.00031999999191612005,0.00031999999191612005,0.09319999814033508
6669.391256238975,1351833.0,-0.01711999997496605,-0.0010000000474974513,0.00267999991774559,0.08985999971628189
6669.3922560111905,1351834.0,-0.016440000385046005,-4.999999873689376e-05,-0.0011399999493733048,0.08500999957323074
6669.393255783406,1351835.0,-0.020080000162124634,0.002859999891370535,-0.0036800000816583633,0.08930999785661697
6669.394255555621,1351836.0,-0.026149999350309372,0.007180000189691782,-0.00203999993391335,0.08267000317573547
6669.395255327836,1351837.0,-0.034370001405477524,0.007670000195503235,0.0024500000290572643,0.08821000158786774
6669.396255100051,1351838.0,-0.04617999866604805,0.004679999779909849,0.0013200000394135714,0.08043000102043152
6669.397254872267,1351839.0,-0.05435999855399132,-0.00203999993391335,-0.006680000107735395,0.0856499969959259
6669.398254644482,1351840.0,-0.054579999297857285,-0.001180000021122396,-0.00031999999191612005,0.07863999903202057
6669.399254416698,1351841.0,-0.04735000059008598,-0.0045900000259280205,0.00031999999191612005,0.08070000261068344
6669.400254188913,1351842.0,-0.035760000348091125,-0.007770000025629997,-0.000910000002477318,0.0816200003027916
6669.401253961128,1351843.0,-0.02353999949991703,-0.00749000022187829,0.0013599999947473407,0.0782800018787384
6669.402253733343,1351844.0,-0.010420000180602074,-0.0035000001080334187,0.004129999782890081,0.08167000114917755
6669.4032535055585,1351845.0,0.0008099999977275729,-0.0015899999998509884,0.0021299999207258224,0.07466000318527222
6669.404253277774,1351846.0,0.00646999990567565,-0.00203999993391335,-0.0013599999947473407,0.07305999845266342
6669.405253049989,1351847.0,0.009429999627172947,0.0025400000158697367,-0.00418000016361475,0.07859999686479568
6669.406252822204,1351848.0,0.010379999876022339,0.0018599999602884054,0.005040000192821026,0.07150000333786011
6669.407252594419,1351849.0,0.008179999887943268,0.004679999779909849,0.0037700000684708357,0.07419999688863754
6669.408252366635,1351850.0,0.0052999998442828655,0.004410000052303076,0.00031999999191612005,0.07575999945402145
6669.40925213885,1351851.0,0.0030499999411404133,0.006130000110715628,-0.0033199999015778303,0.0693499967455864
6669.410251911066,1351852.0,0.002959999954327941,0.00031999999191612005,-0.004040000028908253,0.07502999901771545
6669.411251683281,1351853.0,0.005210000090301037,-0.0018599999602884054,-0.000859999970998615,0.07196000218391418
6669.412251455496,1351854.0,0.008179999887943268,-0.00041000000783242285,-0.0022299999836832285,0.065870001912117
6669.413251227711,1351855.0,0.007189999800175428,0.004269999917596579,0.0002300000051036477,0.0723700001835823
6669.4142509999265,1351856.0,0.0008999999845400453,0.005309999920427799,-0.0024500000290572643,0.07103999704122543
6669.415250772142,1351857.0,-0.010599999688565731,0.006089999806135893,-0.0006399999838322401,0.06413000077009201
6669.416250544357,1351858.0,-0.024569999426603317,0.0014100000262260437,0.00031999999191612005,0.06367000192403793
6669.417250316572,1351859.0,-0.036249998956918716,0.00031999999191612005,-0.0008200000156648457,0.06880000233650208
6669.418250088787,1351860.0,-0.04554999992251396,-0.004040000028908253,-9.000000136438757e-05,0.06165999919176102
6669.419249861003,1351861.0,-0.04433999955654144,-0.006039999891072512,-0.003860000055283308,0.06711000204086304
6669.420249633218,1351862.0,-0.036389999091625214,-0.006219999864697456,-0.0037700000684708357,0.06564000248908997
6669.421249405434,1351863.0,-0.0258799996227026,-0.003539999946951866,-0.004679999779909849,0.059459999203681946
6669.422249177649,1351864.0,-0.015990000218153,-0.006039999891072512,-0.0024500000290572643,0.06151999905705452
6669.423248949864,1351865.0,-0.004809999838471413,-0.00203999993391335,0.00031999999191612005,0.06225999817252159
6669.424248722079,1351866.0,0.0020200000144541264,0.0022299999836832285,0.001180000021122396,0.05891000106930733
6669.4252484942945,1351867.0,0.005799999926239252,0.0016799999866634607,0.00031999999191612005,0.0618400014936924
6669.42624826651,1351868.0,0.009159999899566174,0.0017300000181421638,0.0024999999441206455,0.05584999918937683
6669.427248038725,1351869.0,0.007910000160336494,-0.001500000013038516,-0.0016799999866634607,0.0603800006210804
6669.42824781094,1351870.0,0.007189999800175428,0.0002300000051036477,0.00031999999191612005,0.055980000644922256
6669.429247583155,1351871.0,0.007009999826550484,0.000859999970998615,-0.004220000002533197,0.05708000063896179
6669.430247355371,1351872.0,0.007369999773800373,0.00014000000373926014,0.0012700000079348683,0.05891000106930733
6669.431247127586,1351873.0,0.009929999709129333,-0.0002300000051036477,0.00031999999191612005,0.05012999847531319
6669.432246899802,1351874.0,0.007590000052005053,0.003949999809265137,-0.0036299999337643385,0.05525000020861626
6669.433246672017,1351875.0,-0.0018400000408291817,0.0037700000684708357,0.003000000026077032,0.05561999976634979
6669.434246444232,1351876.0,-0.016259999945759773,0.008129999972879887,0.00203999993391335,0.04902999848127365
6669.435246216447,1351877.0,-0.03162999823689461,0.006130000110715628,-0.0010400000028312206,0.05423999950289726
6669.436245988662,1351878.0,-0.04433999955654144,0.002859999891370535,-0.0034099998883903027,0.04828999936580658
6669.437245760878,1351879.0,-0.05076000094413757,0.0009500000160187483,-0.0011399999493733048,0.047200001776218414
6669.438245533093,1351880.0,-0.05660000070929527,-0.003539999946951866,-0.0021299999207258224,0.05218999832868576
6669.439245305308,1351881.0,-0.05511999875307083,-0.006579999811947346,-0.0009500000160187483,0.044769998639822006
6669.440245077523,1351882.0,-0.047439999878406525,-0.005489999894052744,0.0024999999441206455,0.049800001084804535
6669.441244849739,1351883.0,-0.0364300012588501,-0.008580000139772892,-0.0013599999947473407,0.044449999928474426
6669.442244621954,1351884.0,-0.0257399994879961,-0.0018599999602884054,-0.002589999930933118,0.04242999851703644
6669.44324439417,1351885.0,-0.01343000028282404,-0.0027699999045580626,0.0002699999895412475,0.04774000123143196
6669.444244166384,1351886.0,-0.004310000222176313,-0.0008200000156648457,0.00031999999191612005,0.04024000093340874
6669.4452439386,1351887.0,-0.0008999999845400453,0.00031999999191612005,-0.001500000013038516,0.04568000137805939
6669.446243710815,1351888.0,0.0009399999980814755,0.0030400000978261232,0.0011399999493733048,0.03821999952197075
6669.44724348303,1351889.0,0.0020200000144541264,-0.0017300000181421638,-0.002409999957308173,0.044130001217126846
6669.448243255246,1351890.0,-0.00018000000272877514,0.003220000071451068,0.0010000000474974513,0.03675999864935875
6669.44924302746,1351891.0,-0.003949999809265137,0.004679999779909849,0.003539999946951866,0.042249999940395355
6669.450242799676,1351892.0,-0.006200000178068876,0.0015899999998509884,0.0028200000524520874,0.03548000007867813
6669.451242571891,1351893.0,-0.006599999964237213,-4.999999873689376e-05,-0.002360000042244792,0.041110001504421234
6669.452242344107,1351894.0,-0.007639999967068434,0.00031999999191612005,-0.002589999930933118,0.03373999893665314
6669.453242116322,1351895.0,-0.014550000429153442,0.00749000022187829,-0.0011399999493733048,0.03863999992609024
6669.454241888538,1351896.0,-0.023089999333024025,0.00795000046491623,-0.0027199999894946814,0.03200000151991844
6669.455241660752,1351897.0,-0.029740000143647194,0.002409999957308173,0.0028200000524520874,0.037220001220703125
6669.4562414329675,1351898.0,-0.03522000089287758,0.00031999999191612005,-4.999999873689376e-05,0.030209999531507492
6669.457241205183,1351899.0,-0.04187000170350075,9.000000136438757e-05,0.0002300000051036477,0.02961999922990799
6669.458240977398,1351900.0,-0.04636000096797943,0.0014100000262260437,-0.006539999973028898,0.03441999852657318
6669.459240749614,1351901.0,-0.04244999960064888,-0.006130000110715628,0.0014100000262260437,0.02622999995946884
6669.460240521828,1351902.0,-0.030910000205039978,-0.00749000022187829,4.999999873689376e-05,0.030260000377893448
6669.461240294044,1351903.0,-0.015230000019073486,-0.005489999894052744,-0.00203999993391335,0.031860001385211945
6669.462240066259,1351904.0,-0.0008099999977275729,-0.004999999888241291,-0.004629999864846468,0.023760000243782997
6669.463239838475,1351905.0,0.011590000241994858,0.00031999999191612005,0.001769999973475933,0.028429999947547913
6669.46423961069,1351906.0,0.021609999239444733,-0.00031999999191612005,0.0024999999441206455,0.027240000665187836
6669.465239382906,1351907.0,0.02694999985396862,-4.999999873689376e-05,-0.00044999999227002263,0.021740000694990158
6669.46623915512,1351908.0,0.02848000079393387,0.00031999999191612005,-0.000590000010561198,0.027650000527501106
6669.4672389273355,1351909.0,0.02928999997675419,0.001820000004954636,0.002589999930933118,0.02068999968469143
6669.468238699551,1351910.0,0.02703999914228916,0.002319999970495701,0.0017300000181421638,0.024860000237822533
6669.469238471766,1351911.0,0.023310000076889992,-0.0018599999602884054,0.0002699999895412475,0.018859999254345894
6669.470238243982,1351912.0,0.018869999796152115,4.999999873689376e-05,-0.0006799999973736703,0.02027999982237816
6669.471238016196,1351913.0,0.01689000055193901,0.004310000222176313,-0.0015899999998509884,0.020099999383091927
6669.472237788412,1351914.0,0.014469999819993973,0.0028200000524520874,-0.0015399999683722854,0.016620000824332237
6669.473237560627,1351915.0,0.005929999984800816,0.005770000163465738,-0.003949999809265137,0.019269999116659164
6669.474237332843,1351916.0,-0.005659999791532755,0.007579999975860119,0.0013200000394135714,0.012590000405907631
6669.475237105058,1351917.0,-0.019950000569224358,0.00686000008136034,0.0015399999683722854,0.01858999952673912
6669.476236877274,1351918.0,-0.03319999948143959,0.0018599999602884054,0.00018000000272877514,0.011989999562501907
6669.477236649488,1351919.0,-0.04349000006914139,0.00031999999191612005,-0.000539999979082495,0.01671000011265278
6669.4782364217035,1351920.0,-0.046810001134872437,-0.005489999894052744,-0.0027699999045580626,0.010440000332891941
6669.479236193919,1351921.0,-0.04177999868988991,-0.007540000136941671,0.0022299999836832285,0.013869999907910824
6669.480235966134,1351922.0,-0.03319999948143959,-0.007579999975860119,-0.0013599999947473407,0.008510000072419643
6669.48123573835,1351923.0,-0.024979999288916588,-0.007400000002235174,-0.001180000021122396,0.008379999548196793
6669.482235510564,1351924.0,-0.01384000014513731,-0.004809999838471413,-0.004040000028908253,0.012040000408887863
6669.48323528278,1351925.0,-0.002520000096410513,-0.00041000000783242285,0.001769999973475933,0.006180000025779009
6669.484235054995,1351926.0,0.005619999952614307,-0.001180000021122396,0.002859999891370535,0.005309999920427799
6669.485234827211,1351927.0,0.00800000037997961,-0.0020000000949949026,0.004089999943971634,0.008829999715089798
6669.486234599426,1351928.0,0.007369999773800373,-0.0030400000978261232,-0.0027699999045580626,0.002520000096410513
6669.4872343716415,1351929.0,0.004629999864846468,0.001769999973475933,-0.002090000081807375,0.007600000128149986
6669.488234143856,1351930.0,0.0009899999713525176,0.00031999999191612005,0.0033199999015778303,0.00031999999191612005
6669.4892339160715,1351931.0,-0.0028800000436604023,0.0014100000262260437,0.0,0.006180000025779009
6669.490233688287,1351932.0,-0.00610999995842576,0.000910000002477318,-0.0022700000554323196,-0.0006399999838322401
6669.491233460502,1351933.0,-0.011409999802708626,9.000000136438757e-05,-0.001449999981559813,0.0017900000093504786
6669.492233232718,1351934.0,-0.016979999840259552,-0.000590000010561198,0.003909999970346689,-0.001829999964684248
6669.493233004932,1351935.0,-0.024800000712275505,0.0052200001664459705,-0.0002300000051036477,0.0017900000093504786
6669.494232777148,1351936.0,-0.03598000109195709,0.004089999943971634,0.005630000028759241,-0.00443999981507659
6669.495232549363,1351937.0,-0.050039999186992645,0.009039999917149544,0.0,0.00031999999191612005
6669.496232321579,1351938.0,-0.06100999936461449,0.003860000055283308,-0.002589999930933118,-0.006769999861717224
6669.497232093794,1351939.0,-0.06604000180959702,0.002859999891370535,0.003220000071451068,-0.001509999972768128
6669.4982318660095,1351940.0,-0.06499999761581421,0.0009500000160187483,-0.0008200000156648457,-0.008150000125169754
6669.499231638224,1351941.0,-0.05741000175476074,-0.004999999888241291,-0.003809999907389283,-0.0029800001066178083
6669.5002314104395,1351942.0,-0.048340000212192535,-0.005489999894052744,0.0035000001080334187,-0.010300000198185444
6669.501231182655,1351943.0,-0.03669999912381172,-0.005539999809116125,-0.0008200000156648457,-0.005539999809116125
6669.50223095487,1351944.0,-0.023719999939203262,-0.003860000055283308,-0.004999999888241291,-0.01140000019222498
6669.503230727086,1351945.0,-0.012760000303387642,-0.007400000002235174,-0.005309999920427799,-0.012040000408887863
6669.5042304993,1351946.0,-0.004720000084489584,-0.00041000000783242285,-0.0008200000156648457,-0.013000000268220901
6669.505230271516,1351947.0,9.000000136438757e-05,-0.0030400000978261232,0.004900000058114529,-0.009109999984502792
6669.506230043731,1351948.0,0.0007200000109151006,0.0030900000128895044,0.001769999973475933,-0.015930000692605972
6669.507229815947,1351949.0,-0.0014400000218302011,0.0022299999836832285,0.004269999917596579,-0.013919999822974205
6669.508229588162,1351950.0,-0.005030000116676092,0.00031999999191612005,0.00031999999191612005,-0.014240000396966934
6669.509229360377,1351951.0,-0.00925000011920929,0.004860000219196081,-0.0019499999471008778,-0.019780000671744347
6669.510229132592,1351952.0,-0.011099999770522118,0.004129999782890081,0.0002699999895412475,-0.015429999679327011
6669.5112289048075,1351953.0,-0.011950000189244747,0.003719999920576811,-0.0008200000156648457,-0.021649999544024467
6669.512228677023,1351954.0,-0.012040000408887863,0.003220000071451068,0.0021800000686198473,-0.01616000011563301
6669.513228449238,1351955.0,-0.020659999921917915,0.007579999975860119,0.0,-0.022019999101758003
6669.514228221453,1351956.0,-0.03449999913573265,0.0037700000684708357,-0.00044999999227002263,-0.021929999813437462
6669.515227993668,1351957.0,-0.04847000166773796,0.005040000192821026,-0.004449999891221523,-0.021059999242424965
6669.516227765884,1351958.0,-0.06015000119805336,0.002950000111013651,-0.001500000013038516,-0.026319999247789383
6669.517227538099,1351959.0,-0.06689000129699707,0.005040000192821026,0.0029100000392645597,-0.021290000528097153
6669.518227310315,1351960.0,-0.06869000196456909,-0.0036800000816583633,0.0008200000156648457,-0.027470000088214874
6669.51922708253,1351961.0,-0.06324999779462814,-0.008129999972879887,-0.004860000219196081,-0.024769999086856842
6669.520226854745,1351962.0,-0.052560001611709595,-0.003860000055283308,-0.0013200000394135714,-0.025679999962449074
6669.52122662696,1351963.0,-0.038359999656677246,-0.005630000028759241,-0.004089999943971634,-0.03130999952554703
6669.522226399175,1351964.0,-0.023000000044703484,-0.007079999893903732,-0.0022299999836832285,-0.02622999995946884
6669.523226171391,1351965.0,-0.010239999741315842,-0.0010400000028312206,0.0044999998062849045,-0.029430000111460686
6669.524225943606,1351966.0,-0.0035000001080334187,0.00031999999191612005,0.00267999991774559,-0.03432999923825264
6669.525225715821,1351967.0,-0.000539999979082495,-0.0016799999866634607,0.004629999864846468,-0.02979999966919422
6669.526225488036,1351968.0,0.0003100000030826777,0.00267999991774559,0.0012700000079348683,-0.03209000080823898
6669.527225260252,1351969.0,-0.0014400000218302011,0.007180000189691782,-0.0013599999947473407,-0.03629999980330467
6669.528225032467,1351970.0,-0.005210000090301037,0.00267999991774559,-0.001820000004954636,-0.0333699993789196
6669.529224804683,1351971.0,-0.007910000160336494,0.00031999999191612005,-0.0002699999895412475,-0.03519999980926514
6669.530224576898,1351972.0,-0.008089999668300152,0.0010400000028312206,-0.0009500000160187483,-0.04019000008702278
6669.531224349113,1351973.0,-0.009519999846816063,0.002589999930933118,0.0016799999866634607,-0.035429999232292175
6669.532224121328,1351974.0,-0.015720000490546227,0.004269999917596579,-4.999999873689376e-05,-0.041430000215768814
6669.533223893543,1351975.0,-0.02776000089943409,0.01104000024497509,0.0037700000684708357,-0.03734999895095825
6669.534223665759,1351976.0,-0.040699999779462814,0.004310000222176313,0.002859999891370535,-0.04253000020980835
6669.535223437974,1351977.0,-0.05390999838709831,0.004310000222176313,-0.0002300000051036477,-0.04284999892115593
6669.536223210189,1351978.0,-0.0662200003862381,0.003949999809265137,-0.002360000042244792,-0.041519999504089355
6669.537222982404,1351979.0,-0.07511000335216522,-0.0002699999895412475,0.002630000002682209,-0.04678000137209892
6669.53822275462,1351980.0,-0.07955999672412872,-0.0044999998062849045,-0.0022299999836832285,-0.042249999940395355
6669.539222526835,1351981.0,-0.07690999656915665,-0.004540000110864639,-0.0011399999493733048,-0.04732999950647354
6669.540222299051,1351982.0,-0.06774000078439713,-0.005489999894052744,-0.003269999986514449,-0.04839000105857849
6669.541222071266,1351983.0,-0.05722999945282936,-0.009850000031292439,0.000910000002477318,-0.045409999787807465
6669.542221843481,1351984.0,-0.04600000008940697,-0.002360000042244792,-0.001500000013038516,-0.051819998770952225
6669.543221615696,1351985.0,-0.03413999825716019,-0.002589999930933118,-0.0005000000237487257,-0.04741999879479408
6669.544221387911,1351986.0,-0.024620000272989273,-0.0016299999551847577,0.0031799999997019768,-0.05350999906659126
6669.545221160127,1351987.0,-0.019589999690651894,0.0022299999836832285,0.00031999999191612005,-0.04874999821186066
6669.546220932342,1351988.0,-0.017069999128580093,0.001769999973475933,-0.0008200000156648457,-0.05177000164985657
6669.547220704557,1351989.0,-0.016170000657439232,0.00031999999191612005,-0.0006399999838322401,-0.056299999356269836
6669.548220476772,1351990.0,-0.018780000507831573,-0.00018000000272877514,-0.0018599999602884054,-0.05167999863624573
6669.549220248988,1351991.0,-0.023900000378489494,0.0034099998883903027,0.005400000140070915,-0.058320000767707825
6669.550220021203,1351992.0,-0.026729999110102654,0.005040000192821026,0.001230000052601099,-0.05415000021457672
6669.551219793419,1351993.0,-0.026590000838041306,-0.004410000052303076,-0.0012700000079348683,-0.06015000119805336
6669.552219565634,1351994.0,-0.027310000732541084,0.003860000055283308,0.0015899999998509884,-0.057679999619722366
6669.5532193378485,1351995.0,-0.03468000143766403,0.004360000137239695,-0.0024500000290572643,-0.05716999992728233
6669.554219110064,1351996.0,-0.04636000096797943,0.004129999782890081,0.0018599999602884054,-0.0627100020647049
6669.555218882279,1351997.0,-0.0631600022315979,0.007079999893903732,0.0022299999836832285,-0.059369999915361404
6669.556218654495,1351998.0,-0.0763700008392334,0.005040000192821026,0.0015899999998509884,-0.06453999876976013
6669.55721842671,1351999.0,-0.08337999880313873,-0.0011399999493733048,-0.0025400000158697367,-0.06207000091671944
6669.558218198925,1352000.0,-0.08320000022649765,-0.000859999970998615,-0.0019499999471008778,-0.06372000277042389
6669.55921797114,1352001.0,-0.07817000150680542,-0.004629999864846468,0.0013200000394135714,-0.06638000160455704
6669.560217743356,1352002.0,-0.07152000069618225,-0.007770000025629997,-0.0021800000686198473,-0.06307999789714813
6669.561217515571,1352003.0,-0.06428000330924988,-0.005900000222027302,0.0,-0.06903000175952911
6669.562217287787,1352004.0,-0.05601999908685684,-0.004129999782890081,-0.001769999973475933,-0.06564000248908997
6669.563217060002,1352005.0,-0.045329999178647995,-0.004410000052303076,0.0021299999207258224,-0.07072000205516815
6669.5642168322165,1352006.0,-0.03558000177145004,-0.002589999930933118,0.0010900000343099236,-0.06734000146389008
6669.565216604432,1352007.0,-0.029600000008940697,0.0014100000262260437,0.0024999999441206455,-0.07300999760627747
6669.566216376647,1352008.0,-0.025340000167489052,0.004679999779909849,-0.0011399999493733048,-0.06999000161886215
6669.567216148863,1352009.0,-0.023399999365210533,-0.001180000021122396,-0.0027699999045580626,-0.07388000190258026
6669.568215921078,1352010.0,-0.022690000012516975,0.003000000026077032,0.0015899999998509884,-0.07292000204324722
6669.569215693293,1352011.0,-0.02201000042259693,0.002950000111013651,0.0020000000949949026,-0.07474999874830246
6669.570215465508,1352012.0,-0.02111000008881092,-0.0006399999838322401,-0.000910000002477318,-0.07489000260829926
6669.571215237724,1352013.0,-0.020840000361204147,0.0030400000978261232,-0.0007699999841861427,-0.07740999758243561
6669.572215009939,1352014.0,-0.022420000284910202,0.006399999838322401,-0.002950000111013651,-0.0765800029039383
6669.5732147821545,1352015.0,-0.02817000076174736,0.00494999997317791,0.003220000071451068,-0.08005999773740768
6669.574214554369,1352016.0,-0.03674999997019768,0.003949999809265137,0.00031999999191612005,-0.07648999989032745
6669.5752143265845,1352017.0,-0.046539999544620514,0.009039999917149544,-0.0006399999838322401,-0.08083999902009964
6669.5762140988,1352018.0,-0.05570000037550926,0.006039999891072512,-0.004040000028908253,-0.0831800028681755
6669.577213871015,1352019.0,-0.06298000365495682,0.00031999999191612005,-0.0036800000816583633,-0.0806099995970726
6669.578213643231,1352020.0,-0.06491000205278397,-0.004129999782890081,0.002090000081807375,-0.08129999786615372
6669.579213415446,1352021.0,-0.05984000116586685,-0.0027699999045580626,-0.0010000000474974513,-0.08556000143289566
6669.580213187661,1352022.0,-0.04967999830842018,-0.004449999891221523,-0.002589999930933118,-0.08243999630212784
6669.581212959876,1352023.0,-0.03558000177145004,-0.009449999779462814,-0.0002300000051036477,-0.0849199965596199
6669.582212732092,1352024.0,-0.01810000091791153,-0.00803999975323677,0.0030400000978261232,-0.08803000301122665
6669.583212504307,1352025.0,-0.0009899999713525176,-0.002630000002682209,0.0009500000160187483,-0.08528000116348267
6669.5842122765225,1352026.0,0.010599999688565731,-0.002589999930933118,-0.002589999930933118,-0.08925999701023102
6669.585212048737,1352027.0,0.014379999600350857,0.00031999999191612005,0.002409999957308173,-0.08702000230550766
6669.5862118209525,1352028.0,0.014689999632537365,0.004860000219196081,-0.00044999999227002263,-0.08904000371694565
6669.587211593168,1352029.0,0.01508999988436699,0.00418000016361475,-0.0016799999866634607,-0.093019999563694
6669.588211365383,1352030.0,0.01640000008046627,0.0024999999441206455,0.00203999993391335,-0.09160000085830688
6669.589211137599,1352031.0,0.016529999673366547,0.00031999999191612005,0.004000000189989805,-0.09068000316619873
6669.590210909813,1352032.0,0.016440000385046005,0.002589999930933118,0.0010400000028312206,-0.09365999698638916
6669.591210682029,1352033.0,0.01711999997496605,-0.0002300000051036477,-0.0045900000259280205,-0.09604000300168991
6669.592210454244,1352034.0,0.017160000279545784,0.0044999998062849045,-0.001230000052601099,-0.09516999870538712
6669.59321022646,1352035.0,0.012400000356137753,0.004679999779909849,-0.0031799999997019768,-0.09365999698638916
6669.594209998675,1352036.0,0.00215999991632998,0.0012700000079348683,0.00031999999191612005,-0.09635999798774719
6669.5952097708905,1352037.0,-0.01051000040024519,0.002360000042244792,0.002090000081807375,-0.09928999841213226
6669.596209543105,1352038.0,-0.018279999494552612,0.0044999998062849045,-0.0014100000262260437,-0.09933000057935715
6669.5972093153205,1352039.0,-0.023719999939203262,0.003909999970346689,-0.0044999998062849045,-0.09673000127077103
6669.598209087536,1352040.0,-0.02947000041604042,-0.00031999999191612005,-0.003539999946951866,-0.09984000027179718
6669.599208859751,1352041.0,-0.03099999949336052,-0.004720000084489584,0.003590000094845891,-0.10244999825954437
6669.600208631967,1352042.0,-0.024979999288916588,-0.005489999894052744,0.00018000000272877514,-0.0993800014257431
6669.601208404181,1352043.0,-0.011950000189244747,-0.006219999864697456,0.00031999999191612005,-0.10332000255584717
6669.602208176397,1352044.0,0.0025599999353289604,-0.008449999615550041,0.00018000000272877514,-0.10332000255584717
6669.603207948612,1352045.0,0.016620000824332237,-0.0019099999917671084,0.003220000071451068,-0.10363999754190445
6669.604207720828,1352046.0,0.026149999350309372,-0.0019099999917671084,4.999999873689376e-05,-0.1066100001335144
6669.605207493043,1352047.0,0.03109000064432621,-0.00041000000783242285,-0.0006399999838322401,-0.10367999970912933
6669.6062072652585,1352048.0,0.032519999891519547,0.005590000189840794,0.0022700000554323196,-0.10770999640226364
6669.607207037473,1352049.0,0.0301900003105402,0.002859999891370535,0.0016299999551847577,-0.10767000168561935
6669.608206809688,1352050.0,0.028209999203681946,0.0031300000846385956,0.001180000021122396,-0.1058799996972084
6669.609206581904,1352051.0,0.026410000398755074,0.00031999999191612005,0.004679999779909849,-0.10825999826192856
6669.610206354119,1352052.0,0.024080000817775726,-0.0006399999838322401,0.0014100000262260437,-0.11040999740362167
6669.611206126335,1352053.0,0.02201000042259693,-0.002319999970495701,0.0020000000949949026,-0.11128000169992447
6669.612205898549,1352054.0,0.0200399998575449,0.0016299999551847577,0.0007699999841861427,-0.10963000357151031
6669.613205670765,1352055.0,0.010599999688565731,0.005590000189840794,0.002360000042244792,-0.11072999984025955
6669.61420544298,1352056.0,-0.003229999914765358,0.007040000054985285,0.005630000028759241,-0.1125200018286705
6669.615205215196,1352057.0,-0.017430000007152557,0.005040000192821026,0.001500000013038516,-0.1143999993801117
6669.616204987411,1352058.0,-0.027000000700354576,0.0027699999045580626,0.00031999999191612005,-0.11503999680280685
6669.6172047596265,1352059.0,-0.03215999901294708,0.003220000071451068,0.00031999999191612005,-0.11320000141859055
6669.618204531841,1352060.0,-0.03413999825716019,-0.002630000002682209,-0.003539999946951866,-0.11452999711036682
6669.619204304056,1352061.0,-0.02928999997675419,-0.006219999864697456,-0.0030400000978261232,-0.11806000024080276
6669.620204076272,1352062.0,-0.018640000373125076,-0.00803999975323677,0.003909999970346689,-0.11540000140666962
6669.621203848487,1352063.0,-0.006829999852925539,-0.005489999894052744,0.00014000000373926014,-0.11768999695777893
6669.622203620703,1352064.0,0.0048500001430511475,-0.001230000052601099,-0.002090000081807375,-0.12056999653577805
6669.623203392917,1352065.0,0.01711999997496605,-0.003590000094845891,0.003949999809265137,-0.11768999695777893
6669.624203165133,1352066.0,0.02345000021159649,0.001230000052601099,0.003220000071451068,-0.12056999653577805
6669.625202937348,1352067.0,0.02694999985396862,-0.0011399999493733048,-0.000859999970998615,-0.120899997651577
6669.626202709564,1352068.0,0.030139999464154243,-0.00041000000783242285,0.0031799999997019768,-0.12204000353813171
6669.627202481779,1352069.0,0.03172000125050545,0.0022299999836832285,-4.999999873689376e-05,-0.12273000180721283
6669.6282022539945,1352070.0,0.02785000018775463,0.001500000013038516,-0.0007699999841861427,-0.123089998960495
6669.629202026209,1352071.0,0.021740000694990158,0.002409999957308173,-0.00014000000373926014,-0.1256600022315979
6669.630201798424,1352072.0,0.014469999819993973,-0.0006399999838322401,-0.0018599999602884054,-0.12354999780654907
6669.63120157064,1352073.0,0.006380000151693821,0.0010400000028312206,-0.0033599999733269215,-0.12647999823093414
6669.632201342855,1352074.0,0.0009399999980814755,-0.001230000052601099,0.0024999999441206455,-0.12529000639915466
6669.633201115071,1352075.0,-0.00803999975323677,0.004540000110864639,0.003000000026077032,-0.12601999938488007
6669.634200887285,1352076.0,-0.021199999377131462,0.006130000110715628,0.0019099999917671084,-0.12836000323295593
6669.635200659501,1352077.0,-0.03531000018119812,0.0045900000259280205,-0.0007699999841861427,-0.12767000496387482
6669.636200431716,1352078.0,-0.047029998153448105,0.003220000071451068,0.001230000052601099,-0.12804000079631805
6669.637200203932,1352079.0,-0.05225000157952309,0.001769999973475933,0.000859999970998615,-0.130280002951622
6669.638199976147,1352080.0,-0.05229000002145767,-0.0009500000160187483,-4.999999873689376e-05,-0.13005000352859497
6669.6391997483615,1352081.0,-0.046720001846551895,-0.002589999930933118,-0.0005000000237487257,-0.13097000122070312
6669.640199520577,1352082.0,-0.0354899987578392,-0.004769999999552965,-0.0016799999866634607,-0.13330000638961792
6669.641199292792,1352083.0,-0.021740000694990158,-0.00913000013679266,-0.003220000071451068,-0.13155999779701233
6669.642199065008,1352084.0,-0.00925000011920929,-0.00749000022187829,-0.0031300000846385956,-0.132750004529953
6669.643198837223,1352085.0,0.0021100000012665987,-0.004769999999552965,-0.0024500000290572643,-0.13467000424861908
6669.644198609439,1352086.0,0.010110000148415565,0.00267999991774559,0.002319999970495701,-0.1359100043773651
6669.645198381653,1352087.0,0.016349999234080315,-0.0030400000978261232,0.002950000111013651,-0.1354999989271164
6669.646198153869,1352088.0,0.020840000361204147,0.0027199999894946814,0.003719999920576811,-0.13504000008106232
6669.647197926084,1352089.0,0.02353999949991703,0.003590000094845891,0.0002300000051036477,-0.13700999319553375
6669.6481976983,1352090.0,0.02525000087916851,0.0035000001080334187,-0.001820000004954636,-0.13892999291419983
6669.649197470515,1352091.0,0.02483999915421009,0.0031300000846385956,0.00031999999191612005,-0.13732999563217163
6669.6501972427295,1352092.0,0.024709999561309814,0.0010400000028312206,0.0022299999836832285,-0.1383800059556961
6669.651197014945,1352093.0,0.02686000056564808,0.00203999993391335,-0.0016799999866634607,-0.14053000509738922
6669.65219678716,1352094.0,0.030009999871253967,0.00031999999191612005,-0.000910000002477318,-0.14071999490261078
6669.653196559376,1352095.0,0.0243500005453825,0.0071299998089671135,-0.0022700000554323196,-0.13956999778747559
6669.654196331591,1352096.0,0.011500000022351742,0.0033199999015778303,-0.0015399999683722854,-0.14116999506950378
6669.655196103806,1352097.0,-0.0022899999748915434,0.0045900000259280205,0.0033199999015778303,-0.1430100053548813
6669.656195876021,1352098.0,-0.012670000083744526,0.004220000002533197,0.004720000084489584,-0.14249999821186066
6669.657195648237,1352099.0,-0.017969999462366104,0.00031999999191612005,0.00031999999191612005,-0.14323000609874725
6669.658195420452,1352100.0,-0.01962999999523163,9.000000136438757e-05,-0.0033199999015778303,-0.14478999376296997
6669.6591951926675,1352101.0,-0.015629999339580536,-0.0036800000816583633,-0.002589999930933118,-0.14594000577926636
6669.660194964883,1352102.0,-0.005570000037550926,-0.006949999835342169,-0.004000000189989805,-0.14470000565052032
6669.6611947370975,1352103.0,0.005840000230818987,-0.0064500002190470695,-0.002090000081807375,-0.14461000263690948
6669.662194509313,1352104.0,0.01909000054001808,-0.005859999917447567,-0.00018000000272877514,-0.14625999331474304
6669.663194281528,1352105.0,0.032030001282691956,-0.004999999888241291,0.003590000094845891,-0.14740000665187836
6669.664194053744,1352106.0,0.04052000120282173,-0.001230000052601099,0.00031999999191612005,-0.14858999848365784
6669.665193825959,1352107.0,0.04383999854326248,0.00031999999191612005,0.001180000021122396,-0.14812999963760376
6669.666193598174,1352108.0,0.04349000006914139,0.001230000052601099,0.00031999999191612005,-0.14817999303340912
6669.667193370389,1352109.0,0.043129999190568924,0.001769999973475933,-0.0030400000978261232,-0.1505099982023239
6669.668193142605,1352110.0,0.04244999960064888,0.003220000071451068,-0.0015399999683722854,-0.150969997048378
6669.66919291482,1352111.0,0.04042999818921089,0.0027699999045580626,-9.000000136438757e-05,-0.15027999877929688
6669.6701926870355,1352112.0,0.035670001059770584,0.00031999999191612005,0.0025400000158697367,-0.14982999861240387
6669.671192459251,1352113.0,0.030729999765753746,-0.0016299999551847577,0.003220000071451068,-0.15157000720500946
6669.6721922314655,1352114.0,0.02622999995946884,0.0052200001664459705,0.003220000071451068,-0.15302999317646027
6669.673192003681,1352115.0,0.017559999600052834,0.008860000409185886,0.001230000052601099,-0.15157000720500946
6669.674191775896,1352116.0,0.0030499999411404133,0.005400000140070915,-0.002409999957308173,-0.15458999574184418
6669.675191548112,1352117.0,-0.014059999957680702,0.005309999920427799,-0.0009500000160187483,-0.1531199961900711
6669.676191320327,1352118.0,-0.027939999476075172,0.005309999920427799,-0.0002699999895412475,-0.1541299968957901
6669.677191092542,1352119.0,-0.03297000005841255,0.0014100000262260437,-0.0009500000160187483,-0.155689999461174
6669.678190864757,1352120.0,-0.03347000107169151,-0.00267999991774559,-0.0015899999998509884,-0.15463000535964966
6669.679190636973,1352121.0,-0.02947000041604042,-0.006089999806135893,-0.002409999957308173,-0.15591000020503998
6669.680190409188,1352122.0,-0.018780000507831573,-0.006539999973028898,-0.0033199999015778303,-0.1576099991798401
6669.6811901814035,1352123.0,-0.004310000222176313,-0.003860000055283308,-0.004410000052303076,-0.15861999988555908
6669.682189953619,1352124.0,0.013120000250637531,-0.006219999864697456,-0.0003600000054575503,-0.15737999975681305
6669.6831897258335,1352125.0,0.030050000175833702,-0.002589999930933118,0.003909999970346689,-0.15751999616622925
6669.684189498049,1352126.0,0.04276999831199646,-0.000910000002477318,0.003449999960139394,-0.1590300053358078
6669.685189270264,1352127.0,0.04617999866604805,0.0016799999866634607,-0.00044999999227002263,-0.16044999659061432
6669.68618904248,1352128.0,0.045729998499155045,0.0021299999207258224,0.00031999999191612005,-0.16118000447750092
6669.687188814695,1352129.0,0.04690000042319298,0.0030900000128895044,-0.0031300000846385956,-0.16080999374389648
6669.68818858691,1352130.0,0.045820001512765884,0.004679999779909849,-0.003860000055283308,-0.16067999601364136
6669.689188359125,1352131.0,0.04154999926686287,-9.000000136438757e-05,0.001180000021122396,-0.16154000163078308
6669.690188131341,1352132.0,0.038770001381635666,-0.0002699999895412475,0.0022299999836832285,-0.16255000233650208
6669.691187903556,1352133.0,0.03369000181555748,0.005679999943822622,0.0021299999207258224,-0.16373999416828156
6669.6921876757715,1352134.0,0.029069999232888222,-0.0006399999838322401,0.0014100000262260437,-0.16373999416828156
6669.693187447987,1352135.0,0.02281999960541725,0.006130000110715628,0.002859999891370535,-0.16373999416828156
6669.6941872202015,1352136.0,0.011769999749958515,0.0071299998089671135,-0.00041000000783242285,-0.16443000733852386
6669.695186992417,1352137.0,-0.0034099998883903027,0.006039999891072512,-0.0012700000079348683,-0.16594000160694122
6669.696186764632,1352138.0,-0.017340000718832016,0.0024999999441206455,-0.0033599999733269215,-0.16689999401569366
6669.697186536848,1352139.0,-0.024800000712275505,0.00031999999191612005,-0.0015399999683722854,-0.16571000218391418
6669.698186309063,1352140.0,-0.024890000000596046,0.0010400000028312206,0.001769999973475933,-0.1668500006198883
6669.699186081278,1352141.0,-0.02022000029683113,-0.0027699999045580626,-0.0003600000054575503,-0.16832000017166138
6669.700185853493,1352142.0,-0.011140000075101852,-0.005900000222027302,-0.003539999946951866,-0.1678600013256073
6669.701185625709,1352143.0,0.0012600000482052565,-0.005630000028759241,-0.0018599999602884054,-0.16919000446796417
6669.702185397924,1352144.0,0.011989999562501907,-0.005489999894052744,0.003220000071451068,-0.1695999950170517
6669.7031851701395,1352145.0,0.02201000042259693,-0.002589999930933118,0.0016799999866634607,-0.16904999315738678
6669.704184942354,1352146.0,0.027629999443888664,-0.0025400000158697367,-0.001230000052601099,-0.17106999456882477
6669.705184714569,1352147.0,0.03189999982714653,0.0021299999207258224,-0.0010000000474974513,-0.1720300018787384
6669.706184486785,1352148.0,0.03468000143766403,0.0024999999441206455,0.00031999999191612005,-0.17125000059604645
6669.707184259,1352149.0,0.037060000002384186,0.0024999999441206455,0.005539999809116125,-0.17180000245571136
6669.708184031216,1352150.0,0.03832000121474266,0.0027699999045580626,0.0019099999917671084,-0.17313000559806824
6669.709183803431,1352151.0,0.03872000053524971,0.004310000222176313,0.0019499999471008778,-0.17385999858379364
6669.710183575646,1352152.0,0.04047999903559685,0.0010900000343099236,-0.004040000028908253,-0.17326000332832336
6669.711183347861,1352153.0,0.04114999994635582,0.0016799999866634607,-0.0013200000394135714,-0.1745000034570694
6669.712183120077,1352154.0,0.037689998745918274,0.003220000071451068,-0.0011399999493733048,-0.17587000131607056
6669.713182892292,1352155.0,0.0282600000500679,0.005179999861866236,-0.0016299999551847577,-0.1767899990081787
6669.7141826645075,1352156.0,0.01779000088572502,0.003220000071451068,0.004809999838471413,-0.17545999586582184
6669.715182436722,1352157.0,0.005969999823719263,0.005770000163465738,0.0002699999895412475,-0.17701999843120575
6669.716182208937,1352158.0,-0.006289999932050705,0.00267999991774559,0.00031999999191612005,-0.17746999859809875
6669.717181981153,1352159.0,-0.012760000303387642,9.000000136438757e-05,-0.001230000052601099,-0.17876000702381134
6669.718181753368,1352160.0,-0.0147299999371171,0.002859999891370535,-0.001769999973475933,-0.17812000215053558
6669.719181525584,1352161.0,-0.010599999688565731,-0.005539999809116125,-0.0051299999468028545,-0.17971999943256378
6669.720181297798,1352162.0,-0.003010000102221966,-0.009399999864399433,-0.002950000111013651,-0.18091000616550446
6669.721181070014,1352163.0,0.005210000090301037,-0.006310000084340572,-0.0062699997797608376,-0.18137000501155853
6669.722180842229,1352164.0,0.014999999664723873,-0.005489999894052744,-0.005179999861866236,-0.18095000088214874
6669.723180614445,1352165.0,0.02606000006198883,-0.005090000107884407,-0.0002699999895412475,-0.18131999671459198
6669.72418038666,1352166.0,0.03513000160455704,0.00031999999191612005,-0.002589999930933118,-0.18278999626636505
6669.725180158875,1352167.0,0.038989998400211334,0.0018599999602884054,-0.001180000021122396,-0.1837500035762787
6669.72617993109,1352168.0,0.04056999832391739,0.004089999943971634,-0.0037700000684708357,-0.1837500035762787
6669.727179703305,1352169.0,0.04123999923467636,0.00031999999191612005,-0.0018599999602884054,-0.18365000188350677
6669.728179475521,1352170.0,0.039889998733997345,0.004769999999552965,-0.002589999930933118,-0.18483999371528625
6669.729179247736,1352171.0,0.03711000084877014,0.0028200000524520874,-0.00031999999191612005,-0.18570999801158905
6669.730179019952,1352172.0,0.03413999825716019,0.00031999999191612005,0.002319999970495701,-0.1859000027179718
6669.731178792166,1352173.0,0.03181000053882599,0.0012700000079348683,0.00031999999191612005,-0.18625999987125397
6669.732178564382,1352174.0,0.030009999871253967,0.003949999809265137,-9.000000136438757e-05,-0.18668000400066376
6669.733178336597,1352175.0,0.02305000089108944,0.002090000081807375,0.0022299999836832285,-0.18754999339580536
6669.734178108813,1352176.0,0.008449999615550041,0.0028200000524520874,-0.0005000000237487257,-0.18869000673294067
6669.735177881028,1352177.0,-0.007819999940693378,0.007360000163316727,0.0002699999895412475,-0.18919000029563904
6669.736177653243,1352178.0,-0.018959999084472656,0.004220000002533197,-0.003860000055283308,-0.18900999426841736
6669.737177425458,1352179.0,-0.02363000065088272,-0.0013599999947473407,-0.0016299999551847577,-0.18951000273227692
6669.738177197673,1352180.0,-0.022910000756382942,-0.0009500000160187483,-0.0045900000259280205,-0.1906599998474121
6669.739176969889,1352181.0,-0.012350000441074371,-0.0033199999015778303,0.0014100000262260437,-0.1912499964237213
6669.740176742104,1352182.0,0.0021100000012665987,-0.0051299999468028545,-0.0002300000051036477,-0.19162000715732574
6669.74117651432,1352183.0,0.012799999676644802,-0.006130000110715628,0.001769999973475933,-0.1915699988603592
6669.742176286534,1352184.0,0.01882000081241131,-0.004360000137239695,0.003449999960139394,-0.19202999770641327
6669.74317605875,1352185.0,0.025609999895095825,-0.0051299999468028545,0.0045900000259280205,-0.19231000542640686
6669.744175830965,1352186.0,0.030549999326467514,-0.0017300000181421638,0.0019499999471008778,-0.19280999898910522
6669.7451756031805,1352187.0,0.032519999891519547,-0.002090000081807375,0.0014100000262260437,-0.19362999498844147
6669.746175375396,1352188.0,0.032930001616477966,-0.000590000010561198,-0.0010400000028312206,-0.19431999325752258
6669.747175147611,1352189.0,0.031849998980760574,-0.0005000000237487257,0.00031999999191612005,-0.1948699951171875
6669.748174919826,1352190.0,0.02947000041604042,0.0030900000128895044,0.00031999999191612005,-0.1957399994134903
6669.749174692041,1352191.0,0.0258799996227026,0.001769999973475933,0.00031999999191612005,-0.19684000313282013
6669.750174464257,1352192.0,0.02111000008881092,0.006310000084340572,0.00031999999191612005,-0.19670000672340393
6669.751174236472,1352193.0,0.017069999128580093,0.00014000000373926014,-0.001500000013038516,-0.19707000255584717
6669.752174008688,1352194.0,0.013159999623894691,0.001230000052601099,-0.002950000111013651,-0.19811999797821045
6669.753173780902,1352195.0,0.004939999897032976,0.006130000110715628,0.0010000000474974513,-0.19771000742912292
6669.754173553118,1352196.0,-0.008539999835193157,0.007040000054985285,0.003590000094845891,-0.1982100009918213
6669.755173325333,1352197.0,-0.02314000017940998,0.003220000071451068,0.0024999999441206455,-0.1988999992609024
6669.7561730975485,1352198.0,-0.03449999913573265,-0.0016799999866634607,-0.0010400000028312206,-0.19939999282360077
6669.757172869764,1352199.0,-0.040789999067783356,0.00031999999191612005,-0.003539999946951866,-0.2003600001335144
6669.758172641979,1352200.0,-0.041510000824928284,-0.000859999970998615,-0.006579999811947346,-0.20009000599384308
6669.759172414194,1352201.0,-0.036660000681877136,-0.006680000107735395,-0.0010000000474974513,-0.20127999782562256
6669.760172186409,1352202.0,-0.0301900003105402,-0.004999999888241291,0.0013200000394135714,-0.20055000483989716
6669.761171958625,1352203.0,-0.02012999914586544,-0.006039999891072512,-0.000859999970998615,-0.20205999910831451
6669.76217173084,1352204.0,-0.007639999967068434,-0.0033199999015778303,-0.001500000013038516,-0.20132000744342804
6669.763171503056,1352205.0,0.007590000052005053,-0.0045900000259280205,-0.0005000000237487257,-0.20284000039100647
6669.76417127527,1352206.0,0.01841999962925911,-0.001500000013038516,0.003449999960139394,-0.20218999683856964
6669.765171047486,1352207.0,0.02515999972820282,0.0007300000288523734,0.002589999930933118,-0.2032500058412552
6669.766170819701,1352208.0,0.028030000627040863,0.003000000026077032,-0.0019499999471008778,-0.2032500058412552
6669.7671705919165,1352209.0,0.028750000521540642,0.0025400000158697367,-0.003539999946951866,-0.20443999767303467
6669.768170364132,1352210.0,0.026319999247789383,0.005309999920427799,0.006089999806135893,-0.20403000712394714
6669.7691701363465,1352211.0,0.020659999921917915,0.004679999779909849,-0.0021800000686198473,-0.20476000010967255
6669.770169908562,1352212.0,0.016259999945759773,-0.0002699999895412475,-0.000539999979082495,-0.2054399996995926
6669.771169680777,1352213.0,0.014910000376403332,-0.0002699999895412475,-0.002630000002682209,-0.20531000196933746
6669.772169452993,1352214.0,0.014379999600350857,0.003719999920576811,0.0028200000524520874,-0.20580999553203583
6669.773169225208,1352215.0,0.009340000338852406,0.0052200001664459705,0.002589999930933118,-0.20586000382900238
6669.774168997424,1352216.0,0.0012600000482052565,0.001820000004954636,-9.000000136438757e-05,-0.20618000626564026
6669.775168769638,1352217.0,-0.011640000157058239,0.007309999782592058,0.0002300000051036477,-0.20732000470161438
6669.776168541854,1352218.0,-0.024210000410676003,0.005770000163465738,-0.0016799999866634607,-0.20681999623775482
6669.777168314069,1352219.0,-0.029109999537467957,0.0024500000290572643,-0.0016799999866634607,-0.20769000053405762
6669.7781680862845,1352220.0,-0.029559999704360962,-0.0037700000684708357,-0.002589999930933118,-0.2078700065612793
6669.7791678585,1352221.0,-0.02515999972820282,-0.002319999970495701,-0.0021800000686198473,-0.20824000239372253
6669.7801676307145,1352222.0,-0.016259999945759773,-0.0051299999468028545,-0.005489999894052744,-0.2088800072669983
6669.78116740293,1352223.0,-0.007139999885112047,-0.0045900000259280205,0.002589999930933118,-0.20864999294281006
6669.782167175145,1352224.0,0.0034099998883903027,-0.005489999894052744,0.0027699999045580626,-0.20879000425338745
6669.783166947361,1352225.0,0.014469999819993973,-0.002589999930933118,-0.0019099999917671084,-0.20915000140666962
6669.784166719576,1352226.0,0.0218299999833107,-0.001230000052601099,0.0,-0.2106200009584427
6669.785166491791,1352227.0,0.024660000577569008,-0.000539999979082495,-0.001449999981559813,-0.21010999381542206
6669.786166264006,1352228.0,0.024979999288916588,0.00494999997317791,-0.0016799999866634607,-0.2106200009584427
6669.787166036222,1352229.0,0.023269999772310257,-0.001180000021122396,0.000910000002477318,-0.21071000397205353
6669.788165808437,1352230.0,0.019500000402331352,0.0015399999683722854,0.002589999930933118,-0.21094000339508057
6669.7891655806525,1352231.0,0.014910000376403332,0.001230000052601099,0.00031999999191612005,-0.21172000467777252
6669.790165352868,1352232.0,0.013209999538958073,0.0014100000262260437,0.00031999999191612005,-0.21149000525474548
6669.791165125082,1352233.0,0.013389999978244305,0.0021800000686198473,-0.0017300000181421638,-0.2128099948167801
6669.792164897298,1352234.0,0.012439999729394913,-9.000000136438757e-05,0.0002699999895412475,-0.21231000125408173
6669.793164669513,1352235.0,0.004490000195801258,0.005770000163465738,0.001769999973475933,-0.21244999766349792
6669.794164441729,1352236.0,-0.007319999858736992,0.005539999809116125,0.0010000000474974513,-0.21254000067710876
6669.795164213944,1352237.0,-0.0218299999833107,0.006680000107735395,0.0016799999866634607,-0.21355000138282776
6669.796163986159,1352238.0,-0.03342000022530556,0.002859999891370535,-0.0031300000846385956,-0.21367999911308289
6669.797163758374,1352239.0,-0.03957999870181084,-0.00014000000373926014,-0.004129999782890081,-0.21400000154972076
6669.79816353059,1352240.0,-0.041099999099969864,-0.0011399999493733048,-0.003539999946951866,-0.21419000625610352
6669.799163302805,1352241.0,-0.039889998733997345,-0.0031300000846385956,0.0008200000156648457,-0.214369997382164
6669.8001630750205,1352242.0,-0.033240001648664474,-0.005270000081509352,0.0010900000343099236,-0.21468999981880188
6669.801162847236,1352243.0,-0.02191999927163124,-0.007040000054985285,-0.002859999891370535,-0.215379998087883
6669.80216261945,1352244.0,-0.009700000286102295,-0.007309999782592058,-0.0011399999493733048,-0.21583999693393707
6669.803162391666,1352245.0,0.0027000000700354576,-0.0037700000684708357,9.000000136438757e-05,-0.2157900035381317
6669.804162163881,1352246.0,0.011230000294744968,0.0016799999866634607,0.00031999999191612005,-0.2161100059747696
6669.805161936097,1352247.0,0.014510000124573708,0.00031999999191612005,0.003220000071451068,-0.21660999953746796
6669.806161708312,1352248.0,0.013749999925494194,0.001769999973475933,0.0027199999894946814,-0.2169799953699112
6669.807161480527,1352249.0,0.011189999990165234,0.004410000052303076,0.001769999973475933,-0.216839998960495
6669.808161252742,1352250.0,0.00925000011920929,0.003220000071451068,0.002360000042244792,-0.21689000725746155
6669.809161024958,1352251.0,0.005750000011175871,-0.0016299999551847577,-0.0007699999841861427,-0.21762000024318695
6669.810160797173,1352252.0,0.0010300000431016088,0.0044999998062849045,0.00031999999191612005,-0.21830999851226807
6669.811160569388,1352253.0,-0.0017999999690800905,0.00031999999191612005,-0.0005000000237487257,-0.2185399979352951
6669.812160341604,1352254.0,-0.004360000137239695,0.00031999999191612005,0.00031999999191612005,-0.21921999752521515
6669.813160113818,1352255.0,-0.00872000027447939,0.008170000277459621,-0.0007699999841861427,-0.21967999637126923
6669.814159886034,1352256.0,-0.015270000323653221,0.007579999975860119,-0.00041000000783242285,-0.21996000409126282
6669.815159658249,1352257.0,-0.022690000012516975,0.005400000140070915,-0.003860000055283308,-0.21976999938488007
6669.816159430465,1352258.0,-0.028929999098181725,-0.00018000000272877514,4.999999873689376e-05,-0.22059999406337738
6669.81715920268,1352259.0,-0.03162999823689461,0.004449999891221523,-0.0030400000978261232,-0.2208700031042099
6669.818158974895,1352260.0,-0.032519999891519547,-0.0022700000554323196,-0.003719999920576811,-0.22123999893665314
6669.81915874711,1352261.0,-0.029020000249147415,-0.006719999946653843,0.003590000094845891,-0.22150999307632446
6669.820158519326,1352262.0,-0.02022000029683113,-0.00686000008136034,-0.0015899999998509884,-0.22214999794960022
6669.821158291541,1352263.0,-0.007860000245273113,-0.003949999809265137,-0.0013200000394135714,-0.2226099967956543
6669.822158063756,1352264.0,0.00610999995842576,-0.003590000094845891,-0.0062699997797608376,-0.2234800010919571
6669.823157835972,1352265.0,0.019859999418258667,-0.005539999809116125,0.0036299999337643385,-0.22251999378204346
6669.824157608186,1352266.0,0.02928999997675419,-0.004720000084489584,0.0027699999045580626,-0.22384999692440033
6669.825157380402,1352267.0,0.03162999823689461,0.0014100000262260437,0.00031999999191612005,-0.2241699993610382
6669.826157152617,1352268.0,0.03117999993264675,0.0021299999207258224,0.0027699999045580626,-0.2241699993610382
6669.827156924833,1352269.0,0.031539998948574066,0.005400000140070915,-0.00014000000373926014,-0.2247599959373474
6669.828156697048,1352270.0,0.03260999917984009,-0.001180000021122396,-0.004900000058114529,-0.2258100062608719
6669.829156469263,1352271.0,0.030549999326467514,0.003220000071451068,0.0013200000394135714,-0.22599999606609344
6669.830156241478,1352272.0,0.028389999642968178,0.0024999999441206455,0.004129999782890081,-0.22595000267028809
6669.8311560136935,1352273.0,0.02645999938249588,0.004129999782890081,0.0024999999441206455,-0.22645999491214752
6669.832155785909,1352274.0,0.02281999960541725,-4.999999873689376e-05,0.003590000094845891,-0.22705000638961792
6669.833155558124,1352275.0,0.01607999950647354,0.0044999998062849045,-0.0008200000156648457,-0.22787000238895416
6669.834155330339,1352276.0,0.007189999800175428,0.008580000139772892,-0.001820000004954636,-0.22842000424861908
6669.835155102554,1352277.0,-0.0035000001080334187,0.007180000189691782,-0.002589999930933118,-0.22833000123500824
6669.83615487477,1352278.0,-0.011989999562501907,0.001500000013038516,-0.00044999999227002263,-0.22915999591350555
6669.837154646985,1352279.0,-0.01779000088572502,0.001769999973475933,-0.005489999894052744,-0.22975000739097595
6669.838154419201,1352280.0,-0.020659999921917915,-0.0002699999895412475,-0.0033599999733269215,-0.23058000206947327
6669.839154191416,1352281.0,-0.018149999901652336,-0.005630000028759241,-0.003220000071451068,-0.23075999319553375
6669.840153963631,1352282.0,-0.010870000347495079,-0.0071299998089671135,9.000000136438757e-05,-0.2311200052499771
6669.841153735846,1352283.0,-0.003949999809265137,-0.005539999809116125,0.00031999999191612005,-0.23217999935150146
6669.8421535080615,1352284.0,0.005929999984800816,-0.00839999970048666,-0.0033199999015778303,-0.23204000294208527
6669.843153280277,1352285.0,0.016669999808073044,-0.005090000107884407,-0.001500000013038516,-0.23253999650478363
6669.844153052492,1352286.0,0.021740000694990158,-0.002950000111013651,-0.0018599999602884054,-0.23308999836444855
6669.845152824707,1352287.0,0.026149999350309372,0.003220000071451068,0.0022700000554323196,-0.23405000567436218
6669.846152596922,1352288.0,0.030549999326467514,0.0018599999602884054,0.0015399999683722854,-0.23405000567436218
6669.847152369138,1352289.0,0.03482000157237053,0.003539999946951866,0.0021299999207258224,-0.23405000567436218
6669.848152141353,1352290.0,0.03733000159263611,0.0027199999894946814,0.0035000001080334187,-0.2348800003528595
6669.849151913569,1352291.0,0.0354899987578392,0.002630000002682209,0.003719999920576811,-0.23624999821186066
6669.850151685783,1352292.0,0.03037000074982643,0.001769999973475933,0.003909999970346689,-0.2367600053548813
6669.851151457999,1352293.0,0.02622999995946884,0.004679999779909849,-0.0011399999493733048,-0.2372100055217743
6669.852151230214,1352294.0,0.020840000361204147,-0.0035000001080334187,0.0013200000394135714,-0.23729999363422394
6669.8531510024295,1352295.0,0.009479999542236328,0.006769999861717224,0.002360000042244792,-0.23845000565052032
6669.854150774645,1352296.0,-0.0009899999713525176,0.006769999861717224,0.006130000110715628,-0.23845000565052032
6669.85515054686,1352297.0,-0.010689999908208847,0.005179999861866236,0.002589999930933118,-0.23917999863624573
6669.856150319075,1352298.0,-0.016939999535679817,0.004679999779909849,0.00031999999191612005,-0.24032999575138092
6669.85715009129,1352299.0,-0.019859999418258667,0.00031999999191612005,0.002630000002682209,-0.24092000722885132
6669.858149863506,1352300.0,-0.019859999418258667,-0.0006799999973736703,0.001769999973475933,-0.24142000079154968
6669.859149635721,1352301.0,-0.015949999913573265,-0.004769999999552965,0.003909999970346689,-0.24146999418735504
6669.860149407937,1352302.0,-0.005119999870657921,-0.007670000195503235,0.003220000071451068,-0.24233999848365784
6669.861149180151,1352303.0,0.008799999952316284,-0.007309999782592058,0.0002699999895412475,-0.24307000637054443
6669.862148952367,1352304.0,0.023310000076889992,-0.004540000110864639,0.00031999999191612005,-0.24338999390602112
6669.863148724582,1352305.0,0.03454999998211861,-0.004900000058114529,0.00031999999191612005,-0.2445800006389618
6669.8641484967975,1352306.0,0.03652000054717064,-0.0031300000846385956,0.000910000002477318,-0.24467000365257263
6669.865148269013,1352307.0,0.03463999927043915,0.004089999943971634,0.003539999946951866,-0.2452699989080429
6669.866148041228,1352308.0,0.034049998968839645,0.0037700000684708357,0.0,-0.2460000067949295
6669.867147813443,1352309.0,0.03454999998211861,0.004089999943971634,-0.000590000010561198,-0.24683000147342682
6669.868147585658,1352310.0,0.033240001648664474,0.004900000058114529,-0.0036800000816583633,-0.2471500039100647
6669.869147357874,1352311.0,0.03288000077009201,0.001769999973475933,-0.0006799999973736703,-0.2484699934720993
6669.870147130089,1352312.0,0.03260999917984009,-0.0017300000181421638,-0.0037700000684708357,-0.24884000420570374
6669.871146902305,1352313.0,0.03279000148177147,-0.002950000111013651,-0.0012700000079348683,-0.24953000247478485
6669.872146674519,1352314.0,0.030549999326467514,0.0045900000259280205,0.006130000110715628,-0.2494799941778183
6669.873146446735,1352315.0,0.02402999997138977,0.00749000022187829,0.0009500000160187483,-0.2505800127983093
6669.87414621895,1352316.0,0.013969999738037586,0.005770000163465738,-0.0022299999836832285,-0.2510800063610077
6669.8751459911655,1352317.0,0.0006300000241026282,0.006130000110715628,0.0024500000290572643,-0.25255000591278076
6669.876145763381,1352318.0,-0.0088900001719594,0.004679999779909849,0.00031999999191612005,-0.2526400089263916
6669.877145535596,1352319.0,-0.015629999339580536,0.0024999999441206455,-0.002409999957308173,-0.2535099983215332
6669.878145307811,1352320.0,-0.0185100007802248,-0.005859999917447567,-0.002090000081807375,-0.25429001450538635
6669.879145080026,1352321.0,-0.015270000323653221,-0.0063599999994039536,0.00031999999191612005,-0.2549700140953064
6669.880144852242,1352322.0,-0.006380000151693821,-0.006039999891072512,0.0002300000051036477,-0.2555199861526489
6669.881144624457,1352323.0,0.0048500001430511475,-0.004220000002533197,-0.0006799999973736703,-0.25676000118255615
6669.882144396673,1352324.0,0.01508999988436699,-0.004220000002533197,0.0020000000949949026,-0.2566699981689453
6669.883144168887,1352325.0,0.023269999772310257,-0.0016799999866634607,0.0007300000288523734,-0.25749000906944275
6669.884143941103,1352326.0,0.030009999871253967,-0.0013200000394135714,-0.00044999999227002263,-0.25804001092910767
6669.885143713318,1352327.0,0.03472999855875969,0.003220000071451068,0.0014100000262260437,-0.25832000374794006
6669.8861434855335,1352328.0,0.03720000013709068,0.0014100000262260437,0.00203999993391335,-0.25940999388694763
6669.887143257749,1352329.0,0.037379998713731766,0.0044999998062849045,-0.00014000000373926014,-0.2604700028896332
6669.888143029964,1352330.0,0.03669999912381172,0.004360000137239695,0.00203999993391335,-0.261929988861084
6669.889142802179,1352331.0,0.03491000086069107,0.0021299999207258224,0.0012700000079348683,-0.2626200020313263
6669.890142574394,1352332.0,0.030729999765753746,0.0017300000181421638,0.0014100000262260437,-0.26311999559402466
6669.89114234661,1352333.0,0.02694999985396862,0.001230000052601099,-0.0002300000051036477,-0.2640399932861328
6669.892142118825,1352334.0,0.022509999573230743,0.0014100000262260437,0.0014100000262260437,-0.2635299861431122
6669.893141891041,1352335.0,0.014639999717473984,0.002319999970495701,-0.003220000071451068,-0.2657800018787384
6669.894141663255,1352336.0,0.005880000069737434,0.007770000025629997,-0.0036800000816583633,-0.26627999544143677
6669.895141435471,1352337.0,-0.0033199999015778303,0.007579999975860119,-0.0018599999602884054,-0.26701000332832336
6669.896141207686,1352338.0,-0.013299999758601189,0.006490000057965517,4.999999873689376e-05,-0.2671099901199341
6669.897140979901,1352339.0,-0.020570000633597374,0.001769999973475933,0.0031300000846385956,-0.2685199975967407
6669.898140752117,1352340.0,-0.023269999772310257,-0.0031799999997019768,-0.0027699999045580626,-0.26921001076698303
6669.899140524331,1352341.0,-0.018149999901652336,-0.003809999907389283,-0.0007699999841861427,-0.2699899971485138
6669.900140296547,1352342.0,-0.005570000037550926,-0.00267999991774559,-0.002950000111013651,-0.2712700068950653
6669.901140068762,1352343.0,0.009340000338852406,-0.006039999891072512,-0.003539999946951866,-0.27195999026298523
6669.902139840978,1352344.0,0.022369999438524246,-0.009630000218749046,0.005179999861866236,-0.2721399962902069
6669.903139613193,1352345.0,0.032519999891519547,-0.003539999946951866,0.00018000000272877514,-0.2724199891090393
6669.904139385409,1352346.0,0.03849999979138374,-0.00044999999227002263,0.0015899999998509884,-0.2745699882507324
6669.905139157623,1352347.0,0.04213999956846237,-0.001500000013038516,-0.00014000000373926014,-0.2750700116157532
6669.906138929839,1352348.0,0.04222999885678291,0.003220000071451068,-0.001500000013038516,-0.2753399908542633
6669.907138702054,1352349.0,0.04024999961256981,0.003539999946951866,-0.0019099999917671084,-0.276309996843338
6669.908138474269,1352350.0,0.04106000065803528,0.0002699999895412475,0.004540000110864639,-0.2758899927139282
6669.909138246485,1352351.0,0.04295000061392784,-0.002950000111013651,-0.0002699999895412475,-0.27827000617980957
6669.910138018699,1352352.0,0.04349000006914139,0.004769999999552965,-0.002589999930933118,-0.27799999713897705
6669.911137790915,1352353.0,0.04177999868988991,0.004269999917596579,-0.00031999999191612005,-0.2801100015640259
6669.91213756313,1352354.0,0.03889999911189079,0.0029100000392645597,-0.0016799999866634607,-0.27946001291275024
6669.913137335346,1352355.0,0.030549999326467514,0.006719999946653843,0.006130000110715628,-0.28207001090049744
6669.914137107561,1352356.0,0.015359999611973763,0.0035000001080334187,0.0015399999683722854,-0.28161999583244324
6669.915136879776,1352357.0,0.0,0.006130000110715628,0.00031999999191612005,-0.2838599979877472
6669.916136651991,1352358.0,-0.010329999960958958,0.005950000137090683,-0.002090000081807375,-0.2838599979877472
6669.917136424207,1352359.0,-0.017969999462366104,4.999999873689376e-05,0.00031999999191612005,-0.28404000401496887
6669.918136196422,1352360.0,-0.025340000167489052,-0.0009500000160187483,-0.0009500000160187483,-0.28578001260757446
6669.919135968637,1352361.0,-0.023000000044703484,-0.004769999999552965,-0.002630000002682209,-0.28624001145362854
6669.920135740853,1352362.0,-0.013659999705851078,-0.009990000165998936,-0.0036800000816583633,-0.28650999069213867
6669.921135513067,1352363.0,0.00022000000171829015,-0.00839999970048666,-0.0018599999602884054,-0.2878899872303009
6669.922135285283,1352364.0,0.017969999462366104,-0.004769999999552965,0.0037700000684708357,-0.28766000270843506
6669.923135057498,1352365.0,0.03347000107169151,-0.004220000002533197,0.0028200000524520874,-0.28971999883651733
6669.924134829714,1352366.0,0.04631999880075455,-0.0021299999207258224,0.002319999970495701,-0.2890799939632416
6669.925134601929,1352367.0,0.05714000016450882,0.0017300000181421638,-0.0005000000237487257,-0.29201000928878784
6669.926134374144,1352368.0,0.06244000047445297,0.003539999946951866,0.0017300000181421638,-0.29241999983787537
6669.927134146359,1352369.0,0.06279999762773514,0.001769999973475933,-0.0022700000554323196,-0.291920006275177
6669.9281339185745,1352370.0,0.05974999815225601,0.0015899999998509884,0.00031999999191612005,-0.2938399910926819
6669.92913369079,1352371.0,0.05274000018835068,0.004089999943971634,-0.0033199999015778303,-0.29517000913619995
6669.930133463005,1352372.0,0.04298999905586243,0.00031999999191612005,-0.0015399999683722854,-0.29521000385284424
6669.931133235221,1352373.0,0.03387000039219856,0.00031999999191612005,-0.002589999930933118,-0.2956700026988983
6669.932133007435,1352374.0,0.023310000076889992,0.0030900000128895044,0.00031999999191612005,-0.29791000485420227
6669.933132779651,1352375.0,0.010060000233352184,0.005590000189840794,-4.999999873689376e-05,-0.29791000485420227
6669.934132551866,1352376.0,-0.0028800000436604023,0.006130000110715628,-0.0007699999841861427,-0.2993299961090088
6669.935132324082,1352377.0,-0.014689999632537365,0.007579999975860119,-0.002409999957308173,-0.2994700074195862
6669.936132096297,1352378.0,-0.023360000923275948,0.001769999973475933,-0.003590000094845891,-0.30011001229286194
6669.937131868512,1352379.0,-0.026590000838041306,-0.00044999999227002263,-0.0011399999493733048,-0.301939994096756
6669.938131640727,1352380.0,-0.02597000077366829,0.0014100000262260437,0.004999999888241291,-0.3020800054073334
6669.9391314129425,1352381.0,-0.01923000067472458,-0.002950000111013651,0.001769999973475933,-0.301800012588501
6669.940131185158,1352382.0,-0.008089999668300152,-0.008220000192523003,-0.0022700000554323196,-0.30469000339508057
6669.941130957373,1352383.0,0.004310000222176313,-0.00686000008136034,-0.006630000192672014,-0.30527999997138977
6669.942130729589,1352384.0,0.01689000055193901,-0.004769999999552965,-0.0013200000394135714,-0.3048200011253357
6669.943130501803,1352385.0,0.02565000019967556,-0.0015899999998509884,0.00031999999191612005,-0.30733999609947205
6669.944130274019,1352386.0,0.029020000249147415,-4.999999873689376e-05,0.002859999891370535,-0.3076600134372711
6669.945130046234,1352387.0,0.029740000143647194,-0.002409999957308173,0.00031999999191612005,-0.30807000398635864
6669.94612981845,1352388.0,0.030050000175833702,0.00031999999191612005,-0.0006399999838322401,-0.3089900016784668
6669.947129590665,1352389.0,0.027489999309182167,0.004860000219196081,-0.000859999970998615,-0.31132999062538147
6669.94812936288,1352390.0,0.024620000272989273,0.006039999891072512,-0.00203999993391335,-0.3111000061035156
6669.949129135095,1352391.0,0.023089999333024025,0.000859999970998615,-0.0007699999841861427,-0.31132999062538147
6669.9501289073105,1352392.0,0.02092999964952469,0.004310000222176313,-0.0035000001080334187,-0.3117400109767914
6669.951128679526,1352393.0,0.019050000235438347,0.002630000002682209,-0.004220000002533197,-0.31384000182151794
6669.952128451741,1352394.0,0.016349999234080315,-0.0007699999841861427,-0.0013599999947473407,-0.3157700002193451
6669.953128223957,1352395.0,0.01095999963581562,0.006039999891072512,0.004000000189989805,-0.3169099986553192
