LSL_Time,PLUX_P1_nSeq,PLUX_P1_ECG0,PLUX_P1_EMG1,PLUX_P1_EMG2,PLUX_P1_RESPIRATION3
6513.058874481825,1195465.0,0.004720000084489584,0.0009500000160187483,-0.0027199999894946814,0.39792999625205994
6513.059874254041,1195466.0,0.009610000066459179,0.009580000303685665,4.999999873689376e-05,0.38703998923301697
6513.060874026256,1195467.0,0.014059999957680702,0.005179999861866236,0.0017300000181421638,0.39875999093055725
6513.061873798471,1195468.0,0.0185100007802248,0.001769999973475933,-0.0006399999838322401,0.39399999380111694
6513.062873570687,1195469.0,0.021560000255703926,-0.0008200000156648457,0.002319999970495701,0.3917999863624573
6513.063873342901,1195470.0,0.023180000483989716,-0.0022299999836832285,-0.00203999993391335,0.3978399932384491
6513.064873115117,1195471.0,0.022549999877810478,-0.002589999930933118,0.00031999999191612005,0.39107000827789307
6513.065872887332,1195472.0,0.017160000279545784,-0.005179999861866236,-0.002950000111013651,0.3917500078678131
6513.066872659548,1195473.0,0.01131999958306551,-0.009850000031292439,0.0013599999947473407,0.3957799971103668
6513.067872431763,1195474.0,0.006289999932050705,-0.007670000195503235,-4.999999873689376e-05,0.39285001158714294
6513.068872203978,1195475.0,0.0007200000109151006,-0.005489999894052744,-0.004310000222176313,0.3894200026988983
6513.069871976193,1195476.0,-0.004089999943971634,-0.0025400000158697367,-0.002090000081807375,0.3892799913883209
6513.0708717484085,1195477.0,-0.008179999887943268,0.00031999999191612005,-0.003809999907389283,0.39427000284194946
6513.071871520624,1195478.0,-0.011099999770522118,0.006490000057965517,-0.0002699999895412475,0.3941799998283386
6513.072871292839,1195479.0,-0.009159999899566174,-0.0033199999015778303,0.00203999993391335,0.3909800052642822
6513.073871065055,1195480.0,-0.004000000189989805,-0.00018000000272877514,-0.0033599999733269215,0.3774699866771698
6513.074870837269,1195481.0,0.003229999914765358,-0.0011399999493733048,0.0029100000392645597,0.39267000555992126
6513.075870609485,1195482.0,0.009700000286102295,0.0009500000160187483,-0.0010900000343099236,0.38909998536109924
6513.0768703817,1195483.0,0.01351999957114458,0.0021299999207258224,-0.002360000042244792,0.3748599886894226
6513.077870153916,1195484.0,0.014910000376403332,0.005590000189840794,0.0010400000028312206,0.3909299969673157
6513.078869926131,1195485.0,0.01549999974668026,0.004679999779909849,-0.00041000000783242285,0.38703998923301697
6513.079869698346,1195486.0,0.017559999600052834,0.008949999697506428,0.0011399999493733048,0.3858500123023987
6513.080869470561,1195487.0,0.019859999418258667,0.00803999975323677,-0.0029100000392645597,0.39024001359939575
6513.0818692427765,1195488.0,0.020390000194311142,0.0021299999207258224,0.003909999970346689,0.3725700080394745
6513.082869014992,1195489.0,0.017249999567866325,-0.001500000013038516,-0.003269999986514449,0.3886899948120117
6513.083868787207,1195490.0,0.01056000031530857,-0.0035000001080334187,-0.0007699999841861427,0.3864000141620636
6513.084868559423,1195491.0,0.0034099998883903027,-0.00839999970048666,0.00203999993391335,0.38374000787734985
6513.085868331637,1195492.0,-0.0047599999234080315,-0.01030999980866909,-0.0022299999836832285,0.3888700008392334
6513.086868103853,1195493.0,-0.009390000253915787,-0.010219999589025974,0.0019099999917671084,0.382099986076355
6513.087867876068,1195494.0,-0.01343000028282404,-0.007180000189691782,-0.0034099998883903027,0.3848400115966797
6513.088867648284,1195495.0,-0.017069999128580093,-0.001500000013038516,0.0027199999894946814,0.38447999954223633
6513.089867420499,1195496.0,-0.017880000174045563,0.00031999999191612005,0.0031799999997019768,0.38113000988960266
6513.090867192714,1195497.0,-0.015270000323653221,0.002589999930933118,-0.00203999993391335,0.38666999340057373
6513.091866964929,1195498.0,-0.012079999782145023,0.006130000110715628,-0.00041000000783242285,0.369049996137619
6513.0928667371445,1195499.0,-0.00875999964773655,-0.0002699999895412475,-0.000539999979082495,0.3836100101470947
6513.09386650936,1195500.0,-0.0047599999234080315,0.004900000058114529,0.00031999999191612005,0.38242000341415405
6513.094866281575,1195501.0,-0.0006300000241026282,0.00571999978274107,0.0011399999493733048,0.38016998767852783
6513.09586605379,1195502.0,0.0035500000230968,0.006949999835342169,-0.005489999894052744,0.384660005569458
6513.096865826005,1195503.0,0.007369999773800373,0.0015899999998509884,-0.0016799999866634607,0.36699000000953674
6513.097865598221,1195504.0,0.010110000148415565,0.000910000002477318,-0.002589999930933118,0.3833799958229065
6513.098865370436,1195505.0,0.010689999908208847,-0.0006399999838322401,0.0012700000079348683,0.38071998953819275
6513.099865142652,1195506.0,0.010830000042915344,0.0019499999471008778,-0.0007699999841861427,0.3793500065803528
6513.100864914867,1195507.0,0.01348000019788742,-4.999999873689376e-05,0.00031999999191612005,0.3815000057220459
6513.101864687082,1195508.0,0.01590000092983246,0.002319999970495701,0.003449999960139394,0.36800000071525574
6513.102864459297,1195509.0,0.017470000311732292,-0.002360000042244792,-0.001180000021122396,0.38374000787734985
6513.1038642315125,1195510.0,0.01671000011265278,-0.0051299999468028545,-0.0006399999838322401,0.3753199875354767
6513.104864003728,1195511.0,0.0147299999371171,-0.004089999943971634,-0.0022700000554323196,0.3772900104522705
6513.105863775943,1195512.0,0.011049999855458736,-0.006039999891072512,-0.0024500000290572643,0.3791700005531311
6513.106863548158,1195513.0,0.005880000069737434,-0.005489999894052744,0.003590000094845891,0.3713800013065338
6513.107863320373,1195514.0,0.0007200000109151006,-0.0035000001080334187,-0.005590000189840794,0.3811799883842468
6513.108863092589,1195515.0,-0.0026499999221414328,-0.001769999973475933,0.001180000021122396,0.3656199872493744
6513.109862864804,1195516.0,-0.0031399999279528856,-0.0029100000392645597,0.0022299999836832285,0.38040000200271606
6513.11086263702,1195517.0,-0.0018899999558925629,-0.0019099999917671084,-0.00203999993391335,0.37422001361846924
6513.111862409235,1195518.0,-0.0025599999353289604,-0.0002300000051036477,0.0,0.37911999225616455
6513.11286218145,1195519.0,-0.00215999991632998,0.0022700000554323196,0.0016299999551847577,0.3738600015640259
6513.113861953665,1195520.0,-0.0016199999954551458,0.005539999809116125,0.0030400000978261232,0.3735800087451935
6513.1148617258805,1195521.0,-0.0023799999617040157,0.0072200000286102295,0.0008200000156648457,0.37797999382019043
6513.115861498096,1195522.0,-0.00107999995816499,0.005770000163465738,-0.0015899999998509884,0.3613100051879883
6513.116861270311,1195523.0,-0.00013000000035390258,0.002360000042244792,-0.0011399999493733048,0.3764199912548065
6513.117861042526,1195524.0,0.0008999999845400453,0.0027699999045580626,0.0013200000394135714,0.37494999170303345
6513.118860814741,1195525.0,0.00107999995816499,0.0034099998883903027,0.0016799999866634607,0.3676300048828125
6513.119860586957,1195526.0,0.0008500000112690032,0.01066999975591898,0.0036299999337643385,0.37623998522758484
6513.120860359172,1195527.0,0.0016199999954551458,0.008170000277459621,0.00014000000373926014,0.3630099892616272
6513.121860131388,1195528.0,0.0034600000362843275,0.007809999864548445,-0.0007699999841861427,0.3772900104522705
6513.122859903602,1195529.0,0.004000000189989805,0.00031999999191612005,0.0021299999207258224,0.36945998668670654
6513.123859675818,1195530.0,0.0037700000684708357,0.001230000052601099,-0.0031799999997019768,0.3727099895477295
6513.124859448033,1195531.0,0.005030000116676092,-0.004769999999552965,-0.005489999894052744,0.37220999598503113
6513.1258592202485,1195532.0,0.0034099998883903027,-0.004999999888241291,0.00014000000373926014,0.36713001132011414
6513.126858992464,1195533.0,0.00018000000272877514,-0.006039999891072512,-0.0011399999493733048,0.37362998723983765
6513.127858764679,1195534.0,-0.0033199999015778303,-0.00839999970048666,-0.0012700000079348683,0.35774001479148865
6513.128858536894,1195535.0,-0.005350000225007534,-0.007770000025629997,-0.003449999960139394,0.3745400011539459
6513.129858309109,1195536.0,-0.007009999826550484,-0.004449999891221523,0.001500000013038516,0.3709299862384796
6513.130858081325,1195537.0,-0.0069599999114871025,0.0028200000524520874,-0.0020000000949949026,0.36597999930381775
6513.13185785354,1195538.0,-0.00674000009894371,-0.001500000013038516,-0.000539999979082495,0.3738600015640259
6513.132857625756,1195539.0,-0.004129999782890081,-0.0009500000160187483,0.0036299999337643385,0.36107999086380005
6513.13385739797,1195540.0,0.0003100000030826777,0.00031999999191612005,0.00018000000272877514,0.37070000171661377
6513.134857170186,1195541.0,0.005929999984800816,0.006130000110715628,0.002589999930933118,0.3642899990081787
6513.135856942401,1195542.0,0.011230000294744968,-0.0027699999045580626,0.00014000000373926014,0.3689599931240082
6513.136856714616,1195543.0,0.015180000104010105,-0.004269999917596579,0.0028200000524520874,0.3711099922657013
6513.137856486832,1195544.0,0.016259999945759773,-0.005900000222027302,-0.0033599999733269215,0.3657500147819519
6513.138856259047,1195545.0,0.01508999988436699,-0.0019499999471008778,0.00031999999191612005,0.36542999744415283
6513.139856031262,1195546.0,0.014290000312030315,-0.0045900000259280205,0.0022700000554323196,0.369049996137619
6513.140855803477,1195547.0,0.012670000083744526,4.999999873689376e-05,0.0015899999998509884,0.36493000388145447
6513.141855575693,1195548.0,0.009929999709129333,-0.0013200000394135714,0.001769999973475933,0.3533500134944916
6513.142855347908,1195549.0,0.006690000183880329,0.012620000168681145,0.0009500000160187483,0.36713001132011414
6513.143855120124,1195550.0,0.004360000137239695,0.011169999837875366,-0.002589999930933118,0.367900013923645
6513.144854892338,1195551.0,0.004000000189989805,0.005309999920427799,-0.0002699999895412475,0.3540799915790558
6513.145854664554,1195552.0,0.0024300001095980406,-0.005859999917447567,0.007860000245273113,0.36840999126434326
6513.146854436769,1195553.0,-0.00018000000272877514,0.006990000139921904,-0.002589999930933118,0.36406001448631287
6513.147854208984,1195554.0,-0.0048500001430511475,0.0015899999998509884,-0.0006399999838322401,0.3635999858379364
6513.1488539812,1195555.0,-0.008539999835193157,0.00031999999191612005,-0.0024500000290572643,0.367900013923645
6513.149853753415,1195556.0,-0.008799999952316284,-0.0003600000054575503,0.003220000071451068,0.3621399998664856
6513.15085352563,1195557.0,-0.009879999794065952,0.012620000168681145,-0.003949999809265137,0.36195001006126404
6513.151853297845,1195558.0,-0.011189999990165234,0.00953999999910593,-4.999999873689376e-05,0.3670800030231476
6513.152853070061,1195559.0,-0.00930000003427267,0.0071299998089671135,-0.002409999957308173,0.3504599928855896
6513.153852842276,1195560.0,-0.005750000011175871,0.0022700000554323196,0.005630000028759241,0.3635999858379364
6513.154852614492,1195561.0,-0.001979999942705035,-0.003909999970346689,-0.002859999891370535,0.3642899990081787
6513.155852386706,1195562.0,0.0014400000218302011,-0.0036800000816583633,0.001230000052601099,0.35842999815940857
6513.1568521589215,1195563.0,0.004399999976158142,-0.0022299999836832285,-0.0003600000054575503,0.3661699891090393
6513.157851931137,1195564.0,0.006060000043362379,-0.006039999891072512,0.0019099999917671084,0.34922999143600464
6513.158851703352,1195565.0,0.007459999993443489,-0.003539999946951866,0.0002699999895412475,0.36612001061439514
6513.159851475568,1195566.0,0.01051000040024519,-0.007720000110566616,-0.0018599999602884054,0.3618600070476532
6513.160851247782,1195567.0,0.013659999705851078,-0.004269999917596579,0.0037700000684708357,0.3590199947357178
6513.161851019998,1195568.0,0.01590000092983246,0.003220000071451068,-0.002589999930933118,0.36410999298095703
6513.162850792213,1195569.0,0.01671000011265278,-0.00014000000373926014,0.001769999973475933,0.34922999143600464
6513.163850564429,1195570.0,0.015359999611973763,-0.002409999957308173,0.0031300000846385956,0.3642899990081787
6513.164850336644,1195571.0,0.011719999834895134,-0.004129999782890081,-0.004860000219196081,0.3485899865627289
6513.16585010886,1195572.0,0.005929999984800816,-0.000539999979082495,0.001230000052601099,0.36351001262664795
6513.166849881074,1195573.0,-0.0002699999895412475,9.000000136438757e-05,-0.0072200000286102295,0.35874998569488525
6513.1678496532895,1195574.0,-0.006200000178068876,0.0010400000028312206,-0.006949999835342169,0.35833999514579773
6513.168849425505,1195575.0,-0.009789999574422836,0.00203999993391335,-0.0008200000156648457,0.36162999272346497
6513.16984919772,1195576.0,-0.01307000033557415,0.003449999960139394,-0.002589999930933118,0.3463900089263916
6513.170848969936,1195577.0,-0.0142000000923872,0.00031999999191612005,0.004310000222176313,0.3595699965953827
6513.17184874215,1195578.0,-0.014109999872744083,-0.0019099999917671084,0.004809999838471413,0.36048999428749084
6513.172848514366,1195579.0,-0.012760000303387642,-0.00041000000783242285,0.003590000094845891,0.35078001022338867
6513.173848286581,1195580.0,-0.01092000026255846,-0.0020000000949949026,-0.00031999999191612005,0.3619999885559082
6513.174848058797,1195581.0,-0.009030000306665897,0.0010000000474974513,0.004040000028908253,0.3560500144958496
6513.175847831012,1195582.0,-0.008799999952316284,0.0017300000181421638,-0.002360000042244792,0.3599399924278259
6513.1768476032275,1195583.0,-0.00925000011920929,0.002360000042244792,0.00031999999191612005,0.35627999901771545
6513.177847375442,1195584.0,-0.011049999855458736,0.001769999973475933,-0.0002699999895412475,0.35587000846862793
6513.1788471476575,1195585.0,-0.01221999991685152,0.00031999999191612005,0.00031999999191612005,0.3592100143432617
6513.179846919873,1195586.0,-0.009519999846816063,0.005950000137090683,0.0,0.3437800109386444
6513.180846692088,1195587.0,-0.005929999984800816,0.0031799999997019768,-0.0011399999493733048,0.35888999700546265
6513.181846464304,1195588.0,-0.0017999999690800905,0.003590000094845891,0.003860000055283308,0.35627999901771545
6513.182846236518,1195589.0,0.0020200000144541264,0.003949999809265137,-0.002589999930933118,0.35412999987602234
6513.183846008734,1195590.0,0.004129999782890081,-0.002409999957308173,-9.000000136438757e-05,0.3586600124835968
6513.184845780949,1195591.0,0.007459999993443489,-0.0015899999998509884,-0.001449999981559813,0.34240999817848206
6513.185845553165,1195592.0,0.008489999920129776,0.0010400000028312206,-0.000859999970998615,0.35774001479148865
6513.18684532538,1195593.0,0.007319999858736992,-0.0013200000394135714,-0.0051299999468028545,0.35297998785972595
6513.187845097595,1195594.0,0.0036800000816583633,-0.003809999907389283,-0.000859999970998615,0.3527500033378601
6513.18884486981,1195595.0,0.001979999942705035,-0.003949999809265137,0.00031999999191612005,0.3552199900150299
6513.1898446420255,1195596.0,0.0014799999771639705,0.00031999999191612005,-0.0002699999895412475,0.3435499966144562
6513.190844414241,1195597.0,0.000539999979082495,-0.005489999894052744,0.003590000094845891,0.3566400110721588
6513.191844186456,1195598.0,-0.0008999999845400453,-0.0006399999838322401,-0.0013200000394135714,0.3512899875640869
6513.192843958672,1195599.0,-0.0008999999845400453,-0.0062699997797608376,0.00014000000373926014,0.35106000304222107
6513.193843730886,1195600.0,-0.001120000029914081,0.00267999991774559,0.00031999999191612005,0.3566400110721588
6513.194843503102,1195601.0,-0.0023399998899549246,0.00571999978274107,-0.005489999894052744,0.3534899950027466
6513.195843275317,1195602.0,-0.0023799999617040157,-0.001500000013038516,0.00031999999191612005,0.3495500087738037
6513.196843047533,1195603.0,-0.003229999914765358,-0.0033199999015778303,0.00031999999191612005,0.34894999861717224
6513.197842819748,1195604.0,-0.007280000019818544,-0.004040000028908253,0.00203999993391335,0.3549500107765198
6513.198842591963,1195605.0,-0.010379999876022339,0.0037700000684708357,0.00031999999191612005,0.3485400080680847
6513.199842364178,1195606.0,-0.00872000027447939,0.006130000110715628,-0.002319999970495701,0.34894999861717224
6513.2008421363935,1195607.0,-0.004040000028908253,0.00803999975323677,-0.0016799999866634607,0.3516499996185303
6513.201841908609,1195608.0,0.0028299998957663774,0.008449999615550041,0.003220000071451068,0.342960000038147
6513.202841680824,1195609.0,0.006560000125318766,0.006680000107735395,4.999999873689376e-05,0.35471999645233154
6513.20384145304,1195610.0,0.005750000011175871,0.003220000071451068,0.001230000052601099,0.3479500114917755
6513.204841225254,1195611.0,0.0021100000012665987,0.000910000002477318,-0.0027199999894946814,0.3477199971675873
6513.20584099747,1195612.0,-0.0027000000700354576,-0.00494999997317791,0.000910000002477318,0.3518800139427185
6513.206840769685,1195613.0,-0.007550000213086605,-0.010040000081062317,-0.001230000052601099,0.3361400067806244
6513.207840541901,1195614.0,-0.011590000241994858,-0.005489999894052744,0.0016299999551847577,0.3495500087738037
6513.208840314116,1195615.0,-0.013749999925494194,-0.0062699997797608376,-0.0028200000524520874,0.34946000576019287
6513.209840086331,1195616.0,-0.01513999979943037,-0.003449999960139394,9.000000136438757e-05,0.3377400040626526
6513.210839858546,1195617.0,-0.014379999600350857,0.002589999930933118,-0.00041000000783242285,0.3513300120830536
6513.2118396307615,1195618.0,-0.012529999949038029,0.0013200000394135714,-0.000539999979082495,0.34560999274253845
6513.212839402977,1195619.0,-0.008799999952316284,0.004220000002533197,0.0013200000394135714,0.3440999984741211
6513.213839175192,1195620.0,-0.007319999858736992,0.002950000111013651,0.0020000000949949026,0.3509199917316437
6513.214838947408,1195621.0,-0.007819999940693378,0.00203999993391335,-0.0007699999841861427,0.33983999490737915
6513.215838719622,1195622.0,-0.009519999846816063,0.002319999970495701,0.00031999999191612005,0.3471199870109558
6513.216838491838,1195623.0,-0.00875999964773655,0.0031300000846385956,-0.00041000000783242285,0.3467999994754791
6513.217838264053,1195624.0,-0.009159999899566174,-9.000000136438757e-05,0.0010000000474974513,0.33329999446868896
6513.218838036269,1195625.0,-0.011009999550879002,-0.0019099999917671084,-0.001500000013038516,0.3426400125026703
6513.219837808484,1195626.0,-0.012129999697208405,0.0037700000684708357,0.00031999999191612005,0.34894999861717224
6513.220837580699,1195627.0,-0.011859999969601631,-0.0022299999836832285,-0.0007699999841861427,0.34200000762939453
6513.221837352914,1195628.0,-0.0083600003272295,0.001230000052601099,0.001769999973475933,0.34259000420570374
6513.222837125129,1195629.0,-0.004129999782890081,0.001769999973475933,-0.006949999835342169,0.3485899865627289
6513.223836897345,1195630.0,-0.0017999999690800905,0.003220000071451068,0.0022299999836832285,0.3429099917411804
6513.22483666956,1195631.0,-0.0012600000482052565,-0.0007699999841861427,-0.0034099998883903027,0.3328399956226349
6513.225836441775,1195632.0,-0.005929999984800816,0.003909999970346689,-0.0011399999493733048,0.34272998571395874
6513.22683621399,1195633.0,-0.012040000408887863,-0.0015899999998509884,-0.00267999991774559,0.3478499948978424
6513.227835986206,1195634.0,-0.0175199992954731,-0.007309999782592058,-0.0016799999866634607,0.3440600037574768
6513.228835758421,1195635.0,-0.02092999964952469,0.00031999999191612005,0.0037700000684708357,0.34081000089645386
6513.229835530637,1195636.0,-0.023180000483989716,-0.007540000136941671,-0.0009500000160187483,0.3348099887371063
6513.230835302852,1195637.0,-0.022690000012516975,-0.004040000028908253,-0.00203999993391335,0.3407599925994873
6513.231835075067,1195638.0,-0.019770000129938126,-0.002950000111013651,0.00031999999191612005,0.3458400070667267
6513.232834847282,1195639.0,-0.014109999872744083,-0.0035000001080334187,-0.004410000052303076,0.3425000011920929
6513.233834619497,1195640.0,-0.010239999741315842,-0.002630000002682209,0.0045900000259280205,0.330049991607666
6513.234834391713,1195641.0,-0.008089999668300152,-4.999999873689376e-05,-0.000539999979082495,0.3453400135040283
6513.235834163928,1195642.0,-0.007009999826550484,0.0022700000554323196,0.0006799999973736703,0.33765000104904175
6513.236833936143,1195643.0,-0.0026499999221414328,0.003449999960139394,-0.0018599999602884054,0.3386499881744385
6513.237833708358,1195644.0,0.0013500000350177288,0.003000000026077032,0.0021299999207258224,0.3430899977684021
6513.238833480574,1195645.0,0.003370000049471855,0.004809999838471413,-0.002589999930933118,0.32697999477386475
6513.239833252789,1195646.0,0.0052999998442828655,0.008170000277459621,-0.0011399999493733048,0.3427700102329254
6513.240833025005,1195647.0,0.007459999993443489,0.008220000192523003,0.0016799999866634607,0.33649998903274536
6513.24183279722,1195648.0,0.008630000054836273,-0.0002699999895412475,-0.0011399999493733048,0.337009996175766
6513.2428325694345,1195649.0,0.0101500004529953,-0.0030400000978261232,0.001820000004954636,0.3396100103855133
6513.24383234165,1195650.0,0.009030000306665897,-0.001230000052601099,-0.0013200000394135714,0.3267500102519989
6513.244832113865,1195651.0,0.00610999995842576,-0.002859999891370535,-0.005679999943822622,0.3414500057697296
6513.245831886081,1195652.0,0.0024300001095980406,-0.004040000028908253,-0.00203999993391335,0.3353999853134155
6513.246831658296,1195653.0,-0.0014400000218302011,-0.010940000414848328,-0.004449999891221523,0.3356800079345703
6513.247831430511,1195654.0,-0.006649999879300594,-0.010940000414848328,0.0024999999441206455,0.3401600122451782
6513.248831202726,1195655.0,-0.011140000075101852,-0.0013599999947473407,-0.0009500000160187483,0.3349500000476837
6513.249830974942,1195656.0,-0.0147299999371171,-0.000859999970998615,-0.00044999999227002263,0.3339399993419647
6513.250830747157,1195657.0,-0.01508999988436699,0.005770000163465738,-0.0020000000949949026,0.3411700129508972
6513.251830519373,1195658.0,-0.013700000010430813,0.003809999907389283,0.002589999930933118,0.3353999853134155
6513.252830291587,1195659.0,-0.015270000323653221,0.0024999999441206455,-0.0022700000554323196,0.3328399956226349
6513.2538300638025,1195660.0,-0.018239999189972878,0.003590000094845891,0.0022700000554323196,0.33906999230384827
6513.254829836018,1195661.0,-0.01909000054001808,0.0045900000259280205,-0.004220000002533197,0.3361400067806244
6513.255829608233,1195662.0,-0.01940999925136566,-9.000000136438757e-05,0.004860000219196081,0.33274999260902405
6513.256829380449,1195663.0,-0.019770000129938126,0.00031999999191612005,-0.0007699999841861427,0.32607001066207886
6513.257829152664,1195664.0,-0.0200399998575449,-0.0037700000684708357,-0.00203999993391335,0.3313800096511841
6513.258828924879,1195665.0,-0.02022000029683113,-0.0022700000554323196,-0.002589999930933118,0.3366900086402893
6513.259828697094,1195666.0,-0.01607999950647354,0.005309999920427799,-0.00031999999191612005,0.3313800096511841
6513.26082846931,1195667.0,-0.008179999887943268,0.0037700000684708357,0.001769999973475933,0.33344000577926636
6513.261828241525,1195668.0,-0.00044999999227002263,0.0022700000554323196,-0.002319999970495701,0.33388999104499817
6513.262828013741,1195669.0,0.005570000037550926,0.0,0.0019099999917671084,0.32752999663352966
6513.263827785955,1195670.0,0.007459999993443489,-0.0034099998883903027,0.000859999970998615,0.335999995470047
6513.2648275581705,1195671.0,0.005570000037550926,0.00031999999191612005,-0.0029100000392645597,0.32927000522613525
6513.265827330386,1195672.0,-0.00018000000272877514,0.00031999999191612005,0.0016299999551847577,0.3295400142669678
6513.266827102601,1195673.0,-0.006779999937862158,0.0031300000846385956,-0.0034099998883903027,0.3337100148200989
6513.267826874817,1195674.0,-0.011099999770522118,0.005630000028759241,-0.0034099998883903027,0.31856000423431396
6513.268826647032,1195675.0,-0.013969999738037586,0.0014100000262260437,-0.003000000026077032,0.3323400020599365
6513.269826419247,1195676.0,-0.016440000385046005,-0.0018599999602884054,0.004679999779909849,0.33072999119758606
6513.270826191462,1195677.0,-0.019589999690651894,-0.001500000013038516,0.004089999943971634,0.328029990196228
6513.271825963678,1195678.0,-0.0185100007802248,-0.0015399999683722854,-0.001820000004954636,0.3327000141143799
6513.272825735893,1195679.0,-0.016529999673366547,0.001180000021122396,0.0014100000262260437,0.3186500072479248
6513.2738255081085,1195680.0,-0.015270000323653221,0.00031999999191612005,0.00031999999191612005,0.33246999979019165
6513.274825280323,1195681.0,-0.013340000063180923,0.005539999809116125,0.0014100000262260437,0.3284499943256378
6513.2758250525385,1195682.0,-0.008270000107586384,0.004679999779909849,-0.0007300000288523734,0.31586000323295593
6513.276824824754,1195683.0,-0.003590000094845891,-0.0007699999841861427,-0.0010400000028312206,0.3269299864768982
6513.277824596969,1195684.0,-0.0016199999954551458,0.0010400000028312206,-0.0031300000846385956,0.3313800096511841
6513.278824369185,1195685.0,-0.0031399999279528856,0.003220000071451068,0.00267999991774559,0.3284499943256378
6513.2798241414,1195686.0,-0.0037700000684708357,0.005400000140070915,0.00267999991774559,0.3232699930667877
6513.280823913615,1195687.0,-0.004000000189989805,0.004679999779909849,0.003949999809265137,0.33083000779151917
6513.28182368583,1195688.0,-0.004720000084489584,0.005539999809116125,-0.0029100000392645597,0.32363998889923096
6513.282823458046,1195689.0,-0.008449999615550041,0.001769999973475933,-0.001449999981559813,0.32541999220848083
6513.283823230261,1195690.0,-0.012760000303387642,0.0021299999207258224,-0.0003600000054575503,0.3265700042247772
6513.2848230024765,1195691.0,-0.014019999653100967,-0.001230000052601099,-0.0024500000290572643,0.3218500018119812
6513.285822774691,1195692.0,-0.013249999843537807,-0.00953999999910593,-0.0031300000846385956,0.3266099989414215
6513.2868225469065,1195693.0,-0.014910000376403332,-0.012529999949038029,0.00203999993391335,0.31543999910354614
6513.287822319122,1195694.0,-0.017430000007152557,-0.011939999647438526,-0.001500000013038516,0.3279399871826172
6513.288822091337,1195695.0,-0.017969999462366104,-0.008220000192523003,0.00031999999191612005,0.3215300142765045
6513.289821863553,1195696.0,-0.01810000091791153,-0.005489999894052744,-0.002589999930933118,0.321260005235672
6513.290821635767,1195697.0,-0.018149999901652336,0.0019099999917671084,-0.0022700000554323196,0.3235900104045868
6513.291821407983,1195698.0,-0.016440000385046005,0.001230000052601099,-0.000910000002477318,0.31512001156806946
6513.292821180198,1195699.0,-0.013659999705851078,0.005679999943822622,-0.0007699999841861427,0.32552000880241394
6513.293820952414,1195700.0,-0.011680000461637974,0.007770000025629997,0.004129999782890081,0.32291001081466675
6513.294820724629,1195701.0,-0.009700000286102295,0.009759999811649323,-4.999999873689376e-05,0.3195199966430664
6513.2958204968445,1195702.0,-0.008489999920129776,0.007670000195503235,0.0044999998062849045,0.31310999393463135
6513.296820269059,1195703.0,-0.0065100002102553844,0.0034099998883903027,0.001820000004954636,0.3184700012207031
6513.2978200412745,1195704.0,-0.005880000069737434,0.005810000002384186,-0.0036800000816583633,0.32396000623703003
6513.29881981349,1195705.0,-0.0069599999114871025,0.014120000414550304,0.00031999999191612005,0.3206599950790405
6513.299819585705,1195706.0,-0.003590000094845891,0.013580000028014183,-0.002950000111013651,0.3079400062561035
6513.300819357921,1195707.0,0.0009899999713525176,0.00795000046491623,-0.0012700000079348683,0.31668001413345337
6513.301819130135,1195708.0,0.007770000025629997,0.0021299999207258224,0.00267999991774559,0.32148998975753784
6513.302818902351,1195709.0,0.013120000250637531,-0.004410000052303076,-0.0010000000474974513,0.32001999020576477
6513.303818674566,1195710.0,0.01348000019788742,-0.005489999894052744,0.0017300000181421638,0.31586000323295593
6513.304818446782,1195711.0,0.011680000461637974,-0.0036800000816583633,-0.0010000000474974513,0.3142099976539612
6513.305818218997,1195712.0,0.008270000107586384,-0.00749000022187829,-0.000590000010561198,0.3211199939250946
6513.3068179912125,1195713.0,0.004490000195801258,-0.010080000385642052,0.005859999917447567,0.3140299916267395
6513.307817763427,1195714.0,0.0013899999903514981,-0.010169999673962593,-0.002589999930933118,0.31380000710487366
6513.308817535642,1195715.0,-0.0002699999895412475,-0.0051299999468028545,-0.001500000013038516,0.31874001026153564
6513.309817307858,1195716.0,-0.0016199999954551458,0.001769999973475933,-0.0007699999841861427,0.3140299916267395
6513.310817080073,1195717.0,-0.001930000027641654,-0.00041000000783242285,-0.002589999930933118,0.3108699917793274
6513.311816852289,1195718.0,-0.00215999991632998,0.00031999999191612005,0.00203999993391335,0.3182399868965149
6513.312816624503,1195719.0,-0.00107999995816499,0.0,0.00031999999191612005,0.31178000569343567
6513.313816396719,1195720.0,0.0003100000030826777,-0.005489999894052744,0.003949999809265137,0.31077998876571655
6513.314816168934,1195721.0,0.0007200000109151006,-0.006039999891072512,0.005770000163465738,0.3152199983596802
6513.31581594115,1195722.0,0.0020699999295175076,0.002409999957308173,-0.0037700000684708357,0.30083999037742615
6513.316815713365,1195723.0,0.0012600000482052565,0.002360000042244792,-0.0009500000160187483,0.3092699944972992
6513.31781548558,1195724.0,-0.0013500000350177288,0.001180000021122396,0.00031999999191612005,0.3156700134277344
6513.318815257795,1195725.0,-0.002959999954327941,0.003909999970346689,-0.003220000071451068,0.31209999322891235
6513.31981503001,1195726.0,-0.0002699999895412475,0.008170000277459621,0.001500000013038516,0.2998400032520294
6513.320814802226,1195727.0,0.004310000222176313,0.010130000300705433,-0.0018599999602884054,0.3127399981021881
6513.321814574441,1195728.0,0.008630000054836273,0.005270000081509352,-0.00014000000373926014,0.3108200132846832
6513.322814346657,1195729.0,0.01095999963581562,0.0064500002190470695,0.004410000052303076,0.3035399913787842
6513.323814118871,1195730.0,0.010599999688565731,0.0017300000181421638,-0.00018000000272877514,0.31237998604774475
6513.324813891087,1195731.0,0.00795000046491623,-0.003539999946951866,0.003000000026077032,0.30889999866485596
6513.325813663302,1195732.0,0.004939999897032976,-0.008860000409185886,-0.004410000052303076,0.3058300018310547
6513.326813435518,1195733.0,0.0009399999980814755,-0.005489999894052744,-0.001769999973475933,0.3108699917793274
6513.327813207733,1195734.0,-0.003949999809265137,-0.006719999946653843,-0.001500000013038516,0.30500999093055725
6513.3288129799475,1195735.0,-0.00646999990567565,-0.005489999894052744,-0.001769999973475933,0.306659996509552
6513.329812752163,1195736.0,-0.008089999668300152,-0.00803999975323677,0.000910000002477318,0.3069300055503845
6513.330812524378,1195737.0,-0.005210000090301037,-0.00749000022187829,-0.00535999983549118,0.30171000957489014
6513.331812296594,1195738.0,-0.0010300000431016088,0.0010000000474974513,0.0024500000290572643,0.3082599937915802
6513.332812068809,1195739.0,0.0016599999507889152,0.00031999999191612005,-0.002589999930933118,0.30500999093055725
6513.333811841025,1195740.0,0.0018400000408291817,0.0035000001080334187,0.00031999999191612005,0.3014400005340576
6513.334811613239,1195741.0,0.00107999995816499,0.001769999973475933,-0.0028200000524520874,0.30862000584602356
6513.335811385455,1195742.0,0.0027000000700354576,0.00031999999191612005,0.003539999946951866,0.3014799952507019
6513.33681115767,1195743.0,0.004540000110864639,-0.0002300000051036477,0.0036299999337643385,0.3037300109863281
6513.337810929886,1195744.0,0.002520000096410513,0.001180000021122396,0.001230000052601099,0.30441001057624817
6513.338810702101,1195745.0,-0.0020699999295175076,-0.0015399999683722854,0.006130000110715628,0.2953900098800659
6513.3398104743155,1195746.0,-0.003949999809265137,0.004629999864846468,0.0002699999895412475,0.30629000067710876
6513.340810246531,1195747.0,-0.0017999999690800905,0.009259999729692936,0.00014000000373926014,0.3008899986743927
6513.341810018746,1195748.0,-0.00013000000035390258,0.003590000094845891,-0.00041000000783242285,0.2990100085735321
6513.342809790962,1195749.0,0.0013899999903514981,0.005489999894052744,0.0016799999866634607,0.3048200011253357
6513.343809563177,1195750.0,0.0024300001095980406,0.002589999930933118,0.00031999999191612005,0.2991499900817871
6513.344809335393,1195751.0,0.002199999988079071,-0.003590000094845891,-0.003449999960139394,0.2975899875164032
6513.345809107607,1195752.0,-0.00018000000272877514,-0.00795000046491623,0.0010400000028312206,0.30382001399993896
6513.346808879823,1195753.0,-0.00215999991632998,-0.0051299999468028545,-0.004809999838471413,0.296999990940094
6513.347808652038,1195754.0,-0.0030499999411404133,-0.005489999894052744,-0.002319999970495701,0.296860009431839
6513.348808424254,1195755.0,-0.005030000116676092,-0.0010900000343099236,-0.0002699999895412475,0.3020800054073334
6513.349808196469,1195756.0,-0.005570000037550926,-0.0033199999015778303,-0.0018599999602884054,0.29868999123573303
6513.3508079686835,1195757.0,-0.0035000001080334187,0.0012700000079348683,0.00014000000373926014,0.2865599989891052
6513.351807740899,1195758.0,-0.0004900000058114529,-0.004410000052303076,0.0033199999015778303,0.29401999711990356
6513.352807513114,1195759.0,0.0013000000035390258,-0.0018599999602884054,-0.00041000000783242285,0.29791000485420227
6513.35380728533,1195760.0,0.001979999942705035,-0.002589999930933118,-0.0014100000262260437,0.3003399968147278
6513.354807057545,1195761.0,0.001979999942705035,0.0022700000554323196,0.003220000071451068,0.2953900098800659
6513.35580682976,1195762.0,0.0030499999411404133,0.003949999809265137,0.00018000000272877514,0.28481999039649963
6513.356806601975,1195763.0,0.004670000169426203,0.0052200001664459705,-0.0044999998062849045,0.29561999440193176
6513.357806374191,1195764.0,0.007230000104755163,0.002319999970495701,0.00203999993391335,0.29690998792648315
6513.358806146406,1195765.0,0.006690000183880329,-0.00014000000373926014,0.00031999999191612005,0.28395000100135803
6513.3598059186215,1195766.0,0.006870000157505274,0.007860000245273113,0.004900000058114529,0.29256001114845276
6513.360805690837,1195767.0,0.009119999594986439,0.013580000028014183,0.00031999999191612005,0.29622000455856323
6513.3618054630515,1195768.0,0.009159999899566174,0.006539999973028898,-0.001180000021122396,0.2980499863624573
6513.362805235267,1195769.0,0.006560000125318766,0.003909999970346689,0.0021299999207258224,0.2956700026988983
6513.363805007482,1195770.0,0.0034099998883903027,0.006579999811947346,-0.005489999894052744,0.2916400134563446
6513.364804779698,1195771.0,-0.0006300000241026282,0.0024500000290572643,-0.0029100000392645597,0.2815699875354767
6513.365804551913,1195772.0,-0.006289999932050705,-0.006719999946653843,-0.0002699999895412475,0.28898999094963074
6513.366804324128,1195773.0,-0.011459999717772007,-0.012760000303387642,-0.006680000107735395,0.2954399883747101
6513.367804096343,1195774.0,-0.012760000303387642,-0.006310000084340572,0.0030400000978261232,0.2928299903869629
6513.368803868559,1195775.0,-0.01221999991685152,-0.006769999861717224,-0.0020000000949949026,0.2903600037097931
6513.369803640774,1195776.0,-0.010830000042915344,-0.005489999894052744,-0.005040000192821026,0.28130000829696655
6513.3708034129895,1195777.0,-0.00773000018671155,-0.0013200000394135714,-0.00041000000783242285,0.2935599982738495
6513.371803185205,1195778.0,-0.00646999990567565,0.0030900000128895044,0.004410000052303076,0.28696998953819275
6513.3728029574195,1195779.0,-0.005119999870657921,0.002319999970495701,9.000000136438757e-05,0.28944000601768494
6513.373802729635,1195780.0,-0.003909999970346689,0.0031799999997019768,0.0013200000394135714,0.2894900143146515
6513.37480250185,1195781.0,-0.00215999991632998,0.00494999997317791,-0.001180000021122396,0.2849999964237213
6513.375802274066,1195782.0,0.0017999999690800905,0.002859999891370535,-0.002950000111013651,0.2903600037097931
6513.376802046281,1195783.0,0.004040000028908253,0.003909999970346689,0.0022700000554323196,0.27667000889778137
6513.377801818496,1195784.0,0.0034099998883903027,0.0037700000684708357,-0.0029100000392645597,0.28999000787734985
6513.378801590711,1195785.0,0.003590000094845891,0.0072200000286102295,-0.0002699999895412475,0.28784000873565674
6513.379801362927,1195786.0,0.007280000019818544,0.006630000192672014,-0.000859999970998615,0.2801100015640259
6513.380801135142,1195787.0,0.011680000461637974,0.006130000110715628,0.00031999999191612005,0.289900004863739
6513.3818009073575,1195788.0,0.013159999623894691,0.006130000110715628,-0.0011399999493733048,0.28391000628471375
6513.382800679572,1195789.0,0.011459999717772007,-0.0005000000237487257,-0.0015399999683722854,0.28216999769210815
6513.3838004517875,1195790.0,0.009879999794065952,-0.0033199999015778303,-0.002589999930933118,0.2858699858188629
6513.384800224003,1195791.0,0.008799999952316284,-0.010579999536275864,-0.005489999894052744,0.2809300124645233
6513.385799996218,1195792.0,0.005929999984800816,-0.011529999785125256,0.0013200000394135714,0.2863300144672394
6513.386799768434,1195793.0,0.0009899999713525176,-0.010579999536275864,0.004679999779909849,0.2792400121688843
6513.387799540649,1195794.0,-0.003949999809265137,-0.0017300000181421638,-0.002360000042244792,0.2857399880886078
6513.388799312864,1195795.0,-0.007189999800175428,-0.011309999972581863,0.0008200000156648457,0.2738800048828125
6513.389799085079,1195796.0,-0.008310000412166119,-0.009630000218749046,0.0015899999998509884,0.2865599989891052
6513.390798857295,1195797.0,-0.008539999835193157,0.00418000016361475,0.00031999999191612005,0.2702600061893463
6513.39179862951,1195798.0,-0.009340000338852406,0.013399999588727951,-0.0022700000554323196,0.28578001260757446
6513.3927984017255,1195799.0,-0.009429999627172947,0.013899999670684338,0.0020000000949949026,0.2709999978542328
6513.39379817394,1195800.0,-0.007189999800175428,0.009449999779462814,0.006130000110715628,0.28450000286102295
6513.394797946155,1195801.0,-0.003819999983534217,0.006039999891072512,-0.0018599999602884054,0.27785998582839966
6513.395797718371,1195802.0,-0.0017500000540167093,-0.0007699999841861427,0.0010400000028312206,0.28119999170303345
6513.396797490586,1195803.0,-0.0006300000241026282,-0.005179999861866236,0.0022700000554323196,0.27913999557495117
6513.397797262802,1195804.0,-0.0016599999507889152,-0.0002699999895412475,-0.0036800000816583633,0.2771799862384796
6513.398797035017,1195805.0,-0.0017999999690800905,-0.0006399999838322401,0.0022299999836832285,0.2795099914073944
6513.399796807232,1195806.0,0.0003100000030826777,0.00014000000373926014,-9.000000136438757e-05,0.27625998854637146
6513.400796579447,1195807.0,0.003590000094845891,0.00031999999191612005,-0.0036299999337643385,0.28029000759124756
6513.401796351663,1195808.0,0.007139999885112047,0.0031799999997019768,-0.0017300000181421638,0.27498000860214233
6513.402796123878,1195809.0,0.00965999998152256,0.004769999999552965,0.003949999809265137,0.2780900001525879
6513.4037958960935,1195810.0,0.010739999823272228,0.0045900000259280205,-0.004410000052303076,0.27511999011039734
6513.404795668308,1195811.0,0.0083600003272295,0.00031999999191612005,0.0022700000554323196,0.27955999970436096
6513.405795440523,1195812.0,0.006060000043362379,-0.004040000028908253,0.005770000163465738,0.26833999156951904
6513.406795212739,1195813.0,0.003860000055283308,-0.0051299999468028545,-0.004999999888241291,0.28042998909950256
6513.407794984954,1195814.0,0.0024300001095980406,-0.005679999943822622,-0.002589999930933118,0.2663699984550476
6513.40879475717,1195815.0,-0.0009899999713525176,-0.002409999957308173,-0.000859999970998615,0.27886998653411865
6513.409794529385,1195816.0,-0.005119999870657921,-0.004040000028908253,-0.0015899999998509884,0.2683899998664856
6513.4107943016,1195817.0,-0.006020000204443932,-0.004999999888241291,0.00031999999191612005,0.276309996843338
6513.411794073815,1195818.0,-0.005570000037550926,-0.004129999782890081,0.00031999999191612005,0.2720000147819519
6513.412793846031,1195819.0,-0.003640000009909272,0.00494999997317791,0.003220000071451068,0.273470014333725
6513.413793618246,1195820.0,-0.0007200000109151006,0.006039999891072512,-0.0031300000846385956,0.2780500054359436
6513.414793390461,1195821.0,0.003590000094845891,0.0008200000156648457,0.0002699999895412475,0.26517999172210693
6513.415793162676,1195822.0,0.0052999998442828655,-0.0006399999838322401,0.00267999991774559,0.2745699882507324
6513.416792934891,1195823.0,0.005210000090301037,0.0019499999471008778,0.0010400000028312206,0.27643999457359314
6513.417792707107,1195824.0,0.004310000222176313,0.00031999999191612005,-0.004720000084489584,0.27425000071525574
6513.418792479322,1195825.0,0.0014400000218302011,-4.999999873689376e-05,0.00031999999191612005,0.26802000403404236
6513.419792251538,1195826.0,0.001120000029914081,0.011760000139474869,0.00031999999191612005,0.2698099911212921
6513.420792023752,1195827.0,0.0053900000639259815,0.010490000247955322,0.006039999891072512,0.2744300067424774
6513.421791795968,1195828.0,0.009159999899566174,0.002319999970495701,-0.0015399999683722854,0.2654600143432617
6513.422791568183,1195829.0,0.009700000286102295,0.0024999999441206455,0.0022700000554323196,0.27254998683929443
6513.423791340399,1195830.0,0.009519999846816063,0.003000000026077032,-0.005489999894052744,0.2675600051879883
6513.424791112614,1195831.0,0.008539999835193157,-0.004449999891221523,-0.00014000000373926014,0.2693899869918823
6513.425790884829,1195832.0,0.004670000169426203,-0.007309999782592058,-0.003539999946951866,0.27278000116348267
6513.426790657044,1195833.0,0.0003100000030826777,-0.0030900000128895044,-0.002090000081807375,0.26572999358177185
6513.427790429259,1195834.0,-0.0014400000218302011,-0.004360000137239695,0.0044999998062849045,0.2683899998664856
6513.428790201475,1195835.0,-0.003949999809265137,-0.011760000139474869,-0.0013200000394135714,0.2724199891090393
6513.42978997369,1195836.0,-0.005619999952614307,-0.0072200000286102295,-0.0030900000128895044,0.2653700113296509
6513.430789745906,1195837.0,-0.007280000019818544,0.002360000042244792,0.0016799999866634607,0.26614001393318176
6513.43178951812,1195838.0,-0.008449999615550041,-0.002589999930933118,0.0052200001664459705,0.26787999272346497
6513.432789290336,1195839.0,-0.008449999615550041,-0.004410000052303076,9.000000136438757e-05,0.270579993724823
6513.433789062551,1195840.0,-0.005750000011175871,0.003949999809265137,0.0016299999551847577,0.263949990272522
6513.434788834767,1195841.0,-0.0017999999690800905,0.004129999782890081,-0.00041000000783242285,0.25519999861717224
6513.435788606982,1195842.0,0.0010300000431016088,-0.0006799999973736703,-0.00031999999191612005,0.26642000675201416
6513.436788379197,1195843.0,-0.0012600000482052565,0.002859999891370535,-0.0014100000262260437,0.26747000217437744
6513.437788151412,1195844.0,-0.004720000084489584,0.005539999809116125,-0.0010000000474974513,0.26023998856544495
6513.438787923627,1195845.0,-0.006200000178068876,0.004860000219196081,0.001769999973475933,0.26399001479148865
6513.439787695843,1195846.0,-0.004900000058114529,0.0083600003272295,-0.002090000081807375,0.26802000403404236
6513.440787468058,1195847.0,-0.0027000000700354576,-0.0006399999838322401,-0.0003600000054575503,0.2610599994659424
6513.441787240274,1195848.0,-0.0014400000218302011,-0.002589999930933118,0.0045900000259280205,0.25519999861717224
6513.442787012488,1195849.0,-0.003229999914765358,0.009039999917149544,0.0014100000262260437,0.2604199945926666
6513.443786784704,1195850.0,-0.00800000037997961,0.00686000008136034,-0.006219999864697456,0.2630299925804138
6513.444786556919,1195851.0,-0.013880000449717045,-0.00018000000272877514,0.002360000042244792,0.26600998640060425
6513.4457863291345,1195852.0,-0.02363000065088272,0.0008200000156648457,0.001180000021122396,0.2581300139427185
6513.44678610135,1195853.0,-0.03612000122666359,-0.008220000192523003,-0.0037700000684708357,0.2513599991798401
6513.4477858735645,1195854.0,-0.04967999830842018,-0.012029999867081642,-0.000859999970998615,0.26170000433921814
6513.44878564578,1195855.0,-0.06216999888420105,-0.012029999867081642,0.0011399999493733048,0.26221001148223877
6513.449785417995,1195856.0,-0.07394000142812729,-0.00949000008404255,-0.004679999779909849,0.25360000133514404
6513.450785190211,1195857.0,-0.08239000290632248,-0.003220000071451068,0.002319999970495701,0.25863999128341675
6513.451784962426,1195858.0,-0.09064999967813492,0.0031300000846385956,0.006990000139921904,0.26252999901771545
6513.452784734642,1195859.0,-0.0986500009894371,-0.0007699999841861427,-0.0005000000237487257,0.25648000836372375
6513.453784506856,1195860.0,-0.10978999733924866,-0.0008200000156648457,0.00031999999191612005,0.24939000606536865
6513.454784279072,1195861.0,-0.12363000214099884,0.011490000411868095,0.0010900000343099236,0.258870005607605
6513.455784051287,1195862.0,-0.13639000058174133,0.008630000054836273,0.00014000000373926014,0.26170000433921814
6513.4567838235025,1195863.0,-0.14806999266147614,0.008990000002086163,0.0018599999602884054,0.2558000087738037
6513.457783595718,1195864.0,-0.15695999562740326,0.011850000359117985,0.0028200000524520874,0.24898000061511993
6513.4587833679325,1195865.0,-0.16270999610424042,0.006630000192672014,-0.003269999986514449,0.2610200047492981
6513.459783140148,1195866.0,-0.1653199940919876,0.008630000054836273,0.0019099999917671084,0.25080999732017517
6513.460782912363,1195867.0,-0.1633400022983551,0.0030400000978261232,0.0016799999866634607,0.25571000576019287
6513.461782684579,1195868.0,-0.1588899940252304,0.0033599999733269215,0.0011399999493733048,0.25922998785972595
6513.462782456794,1195869.0,-0.15112000703811646,-0.00044999999227002263,-0.002589999930933118,0.25227001309394836
6513.46378222901,1195870.0,-0.14249999821186066,-0.001180000021122396,-0.0007699999841861427,0.2540999948978424
6513.464782001224,1195871.0,-0.131850004196167,-0.0033199999015778303,-0.00014000000373926014,0.2579500079154968
6513.46578177344,1195872.0,-0.11796999722719193,-0.007180000189691782,-0.00014000000373926014,0.24751000106334686
6513.466781545655,1195873.0,-0.10390999913215637,-0.007670000195503235,0.0019099999917671084,0.2566699981689453
6513.4677813178705,1195874.0,-0.08985000103712082,-0.00803999975323677,-0.00571999978274107,0.2493000030517578
6513.468781090086,1195875.0,-0.07511000335216522,-0.005950000137090683,-0.002630000002682209,0.2555699944496155
6513.4697808623005,1195876.0,-0.05623999983072281,-0.00803999975323677,0.003590000094845891,0.24856999516487122
6513.470780634516,1195877.0,-0.03522000089287758,-0.000590000010561198,-0.0013200000394135714,0.2559800148010254
6513.471780406731,1195878.0,-0.012040000408887863,0.0020000000949949026,0.0036299999337643385,0.24435000121593475
6513.472780178947,1195879.0,0.0142000000923872,0.0022700000554323196,0.0044999998062849045,0.25547999143600464
6513.473779951162,1195880.0,0.04187000170350075,0.005679999943822622,-0.002090000081807375,0.2405499964952469
6513.474779723378,1195881.0,0.07317999750375748,0.006130000110715628,0.004410000052303076,0.2540600001811981
6513.475779495592,1195882.0,0.10870999842882156,-4.999999873689376e-05,0.006539999973028898,0.24192999303340912
6513.476779267808,1195883.0,0.14554999768733978,0.005590000189840794,0.0019099999917671084,0.25387999415397644
6513.477779040023,1195884.0,0.18143999576568604,0.007809999864548445,0.0045900000259280205,0.23954999446868896
6513.4787788122385,1195885.0,0.2111400067806244,0.003590000094845891,0.0012700000079348683,0.251910001039505
6513.479778584454,1195886.0,0.23152999579906464,0.0034099998883903027,-0.0002300000051036477,0.24650999903678894
6513.480778356668,1195887.0,0.24231000244617462,0.003220000071451068,-0.00014000000373926014,0.23813000321388245
6513.481778128884,1195888.0,0.25332000851631165,0.0022700000554323196,-0.0020000000949949026,0.24966000020503998
6513.482777901099,1195889.0,0.2681899964809418,0.005179999861866236,-0.0035000001080334187,0.24898000061511993
6513.483777673315,1195890.0,0.2866100072860718,-0.004310000222176313,-0.0009500000160187483,0.23940999805927277
6513.48477744553,1195891.0,0.3082599937915802,-0.012900000438094139,-0.004809999838471413,0.24856999516487122
6513.485777217745,1195892.0,0.32479000091552734,-0.013489999808371067,-0.004000000189989805,0.24770000576972961
6513.48677698996,1195893.0,0.33044999837875366,-0.007670000195503235,-0.000859999970998615,0.2380799949169159
6513.487776762176,1195894.0,0.33107998967170715,-0.0033599999733269215,-0.0011399999493733048,0.24778999388217926
6513.488776534391,1195895.0,0.3264999985694885,0.0037700000684708357,0.0017300000181421638,0.24677999317646027
6513.4897763066065,1195896.0,0.3202100098133087,0.003449999960139394,-0.00798999983817339,0.2441300004720688
6513.490776078822,1195897.0,0.3114500045776367,-0.00031999999191612005,-0.001230000052601099,0.24000999331474304
6513.491775851036,1195898.0,0.2964499890804291,-0.004040000028908253,-0.0016799999866634607,0.24755999445915222
6513.492775623252,1195899.0,0.2803199887275696,-0.0027199999894946814,0.003719999920576811,0.24494999647140503
6513.493775395467,1195900.0,0.27132999897003174,0.0024999999441206455,-0.0051299999468028545,0.2405499964952469
6513.494775167683,1195901.0,0.2698099911212921,0.0072200000286102295,-0.0006399999838322401,0.24494999647140503
6513.495774939898,1195902.0,0.2682799994945526,0.0027699999045580626,-0.004410000052303076,0.2338699996471405
6513.496774712113,1195903.0,0.2641899883747101,0.004860000219196081,0.005900000222027302,0.24402999877929688
6513.497774484328,1195904.0,0.25839999318122864,0.00267999991774559,-0.002630000002682209,0.2441300004720688
6513.498774256544,1195905.0,0.25687000155448914,-0.0011399999493733048,0.0027199999894946814,0.24129000306129456
6513.499774028759,1195906.0,0.25332000851631165,0.013030000030994415,-0.0007699999841861427,0.23781000077724457
6513.5007738009745,1195907.0,0.241239994764328,0.0129399998113513,0.003449999960139394,0.2448599934577942
6513.50177357319,1195908.0,0.22210000455379486,0.00872000027447939,-0.00018000000272877514,0.2390899956226349
6513.502773345404,1195909.0,0.1986899971961975,0.0044999998062849045,0.0024500000290572643,0.23758000135421753
6513.50377311762,1195910.0,0.17170000076293945,0.00014000000373926014,-0.0019099999917671084,0.24192999303340912
6513.504772889835,1195911.0,0.14699000120162964,-0.009669999592006207,0.00267999991774559,0.23552000522613525
6513.505772662051,1195912.0,0.123089998960495,-0.013530000112950802,-0.003809999907389283,0.23917999863624573
6513.506772434266,1195913.0,0.09802000224590302,-0.011309999972581863,-0.0019499999471008778,0.2377600073814392
6513.507772206481,1195914.0,0.07349000126123428,-0.007809999864548445,-0.004040000028908253,0.2380799949169159
6513.508771978696,1195915.0,0.05138999968767166,-0.010219999589025974,0.00031999999191612005,0.24146999418735504
6513.509771750912,1195916.0,0.0301900003105402,-0.011529999785125256,-0.0022299999836832285,0.22806000709533691
6513.510771523127,1195917.0,0.01221999991685152,0.00018000000272877514,0.005040000192821026,0.24092000722885132
6513.511771295342,1195918.0,-0.0003600000054575503,0.005489999894052744,0.0017300000181421638,0.2363400012254715
6513.512771067557,1195919.0,-0.009119999594986439,0.003220000071451068,0.0063599999994039536,0.23337000608444214
6513.513770839772,1195920.0,-0.014820000156760216,0.01140000019222498,-0.0013599999947473407,0.23940999805927277
6513.514770611988,1195921.0,-0.01841999962925911,0.008449999615550041,0.0044999998062849045,0.23442000150680542
6513.515770384203,1195922.0,-0.02314000017940998,0.00795000046491623,-0.001180000021122396,0.23267999291419983
6513.516770156419,1195923.0,-0.0276699997484684,0.005309999920427799,0.0030400000978261232,0.23871999979019165
6513.517769928634,1195924.0,-0.031939998269081116,0.005040000192821026,-0.0020000000949949026,0.23432999849319458
6513.518769700849,1195925.0,-0.03418999910354614,-0.00044999999227002263,0.003220000071451068,0.2302599996328354
6513.519769473064,1195926.0,-0.033240001648664474,0.002090000081807375,0.0007300000288523734,0.23611000180244446
6513.52076924528,1195927.0,-0.02996000088751316,0.005770000163465738,0.00031999999191612005,0.23360000550746918
6513.521769017495,1195928.0,-0.02727000042796135,0.009039999917149544,-0.0022299999836832285,0.23021000623703003
6513.52276878971,1195929.0,-0.027130000293254852,0.003590000094845891,0.0013200000394135714,0.2345999926328659
6513.523768561925,1195930.0,-0.031539998948574066,-0.0002300000051036477,-0.001820000004954636,0.22934000194072723
6513.52476833414,1195931.0,-0.03809000179171562,-0.0012700000079348683,-0.0013200000394135714,0.23360000550746918
6513.525768106356,1195932.0,-0.04569000005722046,-0.004000000189989805,0.004310000222176313,0.22829000651836395
6513.526767878571,1195933.0,-0.05048999935388565,-0.003909999970346689,-0.002409999957308173,0.23250000178813934
6513.527767650787,1195934.0,-0.05332000181078911,-0.010130000300705433,-4.999999873689376e-05,0.23569999635219574
6513.528767423002,1195935.0,-0.05660000070929527,-0.007670000195503235,0.003000000026077032,0.22860999405384064
6513.529767195217,1195936.0,-0.059119999408721924,-0.002950000111013651,-0.001769999973475933,0.22283999621868134
6513.530766967432,1195937.0,-0.0588500015437603,0.0014100000262260437,-0.0011399999493733048,0.23377999663352966
6513.5317667396475,1195938.0,-0.056779999285936356,0.005489999894052744,0.003220000071451068,0.22860999405384064
6513.532766511863,1195939.0,-0.05445000156760216,-0.0006399999838322401,-0.0009500000160187483,0.2228900045156479
6513.533766284078,1195940.0,-0.05358999967575073,-0.00494999997317791,0.00031999999191612005,0.23135000467300415
6513.534766056293,1195941.0,-0.05192999914288521,-0.00041000000783242285,0.00031999999191612005,0.22883999347686768
6513.535765828508,1195942.0,-0.05099000036716461,-0.006219999864697456,0.00267999991774559,0.22142000496387482
6513.536765600724,1195943.0,-0.05130000039935112,-0.000859999970998615,0.0016799999866634607,0.23135000467300415
6513.537765372939,1195944.0,-0.05274000018835068,-0.0019099999917671084,0.004310000222176313,0.23217999935150146
6513.538765145155,1195945.0,-0.0530100017786026,0.0024999999441206455,0.0002699999895412475,0.23322999477386475
6513.53976491737,1195946.0,-0.048340000212192535,0.009669999592006207,-9.000000136438757e-05,0.22553999722003937
6513.540764689585,1195947.0,-0.04123999923467636,0.01370999962091446,0.0037700000684708357,0.22041000425815582
6513.5417644618,1195948.0,-0.037060000002384186,0.015530000440776348,-0.005040000192821026,0.22957000136375427
6513.5427642340155,1195949.0,-0.0350399985909462,0.013399999588727951,-0.001230000052601099,0.22883999347686768
6513.543764006231,1195950.0,-0.035760000348091125,-0.0009500000160187483,0.0010400000028312206,0.21967999637126923
6513.544763778446,1195951.0,-0.037870001047849655,-0.0015399999683722854,-0.0044999998062849045,0.22883999347686768
6513.545763550661,1195952.0,-0.042410001158714294,-0.007079999893903732,-0.002950000111013651,0.22883999347686768
6513.546763322876,1195953.0,-0.049240000545978546,-0.009039999917149544,0.002409999957308173,0.2217400074005127
6513.547763095092,1195954.0,-0.056779999285936356,-0.00880999956279993,-0.0011399999493733048,0.226500004529953
6513.548762867307,1195955.0,-0.06339000165462494,-0.006579999811947346,0.0016299999551847577,0.23038999736309052
6513.549762639523,1195956.0,-0.06657999753952026,-0.006680000107735395,0.003590000094845891,0.22224000096321106
6513.550762411737,1195957.0,-0.06396999955177307,-0.00044999999227002263,-0.003909999970346689,0.22407999634742737
6513.551762183953,1195958.0,-0.060920000076293945,0.003220000071451068,-0.0003600000054575503,0.22846999764442444
6513.552761956168,1195959.0,-0.05894000083208084,0.0021299999207258224,0.0031300000846385956,0.22251999378204346
6513.5537617283835,1195960.0,-0.05646999925374985,0.003909999970346689,-0.0017300000181421638,0.2236199975013733
6513.554761500599,1195961.0,-0.05144000053405762,0.009039999917149544,0.0014100000262260437,0.22732999920845032
6513.555761272814,1195962.0,-0.047439999878406525,0.0071299998089671135,-0.003449999960139394,0.21703000366687775
6513.556761045029,1195963.0,-0.04806999862194061,0.0045900000259280205,0.003220000071451068,0.2241699993610382
6513.557760817244,1195964.0,-0.05183999985456467,0.0037700000684708357,0.004769999999552965,0.22498999536037445
6513.55876058946,1195965.0,-0.05632999911904335,-0.0012700000079348683,0.0010000000474974513,0.2266400009393692
6513.559760361675,1195966.0,-0.055879998952150345,-0.0015399999683722854,-0.0022700000554323196,0.2195899933576584
6513.560760133891,1195967.0,-0.05372999981045723,0.0014100000262260437,-0.00041000000783242285,0.2159699946641922
6513.561759906105,1195968.0,-0.052650000900030136,0.0021299999207258224,0.003719999920576811,0.22197000682353973
6513.562759678321,1195969.0,-0.05282999947667122,-0.0018599999602884054,-0.004900000058114529,0.225490003824234
6513.563759450536,1195970.0,-0.05372999981045723,-0.0064500002190470695,-0.00041000000783242285,0.21634000539779663
6513.5647592227515,1195971.0,-0.05319000035524368,-0.003539999946951866,0.003220000071451068,0.22297999262809753
6513.565758994967,1195972.0,-0.0545400008559227,-0.0022700000554323196,-0.00749000022187829,0.21794000267982483
6513.566758767182,1195973.0,-0.05821999907493591,-0.006039999891072512,-0.003000000026077032,0.2218800038099289
6513.567758539397,1195974.0,-0.06342999637126923,-0.0028200000524520874,-0.0002699999895412475,0.21866999566555023
6513.568758311612,1195975.0,-0.06716000288724899,-0.00014000000373926014,0.00014000000373926014,0.2184000015258789
6513.569758083828,1195976.0,-0.06791999936103821,0.0021800000686198473,-0.004410000052303076,0.22182999551296234
6513.570757856043,1195977.0,-0.06499999761581421,0.002859999891370535,0.00031999999191612005,0.21126000583171844
6513.571757628259,1195978.0,-0.06154000014066696,0.00014000000373926014,0.009039999917149544,0.2228900045156479
6513.572757400473,1195979.0,-0.05866999924182892,-0.005489999894052744,-0.0015899999998509884,0.20905999839305878
6513.573757172689,1195980.0,-0.058400001376867294,-0.0011399999493733048,-0.00018000000272877514,0.21634000539779663
6513.574756944904,1195981.0,-0.05804000049829483,-0.0015899999998509884,0.003220000071451068,0.21973000466823578
6513.5757567171195,1195982.0,-0.05516999959945679,-9.000000136438757e-05,0.003220000071451068,0.2112099975347519
6513.576756489335,1195983.0,-0.05201999843120575,0.006680000107735395,-4.999999873689376e-05,0.2208700031042099
6513.577756261549,1195984.0,-0.050039999186992645,0.011719999834895134,-0.005859999917447567,0.20833000540733337
6513.578756033765,1195985.0,-0.05012999847531319,0.0071299998089671135,0.000910000002477318,0.22064000368118286
6513.57975580598,1195986.0,-0.0481100007891655,0.009039999917149544,0.0019099999917671084,0.20942999422550201
6513.580755578196,1195987.0,-0.04383999854326248,0.009039999917149544,-0.002630000002682209,0.22041000425815582
6513.581755350411,1195988.0,-0.03765000030398369,0.006719999946653843,-0.0033599999733269215,0.2085999995470047
6513.582755122627,1195989.0,-0.03378000110387802,0.0044999998062849045,0.00031999999191612005,0.2191299945116043
6513.583754894841,1195990.0,-0.03167000040411949,0.00031999999191612005,0.00031999999191612005,0.21126000583171844
6513.584754667057,1195991.0,-0.03136000037193298,-0.004999999888241291,-0.0028200000524520874,0.21665999293327332
6513.585754439272,1195992.0,-0.03539999946951866,-0.00686000008136034,-0.00044999999227002263,0.2119400054216385
6513.5867542114875,1195993.0,-0.042500000447034836,-0.00913000013679266,0.002950000111013651,0.2151000052690506
6513.587753983703,1195994.0,-0.04797999933362007,-0.004040000028908253,-0.00418000016361475,0.21272000670433044
6513.588753755917,1195995.0,-0.05364000052213669,-0.010169999673962593,-0.0031300000846385956,0.212909996509552
6513.589753528133,1195996.0,-0.05965999886393547,-0.006399999838322401,0.0022299999836832285,0.21496999263763428
6513.590753300348,1195997.0,-0.06199000030755997,-0.002589999930933118,0.001230000052601099,0.2062699943780899
6513.591753072564,1195998.0,-0.06029000133275986,-0.0019099999917671084,0.00014000000373926014,0.2175299972295761
6513.592752844779,1195999.0,-0.05641999840736389,0.0030400000978261232,0.0013200000394135714,0.20810000598430634
6513.593752616995,1196000.0,-0.05310000106692314,0.0024999999441206455,0.004410000052303076,0.21468999981880188
6513.594752389209,1196001.0,-0.04932999983429909,-0.0011399999493733048,-0.0027699999045580626,0.20938000082969666
6513.595752161425,1196002.0,-0.045779999345541,0.004860000219196081,-0.00031999999191612005,0.21126000583171844
6513.59675193364,1196003.0,-0.04262999817728996,0.0051299999468028545,0.0008200000156648457,0.21345999836921692
6513.597751705855,1196004.0,-0.04061000049114227,0.007579999975860119,-0.0015399999683722854,0.20403000712394714
6513.598751478071,1196005.0,-0.03660999983549118,-0.0007699999841861427,-0.001820000004954636,0.2157900035381317
6513.599751250285,1196006.0,-0.02996000088751316,0.006130000110715628,0.002409999957308173,0.2054000049829483
6513.600751022501,1196007.0,-0.024170000106096268,0.008489999920129776,0.0029100000392645597,0.21326999366283417
6513.601750794716,1196008.0,-0.022190000861883163,0.005400000140070915,0.002859999891370535,0.20905999839305878
6513.602750566932,1196009.0,-0.01923000067472458,0.005040000192821026,-0.0013200000394135714,0.20356999337673187
6513.603750339147,1196010.0,-0.019050000235438347,0.0014100000262260437,-0.0002699999895412475,0.21419000625610352
6513.604750111363,1196011.0,-0.01940999925136566,0.0021299999207258224,-0.002950000111013651,0.20489999651908875
6513.605749883577,1196012.0,-0.02281999960541725,-0.0037700000684708357,-0.004720000084489584,0.212909996509552
6513.606749655793,1196013.0,-0.029020000249147415,-0.005489999894052744,0.0013200000394135714,0.20247000455856323
6513.607749428008,1196014.0,-0.03633999824523926,-0.009720000438392162,0.0013200000394135714,0.21126000583171844
6513.608749200223,1196015.0,-0.04106000065803528,-0.011669999919831753,-0.0015899999998509884,0.20979000627994537
6513.609748972439,1196016.0,-0.04258999973535538,-0.003449999960139394,0.003220000071451068,0.20919999480247498
6513.610748744653,1196017.0,-0.04295000061392784,0.00031999999191612005,0.00031999999191612005,0.20795999467372894
6513.611748516869,1196018.0,-0.0428600013256073,-0.002589999930933118,-0.0016299999551847577,0.2124900072813034
6513.612748289084,1196019.0,-0.0436599999666214,0.002360000042244792,-0.0010400000028312206,0.20173999667167664
6513.6137480613,1196020.0,-0.04326000064611435,0.003220000071451068,0.0008200000156648457,0.21299999952316284
6513.614747833515,1196021.0,-0.042319998145103455,0.0024500000290572643,-0.0007699999841861427,0.20009000599384308
6513.61574760573,1196022.0,-0.0422700010240078,0.010579999536275864,-0.00875999964773655,0.21166999638080597
6513.616747377945,1196023.0,-0.04196000099182129,0.007180000189691782,0.001180000021122396,0.20247000455856323
6513.6177471501605,1196024.0,-0.0393499992787838,-0.0006399999838322401,-0.001180000021122396,0.2103399932384491
6513.618746922376,1196025.0,-0.03714999929070473,-0.003539999946951866,4.999999873689376e-05,0.20494000613689423
6513.619746694591,1196026.0,-0.03319999948143959,-0.0033599999733269215,0.005040000192821026,0.2097499966621399
6513.620746466807,1196027.0,-0.027939999476075172,0.00031999999191612005,-0.0007300000288523734,0.2046699970960617
6513.621746239021,1196028.0,-0.02474999986588955,0.003220000071451068,-0.0014100000262260437,0.20810000598430634
6513.622746011237,1196029.0,-0.02507000043988228,0.0035000001080334187,0.005590000189840794,0.2054000049829483
6513.623745783452,1196030.0,-0.0258799996227026,0.005590000189840794,-0.000539999979082495,0.20781999826431274
6513.624745555668,1196031.0,-0.025609999895095825,0.003590000094845891,-0.0062699997797608376,0.20430000126361847
6513.625745327883,1196032.0,-0.026590000838041306,0.0015899999998509884,0.00031999999191612005,0.2078700065612793
6513.626745100098,1196033.0,-0.03305999934673309,-0.005489999894052744,0.00018000000272877514,0.2054000049829483
6513.627744872313,1196034.0,-0.043219998478889465,-0.006949999835342169,-0.00418000016361475,0.20672999322414398
6513.6287446445285,1196035.0,-0.0510299988090992,0.000859999970998615,0.00031999999191612005,0.20810000598430634
6513.629744416744,1196036.0,-0.054990001022815704,0.0012700000079348683,0.004679999779909849,0.20576000213623047
6513.630744188959,1196037.0,-0.05542999878525734,-0.001230000052601099,-0.003539999946951866,0.20833000540733337
6513.631743961175,1196038.0,-0.05480999872088432,-0.00031999999191612005,0.0016299999551847577,0.20663000643253326
6513.632743733389,1196039.0,-0.05403999984264374,0.0016299999551847577,0.002090000081807375,0.20723000168800354
6513.633743505605,1196040.0,-0.051750000566244125,-0.0011399999493733048,-0.0035000001080334187,0.20494000613689423
6513.63474327782,1196041.0,-0.050450000911951065,-0.0006399999838322401,-0.0015899999998509884,0.20631000399589539
6513.635743050036,1196042.0,-0.04842999950051308,-0.003949999809265137,0.0022299999836832285,0.20609000325202942
6513.636742822251,1196043.0,-0.045779999345541,-0.0022299999836832285,-0.006130000110715628,0.20905999839305878
6513.637742594466,1196044.0,-0.04397999867796898,0.00031999999191612005,-0.0033199999015778303,0.19684000313282013
6513.638742366681,1196045.0,-0.043219998478889465,-0.0028200000524520874,0.002409999957308173,0.2046699970960617
6513.6397421388965,1196046.0,-0.04024999961256981,0.008310000412166119,0.0009500000160187483,0.20572000741958618
6513.640741911112,1196047.0,-0.035259999334812164,0.007579999975860119,0.003809999907389283,0.20100000500679016
6513.641741683327,1196048.0,-0.029920000582933426,0.005770000163465738,-0.0013200000394135714,0.20850999653339386
6513.642741455542,1196049.0,-0.02353999949991703,0.00267999991774559,0.0014100000262260437,0.1966100037097931
6513.643741227757,1196050.0,-0.020659999921917915,0.00031999999191612005,-0.006899999920278788,0.20508000254631042
6513.644740999973,1196051.0,-0.021560000255703926,-0.0036800000816583633,-0.002630000002682209,0.20489999651908875
6513.645740772188,1196052.0,-0.028440000489354134,-0.008990000002086163,0.003220000071451068,0.20416000485420227
6513.646740544404,1196053.0,-0.035760000348091125,-0.009309999644756317,-0.0052200001664459705,0.19532999396324158
6513.647740316619,1196054.0,-0.04276999831199646,-0.008080000057816505,0.0019499999471008778,0.207179993391037
6513.648740088834,1196055.0,-0.046539999544620514,-0.006810000166296959,0.0010400000028312206,0.1963299959897995
6513.649739861049,1196056.0,-0.049059998244047165,0.0010400000028312206,0.0030900000128895044,0.20677000284194946
6513.6507396332645,1196057.0,-0.04861000180244446,-0.006579999811947346,0.0034099998883903027,0.19460000097751617
6513.65173940548,1196058.0,-0.046720001846551895,0.003220000071451068,-0.001500000013038516,0.20443999767303467
6513.652739177695,1196059.0,-0.044520001858472824,0.006130000110715628,-0.004220000002533197,0.20448000729084015
6513.65373894991,1196060.0,-0.040699999779462814,0.002859999891370535,0.001769999973475933,0.19825999438762665
6513.654738722125,1196061.0,-0.03912999853491783,0.00031999999191612005,-0.0015899999998509884,0.20388999581336975
6513.655738494341,1196062.0,-0.03711000084877014,-0.000859999970998615,-0.003449999960139394,0.19844000041484833
6513.656738266556,1196063.0,-0.03621000051498413,0.005630000028759241,0.002859999891370535,0.20393000543117523
6513.657738038772,1196064.0,-0.03418999910354614,0.00031999999191612005,0.00031999999191612005,0.19753000140190125
6513.658737810987,1196065.0,-0.03181000053882599,0.0028200000524520874,0.006399999838322401,0.20508000254631042
6513.659737583202,1196066.0,-0.02928999997675419,0.016529999673366547,-0.005900000222027302,0.1999099999666214
6513.660737355417,1196067.0,-0.026319999247789383,0.01775999926030636,-9.000000136438757e-05,0.1978899985551834
6513.6617371276325,1196068.0,-0.021970000118017197,0.016759999096393585,0.0014100000262260437,0.20393000543117523
6513.662736899848,1196069.0,-0.0175199992954731,0.004769999999552965,0.003590000094845891,0.19345000386238098
6513.663736672063,1196070.0,-0.015180000104010105,0.0019499999471008778,0.004900000058114529,0.19844000041484833
6513.664736444278,1196071.0,-0.017340000718832016,-0.004040000028908253,-0.0036299999337643385,0.2006399929523468
6513.665736216493,1196072.0,-0.02201000042259693,-0.007449999917298555,0.0002300000051036477,0.196150004863739
6513.666735988709,1196073.0,-0.027310000732541084,-0.013220000080764294,-0.0027699999045580626,0.2027900069952011
6513.667735760924,1196074.0,-0.033959999680519104,-0.00839999970048666,0.001820000004954636,0.19276000559329987
6513.66873553314,1196075.0,-0.03765000030398369,-0.00913000013679266,-0.002630000002682209,0.1964700073003769
6513.669735305355,1196076.0,-0.03925999999046326,-0.005489999894052744,0.001500000013038516,0.20091000199317932
6513.67073507757,1196077.0,-0.03809000179171562,0.004129999782890081,-0.0021800000686198473,0.1899300068616867
6513.671734849785,1196078.0,-0.036479998379945755,-0.00014000000373926014,0.004040000028908253,0.19954000413417816
6513.6727346220005,1196079.0,-0.036970000714063644,-0.004410000052303076,-0.003539999946951866,0.19075000286102295
6513.673734394216,1196080.0,-0.036660000681877136,0.0010400000028312206,0.000859999970998615,0.20081999897956848
6513.674734166431,1196081.0,-0.036479998379945755,0.0014100000262260437,-0.001230000052601099,0.18877999484539032
6513.675733938646,1196082.0,-0.03844999894499779,-0.0008200000156648457,-0.0008200000156648457,0.19857999682426453
6513.676733710861,1196083.0,-0.03962000086903572,0.00267999991774559,0.003449999960139394,0.1972000002861023
6513.677733483077,1196084.0,-0.04016000032424927,-0.0045900000259280205,-0.0015899999998509884,0.19606000185012817
6513.678733255292,1196085.0,-0.03844999894499779,0.003590000094845891,-0.00044999999227002263,0.1973000019788742
6513.679733027508,1196086.0,-0.03413999825716019,0.0031799999997019768,-0.00203999993391335,0.19307999312877655
6513.680732799722,1196087.0,-0.028710000216960907,0.0033599999733269215,-0.00203999993391335,0.1980700045824051
6513.681732571938,1196088.0,-0.025609999895095825,0.006490000057965517,0.003539999946951866,0.1925400048494339
6513.682732344153,1196089.0,-0.024890000000596046,-0.0013200000394135714,-0.0019099999917671084,0.19771000742912292
6513.683732116368,1196090.0,-0.02345000021159649,-0.0033599999733269215,0.0024999999441206455,0.18919000029563904
6513.684731888584,1196091.0,-0.02443999983370304,0.001180000021122396,-0.004040000028908253,0.19495999813079834
6513.685731660799,1196092.0,-0.028750000521540642,0.006399999838322401,-0.00014000000373926014,0.1974799931049347
6513.686731433014,1196093.0,-0.034860000014305115,-0.003220000071451068,-0.004769999999552965,0.18883000314235687
6513.687731205229,1196094.0,-0.03853999823331833,-0.010490000247955322,-0.0034099998883903027,0.1983499974012375
6513.688730977445,1196095.0,-0.039400000125169754,-0.0015399999683722854,0.0035000001080334187,0.1893800050020218
6513.68973074966,1196096.0,-0.04042999818921089,-0.0016799999866634607,-0.0007699999841861427,0.19600999355316162
6513.690730521876,1196097.0,-0.04187000170350075,0.0024500000290572643,0.0010000000474974513,0.19423000514507294
6513.69173029409,1196098.0,-0.043310001492500305,0.004410000052303076,0.0019499999471008778,0.19144000113010406
6513.692730066306,1196099.0,-0.043800000101327896,0.005900000222027302,-0.004769999999552965,0.19482000172138214
6513.693729838521,1196100.0,-0.043129999190568924,0.00031999999191612005,0.001230000052601099,0.18964999914169312
6513.694729610736,1196101.0,-0.04222999885678291,-0.0071299998089671135,-0.0011399999493733048,0.19495999813079834
6513.695729382952,1196102.0,-0.039980001747608185,-0.004040000028908253,-0.0021299999207258224,0.18964999914169312
6513.696729155167,1196103.0,-0.03880999982357025,-0.006130000110715628,0.002409999957308173,0.19345000386238098
6513.697728927382,1196104.0,-0.037379998713731766,-0.006949999835342169,0.003860000055283308,0.1913899928331375
6513.698728699597,1196105.0,-0.03423000127077103,0.00031999999191612005,0.00031999999191612005,0.19294999539852142
6513.699728471813,1196106.0,-0.03027999959886074,0.006130000110715628,0.002859999891370535,0.1916700005531311
6513.700728244028,1196107.0,-0.02745000086724758,0.003220000071451068,-0.0003600000054575503,0.1933099925518036
6513.701728016244,1196108.0,-0.023000000044703484,0.010449999943375587,-0.0030900000128895044,0.1892399936914444
6513.702727788458,1196109.0,-0.01711999997496605,0.014399999752640724,0.0019499999471008778,0.19423000514507294
6513.7037275606735,1196110.0,-0.013299999758601189,0.00795000046491623,-0.007079999893903732,0.18745000660419464
6513.704727332889,1196111.0,-0.01257999986410141,0.005859999917447567,-0.001230000052601099,0.1950100064277649
6513.705727105104,1196112.0,-0.014109999872744083,-0.004220000002533197,0.002360000042244792,0.18337999284267426
6513.70672687732,1196113.0,-0.0185100007802248,-0.005679999943822622,-0.0016799999866634607,0.19303999841213226
6513.707726649534,1196114.0,-0.021700000390410423,-0.006579999811947346,0.0022299999836832285,0.19101999700069427
6513.70872642175,1196115.0,-0.020479999482631683,-0.006949999835342169,0.0016299999551847577,0.18723000586032867
6513.709726193965,1196116.0,-0.02012999914586544,-0.004360000137239695,-0.0051299999468028545,0.19193999469280243
6513.710725966181,1196117.0,-0.020659999921917915,-0.00267999991774559,0.003220000071451068,0.18658000230789185
6513.711725738396,1196118.0,-0.023719999939203262,-0.000859999970998615,-0.0025400000158697367,0.19047999382019043
6513.712725510612,1196119.0,-0.029920000582933426,-0.001500000013038516,0.0007699999841861427,0.19349999725818634
6513.713725282826,1196120.0,-0.035760000348091125,0.00031999999191612005,0.0021299999207258224,0.1848900020122528
6513.7147250550415,1196121.0,-0.037379998713731766,0.0013200000394135714,-0.002409999957308173,0.19075000286102295
6513.715724827257,1196122.0,-0.035670001059770584,0.00014000000373926014,0.0017300000181421638,0.18636000156402588
6513.716724599472,1196123.0,-0.03522000089287758,0.005859999917447567,0.004809999838471413,0.18782000243663788
6513.717724371688,1196124.0,-0.03539999946951866,-0.0006399999838322401,-0.002360000042244792,0.19047999382019043
6513.718724143902,1196125.0,-0.03347000107169151,-0.004220000002533197,-0.004040000028908253,0.18140999972820282
6513.719723916118,1196126.0,-0.028929999098181725,0.0044999998062849045,0.00031999999191612005,0.1921200007200241
6513.720723688333,1196127.0,-0.02191999927163124,0.01030999980866909,0.004310000222176313,0.1843000054359436
6513.721723460549,1196128.0,-0.016170000657439232,0.007579999975860119,4.999999873689376e-05,0.1898300051689148
6513.722723232764,1196129.0,-0.01384000014513731,0.010490000247955322,0.0030900000128895044,0.18300999701023102
6513.72372300498,1196130.0,-0.014639999717473984,0.002950000111013651,-0.0009500000160187483,0.1875
6513.724722777194,1196131.0,-0.01923000067472458,0.0009500000160187483,-4.999999873689376e-05,0.1883700042963028
6513.7257225494095,1196132.0,-0.02515999972820282,-0.002950000111013651,-0.00571999978274107,0.18050000071525574
6513.726722321625,1196133.0,-0.028750000521540642,-0.00749000022187829,0.0027699999045580626,0.19033999741077423
6513.72772209384,1196134.0,-0.030460000038146973,-0.005489999894052744,0.00018000000272877514,0.18196000158786774
6513.728721866056,1196135.0,-0.032430000603199005,-0.00749000022187829,-0.0028200000524520874,0.1873600035905838
6513.72972163827,1196136.0,-0.03359999880194664,-0.005859999917447567,0.0010400000028312206,0.1890999972820282
6513.730721410486,1196137.0,-0.03387000039219856,-0.002630000002682209,0.0013200000394135714,0.18196000158786774
6513.731721182701,1196138.0,-0.033240001648664474,-0.0008200000156648457,-0.004410000052303076,0.17815999686717987
6513.732720954917,1196139.0,-0.03359999880194664,0.00031999999191612005,0.0045900000259280205,0.18782000243663788
6513.733720727132,1196140.0,-0.03342000022530556,0.005040000192821026,-0.0010900000343099236,0.18306000530719757
6513.7347204993475,1196141.0,-0.03189999982714653,0.006630000192672014,-0.004410000052303076,0.17893999814987183
6513.735720271562,1196142.0,-0.028119999915361404,0.006990000139921904,0.00031999999191612005,0.18323999643325806
6513.7367200437775,1196143.0,-0.026729999110102654,0.003220000071451068,0.0015899999998509884,0.18671999871730804
6513.737719815993,1196144.0,-0.025830000638961792,0.001769999973475933,-0.004040000028908253,0.18137000501155853
6513.738719588208,1196145.0,-0.026319999247789383,-0.004769999999552965,0.0015399999683722854,0.17829999327659607
6513.739719360424,1196146.0,-0.024800000712275505,-4.999999873689376e-05,0.003000000026077032,0.1767899990081787
6513.740719132638,1196147.0,-0.01779000088572502,0.002409999957308173,0.002859999891370535,0.1838800013065338
6513.741718904854,1196148.0,-0.010780000127851963,0.002589999930933118,-0.0007300000288523734,0.1848900020122528
6513.742718677069,1196149.0,-0.00646999990567565,-0.0007699999841861427,-0.000910000002477318,0.17792999744415283
6513.743718449285,1196150.0,-0.004040000028908253,-0.0030900000128895044,0.0,0.1808599978685379
6513.7447182215,1196151.0,-0.00418000016361475,0.0021299999207258224,-0.0045900000259280205,0.1837500035762787
6513.7457179937155,1196152.0,-0.007499999832361937,-0.0019099999917671084,-0.000910000002477318,0.17994999885559082
6513.74671776593,1196153.0,-0.014290000312030315,-0.002589999930933118,0.00031999999191612005,0.17496000230312347
6513.7477175381455,1196154.0,-0.02102000080049038,-0.00913000013679266,-0.0006399999838322401,0.1828799992799759
6513.748717310361,1196155.0,-0.02686000056564808,-0.0002300000051036477,0.0018599999602884054,0.17531999945640564
6513.749717082576,1196156.0,-0.030910000205039978,-0.00041000000783242285,-0.003000000026077032,0.1718900054693222
6513.750716854792,1196157.0,-0.03175999969244003,0.00031999999191612005,0.0016299999551847577,0.1815900057554245
6513.751716627006,1196158.0,-0.030910000205039978,0.0033599999733269215,0.002950000111013651,0.17829999327659607
6513.752716399222,1196159.0,-0.029829999431967735,0.003809999907389283,-0.0045900000259280205,0.17111000418663025
6513.753716171437,1196160.0,-0.02703999914228916,0.001769999973475933,9.000000136438757e-05,0.18007999658584595
6513.754715943653,1196161.0,-0.025609999895095825,-4.999999873689376e-05,0.0019499999471008778,0.176829993724823
6513.755715715868,1196162.0,-0.02556000091135502,9.000000136438757e-05,-0.0036800000816583633,0.17215999960899353
6513.756715488083,1196163.0,-0.025520000606775284,-0.001769999973475933,0.00031999999191612005,0.177839994430542
6513.757715260298,1196164.0,-0.02515999972820282,0.0028200000524520874,0.0002300000051036477,0.18062999844551086
6513.7587150325135,1196165.0,-0.02474999986588955,0.00031999999191612005,-0.002319999970495701,0.17298999428749084
6513.759714804729,1196166.0,-0.020889999344944954,0.004129999782890081,0.002360000042244792,0.1760600060224533
6513.760714576944,1196167.0,-0.015990000218153,0.011169999837875366,0.001230000052601099,0.17385999858379364
6513.76171434916,1196168.0,-0.012260000221431255,0.006130000110715628,-0.0034099998883903027,0.1746399998664856
6513.762714121374,1196169.0,-0.010060000233352184,0.0014100000262260437,0.003220000071451068,0.17317000031471252
6513.76371389359,1196170.0,-0.01131999958306551,0.0036299999337643385,-0.0033199999015778303,0.17600999772548676
6513.764713665805,1196171.0,-0.014550000429153442,-0.001500000013038516,0.00031999999191612005,0.16877999901771545
6513.765713438021,1196172.0,-0.020570000633597374,-0.006769999861717224,-0.0010900000343099236,0.17674000561237335
6513.766713210236,1196173.0,-0.025520000606775284,-0.00949000008404255,-0.003719999920576811,0.16951000690460205
6513.767712982451,1196174.0,-0.028119999915361404,-0.010809999890625477,-0.00041000000783242285,0.17389999330043793
6513.768712754666,1196175.0,-0.03297000005841255,-0.0036299999337643385,-0.0028200000524520874,0.16571000218391418
6513.769712526881,1196176.0,-0.038989998400211334,-0.0016299999551847577,-0.000590000010561198,0.17560000717639923
6513.770712299097,1196177.0,-0.04187000170350075,-0.005630000028759241,0.006130000110715628,0.16502000391483307
6513.771712071312,1196178.0,-0.040070001035928726,-0.0021299999207258224,-0.002950000111013651,0.17023999989032745
6513.772711843527,1196179.0,-0.036479998379945755,-0.007899999618530273,0.003719999920576811,0.17317000031471252
6513.773711615742,1196180.0,-0.03440999984741211,0.004269999917596579,-0.0019499999471008778,0.16575999557971954
6513.774711387958,1196181.0,-0.03369000181555748,0.004629999864846468,0.00031999999191612005,0.1621900051832199
6513.775711160173,1196182.0,-0.03387000039219856,0.005040000192821026,0.00018000000272877514,0.17166000604629517
6513.776710932389,1196183.0,-0.03175999969244003,0.004679999779909849,-0.0051299999468028545,0.1639299988746643
6513.777710704604,1196184.0,-0.028389999642968178,0.007269999943673611,0.00014000000373926014,0.16057999432086945
6513.778710476819,1196185.0,-0.02515999972820282,0.0024999999441206455,0.0031799999997019768,0.17005999386310577
6513.779710249034,1196186.0,-0.022910000756382942,0.005679999943822622,-0.000910000002477318,0.16479000449180603
6513.780710021249,1196187.0,-0.02012999914586544,0.008580000139772892,0.003220000071451068,0.16003000736236572
6513.781709793465,1196188.0,-0.01679999940097332,0.005770000163465738,-0.0009500000160187483,0.16877999901771545
6513.78270956568,1196189.0,-0.012849999591708183,0.0072200000286102295,-0.0008200000156648457,0.16241000592708588
6513.783709337895,1196190.0,-0.01221999991685152,0.004679999779909849,9.000000136438757e-05,0.158160001039505
6513.78470911011,1196191.0,-0.014109999872744083,-0.0015399999683722854,-0.0011399999493733048,0.16767999529838562
6513.785708882326,1196192.0,-0.016979999840259552,-0.00798999983817339,-0.0064500002190470695,0.1594800055027008
6513.786708654541,1196193.0,-0.02061999961733818,-0.012670000083744526,0.0024500000290572643,0.16730999946594238
6513.787708426757,1196194.0,-0.023669999092817307,-0.017710000276565552,-0.006089999806135893,0.1577499955892563
6513.788708198972,1196195.0,-0.025340000167489052,-0.011850000359117985,0.00031999999191612005,0.16603000462055206
6513.7897079711865,1196196.0,-0.02776000089943409,-0.003949999809265137,0.00031999999191612005,0.15825000405311584
6513.790707743402,1196197.0,-0.029920000582933426,0.0016799999866634607,0.003590000094845891,0.16356000304222107
6513.791707515617,1196198.0,-0.02996000088751316,0.00203999993391335,-0.003449999960139394,0.1581999957561493
6513.792707287833,1196199.0,-0.026499999687075615,0.004679999779909849,0.00031999999191612005,0.16255000233650208
6513.793707060048,1196200.0,-0.020889999344944954,0.004540000110864639,0.005400000140070915,0.1590700000524521
6513.794706832263,1196201.0,-0.01679999940097332,0.014120000414550304,-0.00031999999191612005,0.16008000075817108
6513.795706604478,1196202.0,-0.012620000168681145,0.019750000908970833,-0.0022700000554323196,0.15934999287128448
6513.796706376694,1196203.0,-0.008310000412166119,0.005040000192821026,0.0037700000684708357,0.16031000018119812
6513.797706148909,1196204.0,-0.005840000230818987,-0.004720000084489584,-0.0022299999836832285,0.15851999819278717
6513.798705921125,1196205.0,-0.004129999782890081,-0.009850000031292439,-0.0002699999895412475,0.15842999517917633
6513.79970569334,1196206.0,-0.0015300000086426735,9.000000136438757e-05,-0.00041000000783242285,0.15682999789714813
6513.8007054655545,1196207.0,0.001120000029914081,0.003000000026077032,-0.00044999999227002263,0.15884000062942505
6513.80170523777,1196208.0,0.004040000028908253,-0.0016799999866634607,0.004449999891221523,0.1547199934720993
6513.802705009985,1196209.0,0.005929999984800816,0.0022299999836832285,-0.0027699999045580626,0.15756000578403473
6513.803704782201,1196210.0,0.006020000204443932,-4.999999873689376e-05,-0.004040000028908253,0.1548600047826767
6513.804704554416,1196211.0,0.006649999879300594,-0.003909999970346689,0.001769999973475933,0.15669000148773193
6513.805704326631,1196212.0,0.006560000125318766,-0.003909999970346689,-0.002360000042244792,0.1555500030517578
6513.806704098846,1196213.0,0.004000000189989805,-0.005859999917447567,-0.0030900000128895044,0.15535999834537506
6513.807703871062,1196214.0,0.0008099999977275729,-0.008270000107586384,-0.002589999930933118,0.1555899977684021
6513.808703643277,1196215.0,-0.0014400000218302011,-0.00494999997317791,0.001230000052601099,0.15523000061511993
6513.809703415493,1196216.0,-0.0018899999558925629,-0.004809999838471413,-0.0010000000474974513,0.15363000333309174
6513.810703187708,1196217.0,-0.0002699999895412475,-0.003449999960139394,-0.0027199999894946814,0.15363000333309174
6513.8117029599225,1196218.0,0.0024300001095980406,-0.001180000021122396,0.00031999999191612005,0.15618999302387238
6513.812702732138,1196219.0,0.004720000084489584,0.003449999960139394,0.004679999779909849,0.14790000021457672
6513.813702504353,1196220.0,0.006920000072568655,0.005679999943822622,-0.0021299999207258224,0.15633000433444977
6513.814702276569,1196221.0,0.008799999952316284,0.009359999559819698,-0.0033599999733269215,0.1466200053691864
6513.815702048784,1196222.0,0.008630000054836273,0.0037700000684708357,0.0024500000290572643,0.1555899977684021
6513.816701820999,1196223.0,0.007369999773800373,-0.0010400000028312206,0.0037700000684708357,0.14634999632835388
6513.817701593214,1196224.0,0.006060000043362379,-0.0028200000524520874,0.0002699999895412475,0.1547199934720993
6513.81870136543,1196225.0,0.0047599999234080315,0.0016799999866634607,0.00031999999191612005,0.1467999964952469
6513.819701137645,1196226.0,0.005260000005364418,0.0021299999207258224,0.001449999981559813,0.14510999619960785
6513.8207009098605,1196227.0,0.007770000025629997,0.007860000245273113,-0.0035000001080334187,0.1525699943304062
6513.821700682075,1196228.0,0.010239999741315842,0.006130000110715628,0.00031999999191612005,0.15092000365257263
6513.8227004542905,1196229.0,0.014550000429153442,0.001769999973475933,0.0020000000949949026,0.1453399956226349
6513.823700226506,1196230.0,0.01720999926328659,-0.000910000002477318,-0.001820000004954636,0.14895999431610107
6513.824699998721,1196231.0,0.017249999567866325,-0.000590000010561198,-0.0044999998062849045,0.15119999647140503
6513.825699770937,1196232.0,0.015449999831616879,-0.0063599999994039536,-0.0021299999207258224,0.14946000277996063
6513.826699543152,1196233.0,0.0129399998113513,-0.007670000195503235,0.0007699999841861427,0.14464999735355377
6513.827699315367,1196234.0,0.009750000201165676,0.0045900000259280205,-0.007860000245273113,0.15001000463962555
6513.828699087582,1196235.0,0.00773000018671155,-0.003949999809265137,0.00031999999191612005,0.14419999718666077
6513.829698859798,1196236.0,0.005969999823719263,-0.005539999809116125,0.00203999993391335,0.14754000306129456
6513.830698632013,1196237.0,0.001930000027641654,-0.005270000081509352,-0.0034099998883903027,0.14712999761104584
6513.8316984042285,1196238.0,-0.0020699999295175076,-0.00203999993391335,0.008670000359416008,0.14094999432563782
6513.832698176443,1196239.0,-0.001979999942705035,-0.0022700000554323196,0.00031999999191612005,0.15073999762535095
6513.8336979486585,1196240.0,0.00022000000171829015,0.003949999809265137,0.0027699999045580626,0.14223000407218933
6513.834697720874,1196241.0,0.00279000005684793,0.002950000111013651,-0.0003600000054575503,0.14790000021457672
6513.835697493089,1196242.0,0.004399999976158142,0.003590000094845891,-0.003539999946951866,0.14461000263690948
6513.836697265305,1196243.0,0.005840000230818987,0.0045900000259280205,0.005400000140070915,0.13985000550746918
6513.837697037519,1196244.0,0.007639999967068434,0.00014000000373926014,0.0014100000262260437,0.1467999964952469
6513.838696809735,1196245.0,0.009569999761879444,0.008489999920129776,-0.002589999930933118,0.14754000306129456
6513.83969658195,1196246.0,0.016259999945759773,0.007899999618530273,-0.003949999809265137,0.14249999821186066
6513.840696354166,1196247.0,0.021290000528097153,0.0036800000816583633,0.0014100000262260437,0.13878999650478363
6513.841696126381,1196248.0,0.024529999122023582,0.005040000192821026,0.0002699999895412475,0.14438000321388245
6513.8426958985965,1196249.0,0.02694999985396862,0.0044999998062849045,-0.0018599999602884054,0.14607000350952148
6513.843695670811,1196250.0,0.02606000006198883,-0.0044999998062849045,0.00267999991774559,0.1378300040960312
6513.8446954430265,1196251.0,0.021740000694990158,0.00031999999191612005,0.0006799999973736703,0.1434600055217743
6513.845695215242,1196252.0,0.013120000250637531,-0.002589999930933118,-0.002630000002682209,0.14529000222682953
6513.846694987457,1196253.0,0.002520000096410513,-0.006219999864697456,-0.0013200000394135714,0.14295999705791473
6513.847694759673,1196254.0,-0.00646999990567565,-0.007180000189691782,0.0013599999947473407,0.13792000710964203
6513.848694531887,1196255.0,-0.011989999562501907,-0.005859999917447567,0.0016799999866634607,0.1360899955034256
6513.849694304103,1196256.0,-0.01307000033557415,-0.005270000081509352,0.00031999999191612005,0.14332999289035797
6513.850694076318,1196257.0,-0.009879999794065952,-0.013939999975264072,-0.0033199999015778303,0.1418199986219406
6513.851693848534,1196258.0,-0.004399999976158142,-0.00949000008404255,0.00031999999191612005,0.13595999777317047
6513.852693620749,1196259.0,-9.000000136438757e-05,-0.0015899999998509884,-0.00044999999227002263,0.13407999277114868
6513.8536933929645,1196260.0,0.0052999998442828655,-0.0025400000158697367,0.003220000071451068,0.14191000163555145
6513.854693165179,1196261.0,0.009340000338852406,-0.00014000000373926014,-0.0021800000686198473,0.13755999505519867
6513.855692937394,1196262.0,0.011140000075101852,0.0002699999895412475,0.0052200001664459705,0.13966000080108643
6513.85669270961,1196263.0,0.013159999623894691,0.007579999975860119,-0.002360000042244792,0.14094999432563782
6513.857692481825,1196264.0,0.015540000051259995,0.0203000009059906,0.0018599999602884054,0.1343500018119812
6513.858692254041,1196265.0,0.016620000824332237,0.01998000033199787,-0.0028200000524520874,0.1399800032377243
6513.859692026255,1196266.0,0.019859999418258667,0.022210000082850456,-0.002950000111013651,0.13576999306678772
6513.860691798471,1196267.0,0.025699999183416367,0.012849999591708183,0.006089999806135893,0.13344000279903412
6513.861691570686,1196268.0,0.030950000509619713,0.00749000022187829,0.00031999999191612005,0.13966000080108643
6513.862691342902,1196269.0,0.03558000177145004,0.0013599999947473407,-0.0009500000160187483,0.14154000580310822
6513.863691115117,1196270.0,0.03844999894499779,-0.006310000084340572,0.0031799999997019768,0.13315999507904053
6513.8646908873325,1196271.0,0.03558000177145004,-0.009220000356435776,-0.004089999943971634,0.13178999722003937
6513.865690659547,1196272.0,0.02515999972820282,-0.011760000139474869,-0.004310000222176313,0.14008000493049622
6513.866690431762,1196273.0,0.01257999986410141,-0.011529999785125256,0.002409999957308173,0.13325999677181244
6513.867690203978,1196274.0,0.002520000096410513,-0.00839999970048666,0.0014100000262260437,0.1391099989414215
6513.868689976193,1196275.0,-0.0026100000832229853,-0.007309999782592058,-0.004809999838471413,0.1344500035047531
6513.869689748409,1196276.0,-0.003909999970346689,-0.008449999615550041,0.0016799999866634607,0.13770000636577606
6513.870689520623,1196277.0,-0.003640000009909272,-0.0031300000846385956,0.0035000001080334187,0.1391099989414215
6513.871689292839,1196278.0,-0.0020699999295175076,0.0028200000524520874,0.00418000016361475,0.13178999722003937
6513.872689065054,1196279.0,0.0018400000408291817,0.0045900000259280205,-0.0018599999602884054,0.13970999419689178
6513.87368883727,1196280.0,0.0036800000816583633,0.007579999975860119,9.000000136438757e-05,0.13243000209331512
6513.874688609485,1196281.0,0.004900000058114529,0.005400000140070915,0.0028200000524520874,0.13829000294208527
6513.8756883817005,1196282.0,0.005929999984800816,-0.0011399999493733048,0.005590000189840794,0.1321599930524826
6513.876688153915,1196283.0,0.006560000125318766,0.0002300000051036477,0.002630000002682209,0.13654999434947968
6513.87768792613,1196284.0,0.007319999858736992,0.008310000412166119,-0.003809999907389283,0.13499000668525696
6513.878687698346,1196285.0,0.006560000125318766,0.005679999943822622,-4.999999873689376e-05,0.1301400065422058
6513.879687470561,1196286.0,0.009340000338852406,0.000859999970998615,0.002859999891370535,0.13631999492645264
6513.880687242777,1196287.0,0.014600000344216824,-0.001500000013038516,0.0,0.1298699975013733
6513.881687014991,1196288.0,0.017160000279545784,0.004679999779909849,0.0010900000343099236,0.1383800059556961
6513.882686787207,1196289.0,0.017430000007152557,0.004679999779909849,0.0029100000392645597,0.13051000237464905
6513.883686559422,1196290.0,0.015809999778866768,-0.00014000000373926014,-0.001500000013038516,0.1377899944782257
6513.884686331638,1196291.0,0.014600000344216824,-0.0024500000290572643,-0.0037700000684708357,0.12991000711917877
6513.885686103853,1196292.0,0.01095999963581562,-0.002409999957308173,-0.00418000016361475,0.13585999608039856
6513.8866858760675,1196293.0,0.005210000090301037,-0.0012700000079348683,-0.000910000002477318,0.13412000238895416
6513.887685648283,1196294.0,-0.0013899999903514981,-0.007720000110566616,-0.0015899999998509884,0.12839999794960022
6513.888685420498,1196295.0,-0.00773000018671155,-0.00686000008136034,-0.0010000000474974513,0.13792000710964203
6513.889685192714,1196296.0,-0.014019999653100967,-0.009039999917149544,-0.0036800000816583633,0.12894999980926514
6513.890684964929,1196297.0,-0.016620000824332237,-0.0031300000846385956,-0.004129999782890081,0.13431000709533691
6513.891684737145,1196298.0,-0.015180000104010105,-0.000539999979082495,0.004089999943971634,0.1365099996328354
6513.892684509359,1196299.0,-0.01217000000178814,0.0027199999894946814,0.001769999973475933,0.13165000081062317
6513.893684281575,1196300.0,-0.0083600003272295,-0.00014000000373926014,-0.0016799999866634607,0.12748999893665314
6513.89468405379,1196301.0,-0.005119999870657921,0.0010400000028312206,0.0051299999468028545,0.13298000395298004
6513.895683826006,1196302.0,-0.00107999995816499,0.004000000189989805,-0.00041000000783242285,0.13481000065803528
6513.896683598221,1196303.0,0.0034099998883903027,0.001500000013038516,-0.0022299999836832285,0.13239000737667084
6513.8976833704355,1196304.0,0.0052999998442828655,-0.002360000042244792,0.0014100000262260437,0.12735000252723694
6513.898683142651,1196305.0,0.007410000078380108,0.002859999891370535,0.0029100000392645597,0.1313299983739853
6513.899682914866,1196306.0,0.009929999709129333,0.0009500000160187483,-0.0019099999917671084,0.1301400065422058
6513.900682687082,1196307.0,0.013749999925494194,0.013580000028014183,-0.0024500000290572643,0.1318800002336502
6513.901682459297,1196308.0,0.019269999116659164,0.012260000221431255,0.0024500000290572643,0.1265300065279007
6513.902682231512,1196309.0,0.021560000255703926,0.0029100000392645597,-0.0002300000051036477,0.13068999350070953
6513.903682003727,1196310.0,0.02191999927163124,-0.0007699999841861427,-0.0006399999838322401,0.13068999350070953
6513.904681775943,1196311.0,0.02012999914586544,-0.0033199999015778303,0.0002699999895412475,0.12409999966621399
6513.905681548158,1196312.0,0.015629999339580536,-0.0035000001080334187,-0.0036299999337643385,0.1307400017976761
6513.9066813203735,1196313.0,0.010110000148415565,-0.006310000084340572,-0.0028200000524520874,0.13106000423431396
6513.907681092589,1196314.0,0.00547999981790781,-0.012260000221431255,0.001769999973475933,0.12396000325679779
6513.9086808648035,1196315.0,0.001120000029914081,-0.018069999292492867,-0.0010000000474974513,0.12845000624656677
6513.909680637019,1196316.0,-0.003590000094845891,-0.01834999956190586,-0.001500000013038516,0.13091999292373657
6513.910680409234,1196317.0,-0.00610999995842576,-0.010579999536275864,0.0021299999207258224,0.12268000096082687
6513.91168018145,1196318.0,-0.0048500001430511475,-0.001180000021122396,-0.00041000000783242285,0.12172000110149384
6513.912679953665,1196319.0,-0.0023399998899549246,0.011490000411868095,-0.001230000052601099,0.1288599967956543
6513.91367972588,1196320.0,9.000000136438757e-05,0.007579999975860119,-0.0030900000128895044,0.12313999980688095
6513.914679498095,1196321.0,0.003590000094845891,0.005590000189840794,0.0011399999493733048,0.12071000039577484
6513.915679270311,1196322.0,0.007230000104755163,0.006130000110715628,0.00571999978274107,0.12839999794960022
6513.916679042526,1196323.0,0.01001999992877245,0.0027699999045580626,-0.003590000094845891,0.12111999839544296
6513.9176788147415,1196324.0,0.010599999688565731,0.011130000464618206,-0.0024500000290572643,0.11980000138282776
6513.918678586957,1196325.0,0.009340000338852406,0.005590000189840794,0.001769999973475933,0.12707999348640442
6513.9196783591715,1196326.0,0.013659999705851078,0.004410000052303076,-0.0007699999841861427,0.120619997382164
6513.920678131387,1196327.0,0.0185100007802248,0.005810000002384186,0.003449999960139394,0.12419000267982483
6513.921677903602,1196328.0,0.021880000829696655,0.004540000110864639,0.00031999999191612005,0.12735000252723694
6513.922677675818,1196329.0,0.02273000031709671,0.005270000081509352,-0.0011399999493733048,0.1197500005364418
6513.923677448033,1196330.0,0.023180000483989716,-0.0034099998883903027,-0.0007699999841861427,0.11750999838113785
6513.924677220248,1196331.0,0.02263999916613102,-0.004040000028908253,-0.001230000052601099,0.12336999922990799
6513.925676992463,1196332.0,0.019950000569224358,-0.004220000002533197,-0.0031300000846385956,0.12043999880552292
6513.926676764679,1196333.0,0.016130000352859497,-0.005489999894052744,-0.000859999970998615,0.11896999925374985
6513.927676536894,1196334.0,0.011859999969601631,-0.00803999975323677,0.0022299999836832285,0.12382999807596207
6513.9286763091095,1196335.0,0.010870000347495079,-0.004900000058114529,-0.002090000081807375,0.11548999696969986
6513.929676081325,1196336.0,0.009519999846816063,-0.009949999861419201,-0.001180000021122396,0.12336999922990799
6513.9306758535395,1196337.0,0.005030000116676092,0.00014000000373926014,-0.00014000000373926014,0.11525999754667282
6513.931675625755,1196338.0,0.0023399998899549246,0.0059899999760091305,0.001769999973475933,0.12304999679327011
6513.93267539797,1196339.0,-0.0006300000241026282,0.0010400000028312206,-0.00571999978274107,0.11457999795675278
6513.933675170186,1196340.0,-0.0008999999845400453,0.001230000052601099,0.0028200000524520874,0.12281999737024307
6513.934674942401,1196341.0,0.0023399998899549246,0.002859999891370535,0.00535999983549118,0.1142600029706955
6513.935674714616,1196342.0,0.00925000011920929,0.0002300000051036477,0.001230000052601099,0.12250000238418579
6513.936674486831,1196343.0,0.015629999339580536,-0.0006399999838322401,-0.004129999782890081,0.11429999768733978
6513.937674259047,1196344.0,0.019269999116659164,0.0016299999551847577,0.0024999999441206455,0.12080000340938568
6513.938674031262,1196345.0,0.020479999482631683,-0.0016799999866634607,0.003220000071451068,0.11403000354766846
6513.9396738034775,1196346.0,0.02102000080049038,0.006769999861717224,-0.0009500000160187483,0.12030000239610672
6513.940673575693,1196347.0,0.021740000694990158,0.008670000359416008,0.004679999779909849,0.1135300025343895
6513.941673347907,1196348.0,0.02043999917805195,0.004220000002533197,0.004220000002533197,0.12015999853610992
6513.942673120123,1196349.0,0.01981000043451786,0.006810000166296959,-0.004769999999552965,0.11275000125169754
6513.943672892338,1196350.0,0.016620000824332237,0.0010400000028312206,-0.0002300000051036477,0.11906000226736069
6513.944672664554,1196351.0,0.010780000127851963,0.00203999993391335,0.003000000026077032,0.11279000341892242
6513.945672436769,1196352.0,0.004670000169426203,-4.999999873689376e-05,-0.0029100000392645597,0.11937999725341797
6513.946672208984,1196353.0,-0.0017999999690800905,-0.0033199999015778303,-0.0015899999998509884,0.1109199970960617
6513.947671981199,1196354.0,-0.007550000213086605,-0.007899999618530273,0.004540000110864639,0.11929000169038773
6513.948671753415,1196355.0,-0.0101500004529953,-0.011309999972581863,0.0002300000051036477,0.11045999825000763
6513.94967152563,1196356.0,-0.012489999644458294,0.0012700000079348683,-0.0012700000079348683,0.11823999881744385
6513.9506712978455,1196357.0,-0.013030000030994415,0.001820000004954636,-0.00041000000783242285,0.11017999798059464
6513.95167107006,1196358.0,-0.009970000013709068,-0.0010900000343099236,-0.0016799999866634607,0.11623000353574753
6513.952670842275,1196359.0,-0.00547999981790781,0.000859999970998615,0.004769999999552965,0.11525999754667282
6513.953670614491,1196360.0,-0.0012600000482052565,0.00031999999191612005,9.000000136438757e-05,0.1131099984049797
6513.954670386706,1196361.0,0.00044999999227002263,0.006130000110715628,-0.0019099999917671084,0.11553999781608582
6513.955670158922,1196362.0,-0.00018000000272877514,0.010400000028312206,0.00031999999191612005,0.10972999781370163
6513.956669931137,1196363.0,-0.00018000000272877514,0.00872000027447939,-0.0022700000554323196,0.11677999794483185
6513.957669703352,1196364.0,0.0006300000241026282,0.005489999894052744,0.005590000189840794,0.11444000154733658
6513.958669475567,1196365.0,0.001930000027641654,0.0014100000262260437,0.0021299999207258224,0.10944999754428864
6513.959669247783,1196366.0,0.0024300001095980406,0.00031999999191612005,0.001769999973475933,0.11626999825239182
6513.960669019998,1196367.0,0.002739999908953905,0.0018599999602884054,-0.0015899999998509884,0.1083500012755394
6513.9616687922135,1196368.0,0.004310000222176313,0.0030400000978261232,-0.002589999930933118,0.11631999909877777
6513.962668564428,1196369.0,0.008449999615550041,9.000000136438757e-05,-0.0010400000028312206,0.10752999782562256
6513.963668336643,1196370.0,0.011719999834895134,-0.0011399999493733048,-0.0031300000846385956,0.1157199963927269
6513.964668108859,1196371.0,0.012670000083744526,-0.004769999999552965,4.999999873689376e-05,0.10729999840259552
6513.965667881074,1196372.0,0.009340000338852406,-0.012670000083744526,0.002589999930933118,0.11553999781608582
6513.96666765329,1196373.0,0.003280000062659383,-0.00749000022187829,0.00014000000373926014,0.10651999711990356
6513.967667425504,1196374.0,-0.00215999991632998,-0.005489999894052744,-0.0007300000288523734,0.11421000212430954
6513.96866719772,1196375.0,-0.004670000169426203,-0.005859999917447567,0.0014100000262260437,0.10648000240325928
6513.969666969935,1196376.0,-0.005750000011175871,0.005770000163465738,0.0012700000079348683,0.11275000125169754
6513.970666742151,1196377.0,-0.004360000137239695,0.010490000247955322,0.00031999999191612005,0.10605999827384949
6513.971666514366,1196378.0,0.0007200000109151006,0.008630000054836273,0.002589999930933118,0.10990999639034271
6513.972666286581,1196379.0,0.00547999981790781,0.0071299998089671135,0.003809999907389283,0.1109199970960617
6513.973666058796,1196380.0,0.008799999952316284,-0.003220000071451068,-0.0006399999838322401,0.11014000326395035
6513.974665831011,1196381.0,0.01051000040024519,0.0013200000394135714,-0.0011399999493733048,0.10509999841451645
6513.975665603227,1196382.0,0.012400000356137753,0.001230000052601099,0.003809999907389283,0.11128000169992447
6513.976665375442,1196383.0,0.013299999758601189,-0.0002699999895412475,-0.003909999970346689,0.10982000082731247
6513.977665147658,1196384.0,0.010689999908208847,-0.0012700000079348683,-0.0019499999471008778,0.10909000039100647
6513.978664919872,1196385.0,0.00773000018671155,-0.00031999999191612005,0.001230000052601099,0.10469000041484833
6513.979664692088,1196386.0,0.009700000286102295,0.0021299999207258224,0.000910000002477318,0.11110000312328339
6513.980664464303,1196387.0,0.015270000323653221,0.004089999943971634,-0.002589999930933118,0.10367999970912933
6513.981664236519,1196388.0,0.021290000528097153,0.006089999806135893,-0.0007300000288523734,0.11136999726295471
6513.982664008734,1196389.0,0.026590000838041306,0.00031999999191612005,0.0024999999441206455,0.10335999727249146
6513.983663780949,1196390.0,0.027489999309182167,-0.0051299999468028545,-0.0036800000816583633,0.11009000241756439
6513.984663553164,1196391.0,0.024620000272989273,-0.0002300000051036477,0.000859999970998615,0.10340999811887741
6513.985663325379,1196392.0,0.018869999796152115,-0.004269999917596579,0.00031999999191612005,0.1083500012755394
6513.986663097595,1196393.0,0.013570000417530537,-0.002630000002682209,-0.005040000192821026,0.10982000082731247
6513.98766286981,1196394.0,0.006829999852925539,-0.011669999919831753,0.0030400000978261232,0.10281000286340714
6513.988662642026,1196395.0,0.0017500000540167093,-0.008580000139772892,0.0030900000128895044,0.10770999640226364
6513.98966241424,1196396.0,-0.0024300001095980406,0.0022299999836832285,-0.00418000016361475,0.10941000282764435
6513.990662186456,1196397.0,-0.0037299999967217445,-0.001820000004954636,0.003590000094845891,0.10153000056743622
6513.991661958671,1196398.0,-0.0035000001080334187,0.003719999920576811,0.001820000004954636,0.10138999670743942
6513.9926617308865,1196399.0,-0.0016199999954551458,0.0129399998113513,-0.00044999999227002263,0.10871999710798264
6513.993661503102,1196400.0,0.0,0.009039999917149544,0.0022700000554323196,0.1009799987077713
6513.994661275317,1196401.0,0.0015300000086426735,0.0031799999997019768,-0.0028200000524520874,0.09993000328540802
6513.995661047532,1196402.0,0.0030499999411404133,0.006130000110715628,0.0019099999917671084,0.10734999924898148
6513.996660819747,1196403.0,0.004129999782890081,0.0019499999471008778,0.0016799999866634607,0.10162000358104706
6513.997660591963,1196404.0,0.004989999812096357,0.004310000222176313,-0.0033599999733269215,0.10578999668359756
6513.998660364178,1196405.0,0.006060000043362379,-0.00686000008136034,0.003539999946951866,0.09993000328540802
6513.999660136394,1196406.0,0.009429999627172947,0.003220000071451068,0.004360000137239695,0.10628999769687653
6514.000659908608,1196407.0,0.014820000156760216,0.0024999999441206455,-0.0019099999917671084,0.09882999956607819
6514.001659680824,1196408.0,0.021740000694990158,0.007579999975860119,0.005179999861866236,0.10286000370979309
6514.002659453039,1196409.0,0.028030000627040863,0.008860000409185886,-0.00571999978274107,0.10469000041484833
6514.0036592252545,1196410.0,0.03189999982714653,0.0010900000343099236,-0.002859999891370535,0.09801000356674194
6514.00465899747,1196411.0,0.03127000108361244,-0.009630000218749046,-0.005489999894052744,0.10189999639987946
6514.005658769685,1196412.0,0.027540000155568123,-0.015440000221133232,-0.0019499999471008778,0.10459999740123749
6514.0066585419,1196413.0,0.021159999072551727,-0.021980000659823418,-0.0027699999045580626,0.09700000286102295
6514.007658314115,1196414.0,0.013340000063180923,-0.013489999808371067,0.00031999999191612005,0.10469000041484833
6514.008658086331,1196415.0,0.00925000011920929,-0.0022299999836832285,0.002950000111013651,0.09690999984741211
6514.009657858546,1196416.0,0.007009999826550484,-0.0010000000474974513,-4.999999873689376e-05,0.1043199971318245
6514.010657630762,1196417.0,0.003909999970346689,0.0016799999866634607,-0.0007699999841861427,0.09650000184774399
6514.011657402976,1196418.0,0.004490000195801258,0.00031999999191612005,0.0034099998883903027,0.10304000228643417
6514.012657175192,1196419.0,0.009569999761879444,0.0010400000028312206,0.006949999835342169,0.09658999741077423
6514.013656947407,1196420.0,0.015359999611973763,0.004310000222176313,-0.0013599999947473407,0.10286000370979309
6514.0146567196225,1196421.0,0.02022000029683113,0.006039999891072512,-0.004769999999552965,0.09531000256538391
6514.015656491838,1196422.0,0.020840000361204147,0.007670000195503235,9.000000136438757e-05,0.10093999654054642
6514.0166562640525,1196423.0,0.019950000569224358,0.006130000110715628,0.0029100000392645597,0.09562999755144119
6514.017656036268,1196424.0,0.01671000011265278,0.004310000222176313,-0.0028200000524520874,0.09920000284910202
6514.018655808483,1196425.0,0.011230000294744968,-0.00014000000373926014,0.0010400000028312206,0.09681999683380127
6514.019655580699,1196426.0,0.0083600003272295,0.0045900000259280205,-9.000000136438757e-05,0.09993000328540802
6514.020655352914,1196427.0,0.009929999709129333,0.003909999970346689,-0.0018599999602884054,0.09334000200033188
6514.02165512513,1196428.0,0.012799999676644802,-0.00041000000783242285,0.004089999943971634,0.09993000328540802
6514.022654897344,1196429.0,0.013120000250637531,-0.000910000002477318,-0.0007300000288523734,0.09809999912977219
6514.02365466956,1196430.0,0.011640000157058239,0.003449999960139394,-0.001230000052601099,0.09713999927043915
6514.024654441775,1196431.0,0.010289999656379223,0.0052200001664459705,0.00031999999191612005,0.09233000129461288
6514.0256542139905,1196432.0,0.009340000338852406,0.006680000107735395,-0.004040000028908253,0.09933000057935715
6514.026653986206,1196433.0,0.007189999800175428,-0.0022700000554323196,-0.0021800000686198473,0.092009998857975
6514.0276537584205,1196434.0,0.007230000104755163,-0.008170000277459621,0.001769999973475933,0.09855999797582626
6514.028653530636,1196435.0,0.008089999668300152,-0.007670000195503235,0.003590000094845891,0.09099999815225601
6514.029653302851,1196436.0,0.009429999627172947,-0.007860000245273113,-0.004769999999552965,0.09589999914169312
6514.030653075067,1196437.0,0.011680000461637974,-0.0027699999045580626,0.0022299999836832285,0.09369999915361404
6514.031652847282,1196438.0,0.014639999717473984,-0.0033599999733269215,0.0011399999493733048,0.09000000357627869
6514.032652619497,1196439.0,0.014820000156760216,-0.0003600000054575503,-0.004769999999552965,0.09726999700069427
6514.033652391712,1196440.0,0.014689999632537365,-4.999999873689376e-05,-0.0013200000394135714,0.08953999727964401
6514.034652163928,1196441.0,0.014019999653100967,0.00031999999191612005,0.0033599999733269215,0.09557999670505524
6514.035651936143,1196442.0,0.014999999664723873,0.0031300000846385956,-9.000000136438757e-05,0.08907999843358994
6514.0366517083585,1196443.0,0.014689999632537365,0.001769999973475933,0.004310000222176313,0.09627000242471695
6514.037651480574,1196444.0,0.010379999876022339,-0.0011399999493733048,0.0002300000051036477,0.08821000158786774
6514.038651252788,1196445.0,0.006289999932050705,-0.0009500000160187483,-0.0015899999998509884,0.09392999857664108
6514.039651025004,1196446.0,0.0048500001430511475,0.0022299999836832285,0.0025400000158697367,0.08821000158786774
6514.040650797219,1196447.0,0.006020000204443932,0.006130000110715628,-0.000539999979082495,0.09261000156402588
6514.041650569435,1196448.0,0.007819999940693378,0.00875999964773655,-0.0036299999337643385,0.08821000158786774
6514.04265034165,1196449.0,0.011590000241994858,0.00989999994635582,0.0016299999551847577,0.09168999642133713
6514.043650113865,1196450.0,0.014820000156760216,0.00535999983549118,0.00031999999191612005,0.08968000113964081
6514.04464988608,1196451.0,0.018689999356865883,0.002859999891370535,-0.004679999779909849,0.08675000071525574
6514.045649658296,1196452.0,0.020570000633597374,-0.0021800000686198473,-0.0002300000051036477,0.0895799994468689
6514.046649430511,1196453.0,0.018959999084472656,-0.003000000026077032,0.004679999779909849,0.09059000015258789
6514.0476492027265,1196454.0,0.014379999600350857,-0.007449999917298555,-0.004129999782890081,0.08583000302314758
6514.048648974942,1196455.0,0.008489999920129776,-0.008580000139772892,-0.0016799999866634607,0.09132000058889389
6514.049648747156,1196456.0,0.005619999952614307,-0.0051299999468028545,0.003000000026077032,0.08437000215053558
6514.050648519372,1196457.0,0.006289999932050705,-0.000590000010561198,-0.006039999891072512,0.09114000201225281
6514.051648291587,1196458.0,0.007369999773800373,0.00571999978274107,-0.004860000219196081,0.08432000130414963
6514.052648063803,1196459.0,0.008670000359416008,0.00031999999191612005,0.004410000052303076,0.09018000215291977
6514.053647836018,1196460.0,0.009519999846816063,0.001769999973475933,0.0024500000290572643,0.08354000002145767
6514.054647608233,1196461.0,0.010599999688565731,0.0019499999471008778,0.004000000189989805,0.08976999670267105
6514.055647380448,1196462.0,0.009340000338852406,0.006130000110715628,-0.0031300000846385956,0.08780000358819962
6514.056647152664,1196463.0,0.007679999805986881,0.005040000192821026,0.00031999999191612005,0.08376999944448471
6514.057646924879,1196464.0,0.00646999990567565,0.00418000016361475,0.0044999998062849045,0.08917000144720078
6514.058646697094,1196465.0,0.006649999879300594,0.004089999943971634,-0.0015899999998509884,0.08217000216245651
6514.05964646931,1196466.0,0.01095999963581562,0.003949999809265137,0.004410000052303076,0.0863799974322319
6514.060646241524,1196467.0,0.017249999567866325,0.003539999946951866,-0.00203999993391335,0.08803000301122665
6514.06164601374,1196468.0,0.02273000031709671,0.00031999999191612005,-0.0016799999866634607,0.08207999914884567
6514.062645785955,1196469.0,0.025609999895095825,0.002589999930933118,-0.002950000111013651,0.08876000344753265
6514.063645558171,1196470.0,0.02515999972820282,0.0016299999551847577,-0.003860000055283308,0.0808899998664856
6514.064645330386,1196471.0,0.023900000378489494,-0.004269999917596579,-0.0007699999841861427,0.08867000043392181
6514.065645102601,1196472.0,0.021609999239444733,-0.005489999894052744,-0.0034099998883903027,0.08051999658346176
6514.066644874816,1196473.0,0.017160000279545784,-0.008949999697506428,-0.002589999930933118,0.08771000057458878
6514.067644647032,1196474.0,0.011230000294744968,-0.006949999835342169,0.00031999999191612005,0.08015000075101852
6514.068644419247,1196475.0,0.006020000204443932,-0.004999999888241291,-0.0002699999895412475,0.08683999627828598
6514.069644191462,1196476.0,0.0026100000832229853,-0.0028200000524520874,-4.999999873689376e-05,0.07960999757051468
6514.070643963678,1196477.0,0.0008999999845400453,-0.00203999993391335,0.003539999946951866,0.08679000288248062
6514.071643735892,1196478.0,-0.0008999999845400453,-0.000539999979082495,-0.000539999979082495,0.07878000289201736
6514.072643508108,1196479.0,0.0002699999895412475,-0.002090000081807375,0.002630000002682209,0.0830800011754036
6514.073643280323,1196480.0,0.0014400000218302011,-0.0027699999045580626,0.005770000163465738,0.07886999845504761
6514.074643052539,1196481.0,0.004399999976158142,-0.004999999888241291,-0.001500000013038516,0.08326999843120575
6514.075642824754,1196482.0,0.008270000107586384,0.004809999838471413,-0.0027199999894946814,0.07823000103235245
6514.076642596969,1196483.0,0.009479999542236328,0.007809999864548445,0.0008200000156648457,0.08409000188112259
6514.077642369184,1196484.0,0.009069999679923058,0.004449999891221523,-0.005489999894052744,0.0822099968791008
6514.0786421413995,1196485.0,0.008270000107586384,0.003590000094845891,0.002319999970495701,0.08038000017404556
6514.079641913615,1196486.0,0.011099999770522118,0.010449999943375587,0.00031999999191612005,0.0823500007390976
6514.08064168583,1196487.0,0.01720999926328659,0.01375999953597784,-0.002090000081807375,0.0775500014424324
6514.081641458045,1196488.0,0.02273000031709671,0.00795000046491623,0.0019499999471008778,0.08217000216245651
6514.08264123026,1196489.0,0.025429999455809593,0.00018000000272877514,0.002950000111013651,0.07735999673604965
6514.083641002476,1196490.0,0.026149999350309372,0.005179999861866236,-0.003449999960139394,0.08116000145673752
6514.084640774691,1196491.0,0.025919999927282333,0.00031999999191612005,-0.002589999930933118,0.07886999845504761
6514.085640546907,1196492.0,0.022509999573230743,-0.005489999894052744,0.0006399999838322401,0.0806099995970726
6514.086640319122,1196493.0,0.016620000824332237,-0.006949999835342169,-0.0011399999493733048,0.07717999815940857
6514.087640091337,1196494.0,0.009879999794065952,-0.014209999702870846,-0.00571999978274107,0.08033999800682068
6514.088639863552,1196495.0,0.0037700000684708357,-0.011309999972581863,-0.0002699999895412475,0.07502999901771545
6514.0896396357675,1196496.0,-0.0009399999980814755,-0.005770000163465738,-0.005489999894052744,0.08098000288009644
6514.090639407983,1196497.0,-0.0036800000816583633,-0.005489999894052744,0.0010400000028312206,0.07530000060796738
6514.091639180198,1196498.0,-0.0048500001430511475,0.005400000140070915,-0.003809999907389283,0.08043000102043152
6514.092638952413,1196499.0,-0.005750000011175871,0.0044999998062849045,0.002090000081807375,0.07699999958276749
6514.093638724628,1196500.0,-0.006289999932050705,-0.006180000025779009,0.0024999999441206455,0.0739699974656105
6514.094638496844,1196501.0,-0.003909999970346689,-0.0017300000181421638,0.005630000028759241,0.0808899998664856
6514.095638269059,1196502.0,0.0009399999980814755,0.01761999912559986,-0.004769999999552965,0.07355999946594238
6514.096638041275,1196503.0,0.004129999782890081,0.019940000027418137,0.0021800000686198473,0.08066000044345856
6514.097637813489,1196504.0,0.005210000090301037,0.01030999980866909,-4.999999873689376e-05,0.07343000173568726
6514.098637585705,1196505.0,0.00674000009894371,0.002409999957308173,-0.0028200000524520874,0.08015000075101852
6514.09963735792,1196506.0,0.01095999963581562,-0.003590000094845891,0.00031999999191612005,0.07246000319719315
6514.1006371301355,1196507.0,0.015720000490546227,-0.0051299999468028545,0.0029100000392645597,0.07982999831438065
6514.101636902351,1196508.0,0.018729999661445618,0.0034099998883903027,-0.0016299999551847577,0.07158999890089035
6514.102636674566,1196509.0,0.018689999356865883,0.004999999888241291,-0.000590000010561198,0.07906000316143036
6514.103636446781,1196510.0,0.019770000129938126,-4.999999873689376e-05,0.00031999999191612005,0.07136999815702438
6514.104636218996,1196511.0,0.021069999784231186,0.0016799999866634607,-0.0035000001080334187,0.0775500014424324
6514.105635991212,1196512.0,0.021069999784231186,0.0013599999947473407,-0.001769999973475933,0.07062999904155731
6514.106635763427,1196513.0,0.019050000235438347,0.0045900000259280205,-0.0007699999841861427,0.07813999801874161
6514.107635535643,1196514.0,0.012889999896287918,0.00031999999191612005,-0.005859999917447567,0.07027000188827515
6514.108635307857,1196515.0,0.0069599999114871025,-0.007309999782592058,-0.0008200000156648457,0.07704000174999237
6514.109635080073,1196516.0,0.002520000096410513,-0.007040000054985285,0.002859999891370535,0.06984999775886536
6514.110634852288,1196517.0,0.0002699999895412475,-0.00913000013679266,-0.0018599999602884054,0.07575999945402145
6514.1116346245035,1196518.0,-0.0013000000035390258,-0.014440000057220459,0.001230000052601099,0.06953000277280807
6514.112634396719,1196519.0,-0.0013899999903514981,-0.014759999699890614,0.0045900000259280205,0.07457000017166138
6514.113634168934,1196520.0,0.00107999995816499,-0.008630000054836273,-0.003809999907389283,0.0686199963092804
6514.114633941149,1196521.0,0.004939999897032976,-0.005489999894052744,-0.0028200000524520874,0.07575999945402145
6514.115633713364,1196522.0,0.008270000107586384,0.002859999891370535,0.003590000094845891,0.06797999888658524
6514.11663348558,1196523.0,0.01056000031530857,0.0010000000474974513,0.0002300000051036477,0.07530000060796738
6514.117633257795,1196524.0,0.011769999749958515,-0.005539999809116125,-0.0011399999493733048,0.06752000004053116
6514.118633030011,1196525.0,0.010329999960958958,-0.001449999981559813,0.004269999917596579,0.0716399997472763
6514.119632802225,1196526.0,0.009519999846816063,0.010040000081062317,-0.0011399999493733048,0.0717800036072731
