LSL_Time,PLUX_P1_nSeq,PLUX_P1_ECG0,PLUX_P1_EMG1,PLUX_P1_EMG2,PLUX_P1_RESPIRATION3
6384.806095162715,1067183.0,-0.04191000014543533,0.004900000058114529,0.0015399999683722854,0.161640003323555
6384.80709493493,1067184.0,-0.05502999946475029,0.002950000111013651,-0.0016799999866634607,0.1613599956035614
6384.808094707145,1067185.0,-0.06657999753952026,0.00535999983549118,-0.0013200000394135714,0.16086000204086304
6384.80909447936,1067186.0,-0.07321999967098236,0.002319999970495701,0.00031999999191612005,0.15926000475883484
6384.810094251576,1067187.0,-0.0786999985575676,-0.0013200000394135714,0.00031999999191612005,0.15265999734401703
6384.811094023791,1067188.0,-0.08184999972581863,-0.003449999960139394,-0.0033199999015778303,0.15421999990940094
6384.812093796007,1067189.0,-0.08355999737977982,-0.004129999782890081,-0.00044999999227002263,0.1548600047826767
6384.813093568221,1067190.0,-0.08410000056028366,-0.009309999644756317,0.00031999999191612005,0.15623000264167786
6384.814093340437,1067191.0,-0.08472000062465668,-0.006769999861717224,0.004449999891221523,0.15810999274253845
6384.815093112652,1067192.0,-0.08552999794483185,-0.0035000001080334187,-0.002589999930933118,0.16245999932289124
6384.816092884867,1067193.0,-0.08495000004768372,0.0002699999895412475,-0.002090000081807375,0.16282999515533447
6384.817092657083,1067194.0,-0.08552999794483185,0.0015899999998509884,0.003949999809265137,0.16173000633716583
6384.818092429298,1067195.0,-0.08642999827861786,0.00494999997317791,0.0024500000290572643,0.16026000678539276
6384.819092201513,1067196.0,-0.08993999660015106,0.0013200000394135714,-0.0014100000262260437,0.15994000434875488
6384.820091973728,1067197.0,-0.09460999816656113,0.002859999891370535,0.0034099998883903027,0.15839000046253204
6384.821091745944,1067198.0,-0.09698999673128128,-0.0007699999841861427,0.003220000071451068,0.15243999660015106
6384.822091518159,1067199.0,-0.0982000008225441,0.005400000140070915,-0.002409999957308173,0.15449999272823334
6384.823091290375,1067200.0,-0.09985999763011932,0.0031300000846385956,0.0031300000846385956,0.15535999834537506
6384.824091062589,1067201.0,-0.1020599976181984,0.00031999999191612005,-0.0019099999917671084,0.16099999845027924
6384.8250908348045,1067202.0,-0.10798999667167664,0.003949999809265137,-0.0006399999838322401,0.16264000535011292
6384.82609060702,1067203.0,-0.11505000293254852,0.005590000189840794,0.003590000094845891,0.16227999329566956
6384.827090379235,1067204.0,-0.12321999669075012,0.006810000166296959,-0.0011399999493733048,0.16177000105381012
6384.828090151451,1067205.0,-0.13037000596523285,0.0010400000028312206,-0.003949999809265137,0.16268999874591827
6384.829089923666,1067206.0,-0.13639000058174133,0.000859999970998615,-0.002859999891370535,0.15994000434875488
6384.830089695881,1067207.0,-0.1398400068283081,-0.003860000055283308,-0.0031799999997019768,0.15851999819278717
6384.831089468096,1067208.0,-0.1370600014925003,-0.006579999811947346,0.0013599999947473407,0.15591000020503998
6384.832089240312,1067209.0,-0.12820999324321747,-0.0034099998883903027,-0.0011399999493733048,0.15710000693798065
6384.833089012527,1067210.0,-0.11541000008583069,-0.00203999993391335,-0.000910000002477318,0.1625099927186966
6384.834088784743,1067211.0,-0.10412999987602234,-0.002950000111013651,0.00031999999191612005,0.1613599956035614
6384.835088556957,1067212.0,-0.09612999856472015,-0.007579999975860119,-0.0022299999836832285,0.1534000039100647
6384.8360883291725,1067213.0,-0.09347999840974808,-0.002409999957308173,0.00031999999191612005,0.15467999875545502
6384.837088101388,1067214.0,-0.091279998421669,0.0030400000978261232,0.00031999999191612005,0.15546000003814697
6384.838087873603,1067215.0,-0.09109999984502792,0.006130000110715628,0.0024500000290572643,0.16072000563144684
6384.839087645819,1067216.0,-0.09344000369310379,0.003220000071451068,0.00031999999191612005,0.16327999532222748
6384.840087418033,1067217.0,-0.09560000151395798,0.0010400000028312206,-0.001230000052601099,0.16144999861717224
6384.841087190249,1067218.0,-0.09582000225782394,-0.0009500000160187483,0.0016799999866634607,0.16008000075817108
6384.842086962464,1067219.0,-0.09555000066757202,0.0013200000394135714,-0.000590000010561198,0.15952999889850616
6384.84308673468,1067220.0,-0.09307999908924103,0.00031999999191612005,-0.0010000000474974513,0.15265999734401703
6384.844086506895,1067221.0,-0.08877000212669373,0.00418000016361475,0.001180000021122396,0.15349000692367554
6384.845086279111,1067222.0,-0.08732999861240387,0.00949000008404255,0.00031999999191612005,0.15546000003814697
6384.846086051325,1067223.0,-0.08859000355005264,0.006719999946653843,0.000910000002477318,0.1555500030517578
6384.8470858235405,1067224.0,-0.09227000176906586,0.007579999975860119,-0.00018000000272877514,0.1594800055027008
6384.848085595756,1067225.0,-0.09560000151395798,0.004040000028908253,-0.001769999973475933,0.1627800017595291
6384.849085367971,1067226.0,-0.09775000065565109,0.0014100000262260437,0.0006799999973736703,0.16144999861717224
6384.850085140187,1067227.0,-0.09860999882221222,-0.0036800000816583633,-0.0027199999894946814,0.15985000133514404
6384.851084912401,1067228.0,-0.09523999691009521,-0.003949999809265137,-0.002589999930933118,0.1534000039100647
6384.852084684617,1067229.0,-0.08822999894618988,-0.004040000028908253,0.0007699999841861427,0.15458999574184418
6384.853084456832,1067230.0,-0.07932999730110168,-0.004089999943971634,-0.0016299999551847577,0.15477000176906586
6384.854084229048,1067231.0,-0.07079999893903732,-0.004410000052303076,0.0009500000160187483,0.15610000491142273
6384.855084001263,1067232.0,-0.06207999959588051,-0.0024500000290572643,0.002319999970495701,0.15633000433444977
6384.8560837734785,1067233.0,-0.05372999981045723,-0.0022299999836832285,-0.002950000111013651,0.15810999274253845
6384.857083545693,1067234.0,-0.04645000025629997,-9.000000136438757e-05,-0.00041000000783242285,0.159620001912117
6384.8580833179085,1067235.0,-0.04196000099182129,0.0021299999207258224,0.0035000001080334187,0.16181999444961548
6384.859083090124,1067236.0,-0.03872000053524971,0.004310000222176313,0.001769999973475933,0.16126999258995056
6384.860082862339,1067237.0,-0.03359999880194664,0.000910000002477318,0.00267999991774559,0.1570100039243698
6384.861082634555,1067238.0,-0.028929999098181725,0.002859999891370535,0.0024500000290572643,0.15449999272823334
6384.862082406769,1067239.0,-0.02363000065088272,0.0015899999998509884,0.0024999999441206455,0.15449999272823334
6384.863082178985,1067240.0,-0.022099999710917473,0.003949999809265137,0.00031999999191612005,0.15317000448703766
6384.8640819512,1067241.0,-0.021560000255703926,0.0016799999866634607,0.002319999970495701,0.15926000475883484
6384.865081723416,1067242.0,-0.021740000694990158,0.009039999917149544,0.004679999779909849,0.15926000475883484
6384.866081495631,1067243.0,-0.026149999350309372,0.008489999920129776,0.0033599999733269215,0.16053999960422516
6384.8670812678465,1067244.0,-0.03522000089287758,0.009359999559819698,-0.0018599999602884054,0.15998999774456024
6384.868081040061,1067245.0,-0.04374999925494194,0.0045900000259280205,-0.005679999943822622,0.15871000289916992
6384.8690808122765,1067246.0,-0.0510299988090992,0.00031999999191612005,-0.002630000002682209,0.15230000019073486
6384.870080584492,1067247.0,-0.05565999820828438,0.0002699999895412475,0.00031999999191612005,0.15389999747276306
6384.871080356707,1067248.0,-0.051569998264312744,-0.005539999809116125,0.00018000000272877514,0.1541299968957901
6384.872080128923,1067249.0,-0.041510000824928284,-0.006579999811947346,0.000910000002477318,0.1565999984741211
6384.873079901137,1067250.0,-0.028349999338388443,-0.006089999806135893,-0.004410000052303076,0.16177000105381012
6384.874079673353,1067251.0,-0.013659999705851078,-0.010579999536275864,-0.002630000002682209,0.16053999960422516
6384.875079445568,1067252.0,-0.0016199999954551458,-0.004449999891221523,0.0019499999471008778,0.1592099964618683
6384.876079217784,1067253.0,0.007369999773800373,-0.004410000052303076,0.00031999999191612005,0.15705999732017517
6384.877078989999,1067254.0,0.014469999819993973,0.0015399999683722854,4.999999873689376e-05,0.15070000290870667
6384.878078762214,1067255.0,0.016620000824332237,0.005900000222027302,0.004999999888241291,0.15157000720500946
6384.879078534429,1067256.0,0.01348000019788742,0.0035000001080334187,0.001769999973475933,0.15265999734401703
6384.8800783066445,1067257.0,0.008940000087022781,0.0045900000259280205,0.0044999998062849045,0.15294000506401062
6384.88107807886,1067258.0,0.0053900000639259815,0.005270000081509352,-0.004809999838471413,0.15288999676704407
6384.882077851075,1067259.0,0.005570000037550926,0.006130000110715628,0.0017300000181421638,0.15230000019073486
6384.883077623291,1067260.0,0.004579999949783087,0.005040000192821026,0.004720000084489584,0.15230000019073486
6384.884077395505,1067261.0,-0.001120000029914081,0.003220000071451068,0.0016799999866634607,0.15230000019073486
6384.885077167721,1067262.0,-0.010870000347495079,0.004310000222176313,-0.000539999979082495,0.15349000692367554
6384.886076939936,1067263.0,-0.019859999418258667,0.007400000002235174,-0.0017300000181421638,0.15779000520706177
6384.887076712152,1067264.0,-0.027580000460147858,0.002859999891370535,0.001769999973475933,0.1592099964618683
6384.888076484367,1067265.0,-0.0335099995136261,0.00031999999191612005,-0.001500000013038516,0.15783999860286713
6384.889076256582,1067266.0,-0.03872000053524971,0.00031999999191612005,-0.0012700000079348683,0.15595999360084534
6384.890076028797,1067267.0,-0.042410001158714294,-0.00014000000373926014,0.0002300000051036477,0.1555899977684021
6384.891075801012,1067268.0,-0.04106000065803528,-0.004999999888241291,-0.000910000002477318,0.14972999691963196
6384.892075573228,1067269.0,-0.03392000123858452,-0.004220000002533197,-0.00267999991774559,0.14877000451087952
6384.893075345443,1067270.0,-0.025609999895095825,-0.005489999894052744,-0.004900000058114529,0.14895999431610107
6384.894075117659,1067271.0,-0.015540000051259995,-0.008129999972879887,0.0008200000156648457,0.14969000220298767
6384.895074889873,1067272.0,-0.004540000110864639,-0.005770000163465738,0.00018000000272877514,0.14940999448299408
6384.896074662089,1067273.0,0.004129999782890081,-0.0007300000288523734,0.0010000000474974513,0.14895999431610107
6384.897074434304,1067274.0,0.008630000054836273,0.001769999973475933,-0.0013200000394135714,0.15197999775409698
6384.89807420652,1067275.0,0.011189999990165234,-0.000539999979082495,0.0031300000846385956,0.1525299996137619
6384.899073978735,1067276.0,0.01095999963581562,-0.00044999999227002263,0.004040000028908253,0.15308000147342682
6384.90007375095,1067277.0,0.009970000013709068,0.00031999999191612005,0.003220000071451068,0.1555899977684021
6384.901073523165,1067278.0,0.0065100002102553844,0.0010400000028312206,4.999999873689376e-05,0.1555899977684021
6384.90207329538,1067279.0,0.0013000000035390258,-0.002950000111013651,-0.004809999838471413,0.1555899977684021
6384.903073067596,1067280.0,0.0008999999845400453,0.0010400000028312206,-0.0014100000262260437,0.1539900004863739
6384.904072839811,1067281.0,0.0013899999903514981,0.003220000071451068,0.0029100000392645597,0.15334999561309814
6384.905072612026,1067282.0,-0.000539999979082495,0.009759999811649323,-0.0010000000474974513,0.1503800004720688
6384.906072384241,1067283.0,-0.0048500001430511475,0.006630000192672014,-0.002360000042244792,0.1441500037908554
6384.907072156457,1067284.0,-0.010110000148415565,0.0071299998089671135,0.0030400000978261232,0.14607000350952148
6384.908071928672,1067285.0,-0.013030000030994415,0.005179999861866236,-0.002360000042244792,0.14584000408649445
6384.909071700888,1067286.0,-0.013249999843537807,0.002360000042244792,-0.0018599999602884054,0.14972999691963196
6384.910071473103,1067287.0,-0.011409999802708626,-0.0033599999733269215,0.0010400000028312206,0.15178999304771423
6384.9110712453175,1067288.0,-0.005659999791532755,-0.005630000028759241,-0.0013599999947473407,0.1516599953174591
6384.912071017533,1067289.0,0.0030499999411404133,-0.009309999644756317,0.0010400000028312206,0.15015000104904175
6384.913070789748,1067290.0,0.010649999603629112,-0.004220000002533197,0.0010400000028312206,0.14223000407218933
6384.914070561964,1067291.0,0.017249999567866325,-0.004129999782890081,-0.005539999809116125,0.1430100053548813
6384.915070334179,1067292.0,0.022369999438524246,-0.00044999999227002263,0.004679999779909849,0.14094999432563782
6384.916070106394,1067293.0,0.0243500005453825,0.002589999930933118,0.00031999999191612005,0.14496999979019165
6384.917069878609,1067294.0,0.019950000569224358,0.001769999973475933,-0.0012700000079348683,0.1493699997663498
6384.918069650825,1067295.0,0.0129399998113513,0.0019499999471008778,0.001180000021122396,0.1486400067806244
6384.91906942304,1067296.0,0.0052999998442828655,0.000859999970998615,-0.002589999930933118,0.14657999575138092
6384.920069195256,1067297.0,-0.0017099999822676182,0.0024500000290572643,-0.000590000010561198,0.14478999376296997
6384.921068967471,1067298.0,-0.007819999940693378,0.00031999999191612005,-0.0002699999895412475,0.1379700005054474
6384.9220687396855,1067299.0,-0.009840000420808792,0.00031999999191612005,0.001500000013038516,0.13947999477386475
6384.923068511901,1067300.0,-0.00965999998152256,0.005179999861866236,0.002859999891370535,0.13993999361991882
6384.924068284116,1067301.0,-0.010780000127851963,0.0030400000978261232,0.00031999999191612005,0.1453399956226349
6384.925068056332,1067302.0,-0.0147299999371171,0.0030400000978261232,0.0020000000949949026,0.1456100046634674
6384.926067828547,1067303.0,-0.020349999889731407,0.004310000222176313,9.000000136438757e-05,0.14548000693321228
6384.927067600762,1067304.0,-0.02606000006198883,0.005400000140070915,-0.003000000026077032,0.14419999718666077
6384.928067372977,1067305.0,-0.03181000053882599,0.0035000001080334187,0.00031999999191612005,0.14236000180244446
6384.929067145193,1067306.0,-0.03531000018119812,-0.0007699999841861427,0.0027699999045580626,0.13576999306678772
6384.930066917408,1067307.0,-0.0354899987578392,-0.0010900000343099236,-0.0011399999493733048,0.13530999422073364
6384.931066689624,1067308.0,-0.02928999997675419,-0.004040000028908253,-0.003590000094845891,0.13600000739097595
6384.932066461839,1067309.0,-0.01931999996304512,-0.006039999891072512,0.00014000000373926014,0.13559000194072723
6384.9330662340535,1067310.0,-0.009879999794065952,-0.008449999615550041,-0.0019099999917671084,0.13508999347686768
6384.934066006269,1067311.0,-0.0023399998899549246,-0.0024500000290572643,-0.0006799999973736703,0.14057999849319458
6384.935065778484,1067312.0,0.0028800000436604023,-0.001500000013038516,0.0021299999207258224,0.14268000423908234
6384.9360655507,1067313.0,0.005530000198632479,0.00014000000373926014,-0.002630000002682209,0.14168000221252441
6384.937065322915,1067314.0,0.006920000072568655,0.004679999779909849,-0.0010400000028312206,0.14016999304294586
6384.93806509513,1067315.0,0.007189999800175428,0.0033199999015778303,0.0011399999493733048,0.1386999934911728
6384.939064867345,1067316.0,0.007770000025629997,0.0010400000028312206,0.004129999782890081,0.13239000737667084
6384.940064639561,1067317.0,0.008270000107586384,0.0030400000978261232,-0.002859999891370535,0.13169999420642853
6384.941064411776,1067318.0,0.009929999709129333,0.0030900000128895044,-9.000000136438757e-05,0.1334799975156784
6384.9420641839915,1067319.0,0.010599999688565731,-0.0018599999602884054,0.001769999973475933,0.14034999907016754
6384.943063956206,1067320.0,0.009879999794065952,-0.0002300000051036477,-0.0031300000846385956,0.1369200050830841
6384.9440637284215,1067321.0,0.006920000072568655,0.0030900000128895044,0.0017300000181421638,0.1318800002336502
6384.945063500637,1067322.0,-0.0016599999507889152,0.004410000052303076,-0.00018000000272877514,0.13901999592781067
6384.946063272852,1067323.0,-0.010060000233352184,0.009039999917149544,-0.000859999970998615,0.1369200050830841
6384.947063045068,1067324.0,-0.02353999949991703,0.005859999917447567,-0.00014000000373926014,0.13068999350070953
6384.948062817283,1067325.0,-0.036570001393556595,0.004720000084489584,9.000000136438757e-05,0.1343500018119812
6384.949062589498,1067326.0,-0.044829998165369034,-0.002589999930933118,-0.002360000042244792,0.13600000739097595
6384.950062361713,1067327.0,-0.04797999933362007,-0.005489999894052744,0.003909999970346689,0.1295499950647354
6384.951062133929,1067328.0,-0.04636000096797943,-0.0051299999468028545,-0.0051299999468028545,0.13686999678611755
6384.952061906144,1067329.0,-0.042319998145103455,-0.007180000189691782,-0.004629999864846468,0.13412000238895416
6384.9530616783595,1067330.0,-0.036249998956918716,-0.007180000189691782,0.0010900000343099236,0.1295499950647354
6384.954061450574,1067331.0,-0.027130000293254852,0.0022700000554323196,0.00031999999191612005,0.13614000380039215
6384.9550612227895,1067332.0,-0.01819000020623207,-9.000000136438757e-05,-0.002859999891370535,0.13325999677181244
6384.956060995005,1067333.0,-0.010060000233352184,0.0024999999441206455,0.002589999930933118,0.12807999551296234
6384.95706076722,1067334.0,-0.0047599999234080315,-4.999999873689376e-05,0.0010000000474974513,0.1336199939250946
6384.958060539436,1067335.0,-0.0008999999845400453,0.006130000110715628,0.001500000013038516,0.13399000465869904
6384.959060311651,1067336.0,0.00279000005684793,-0.000590000010561198,0.0036299999337643385,0.12630000710487366
6384.960060083866,1067337.0,0.006289999932050705,0.0018599999602884054,0.002859999891370535,0.1295499950647354
6384.961059856081,1067338.0,0.009519999846816063,-0.002630000002682209,-0.001230000052601099,0.13330000638961792
6384.962059628297,1067339.0,0.010239999741315842,0.00031999999191612005,0.006579999811947346,0.12533999979496002
6384.963059400512,1067340.0,0.00839999970048666,0.00031999999191612005,-0.000539999979082495,0.12775999307632446
6384.9640591727275,1067341.0,0.006020000204443932,-0.0003600000054575503,-0.0015899999998509884,0.1321599930524826
6384.965058944942,1067342.0,0.00107999995816499,0.0072200000286102295,0.003860000055283308,0.12409999966621399
6384.9660587171575,1067343.0,-0.005929999984800816,0.00795000046491623,0.00031999999191612005,0.12529000639915466
6384.967058489373,1067344.0,-0.014910000376403332,0.007449999917298555,-0.0021299999207258224,0.13192999362945557
6384.968058261588,1067345.0,-0.02201000042259693,0.004129999782890081,0.00031999999191612005,0.12862999737262726
6384.969058033804,1067346.0,-0.027629999443888664,0.0024999999441206455,0.005090000107884407,0.12276999652385712
6384.970057806018,1067347.0,-0.031449999660253525,-0.002409999957308173,-0.00044999999227002263,0.12230999767780304
6384.971057578234,1067348.0,-0.029829999431967735,-0.00494999997317791,-0.004769999999552965,0.12258999794721603
6384.972057350449,1067349.0,-0.022280000150203705,-0.007899999618530273,0.000859999970998615,0.12189999967813492
6384.973057122665,1067350.0,-0.009879999794065952,-0.005630000028759241,0.00031999999191612005,0.121629998087883
6384.97405689488,1067351.0,0.0028800000436604023,-0.004410000052303076,-0.000539999979082495,0.12134999781847
6384.9750566670955,1067352.0,0.012079999782145023,-0.0033199999015778303,-0.0018599999602884054,0.12043999880552292
6384.97605643931,1067353.0,0.018689999356865883,-0.0015399999683722854,-0.0006399999838322401,0.12007000297307968
6384.977056211525,1067354.0,0.023310000076889992,0.0021299999207258224,0.002409999957308173,0.11947999894618988
6384.978055983741,1067355.0,0.02785000018775463,0.0028200000524520874,0.003000000026077032,0.11896999925374985
6384.979055755956,1067356.0,0.03181000053882599,0.006399999838322401,0.001180000021122396,0.11896999925374985
6384.980055528172,1067357.0,0.03117999993264675,0.005770000163465738,-0.0022700000554323196,0.11750999838113785
6384.981055300386,1067358.0,0.026149999350309372,0.003719999920576811,-4.999999873689376e-05,0.12331999838352203
6384.982055072602,1067359.0,0.02215000055730343,-0.0010900000343099236,-0.000539999979082495,0.12291000038385391
6384.983054844817,1067360.0,0.019950000569224358,0.00267999991774559,-0.0007699999841861427,0.12258999794721603
6384.984054617033,1067361.0,0.01899999938905239,-0.0012700000079348683,0.007309999782592058,0.12409999966621399
6384.985054389248,1067362.0,0.014910000376403332,0.0028200000524520874,0.00031999999191612005,0.12404999881982803
6384.9860541614635,1067363.0,0.0088900001719594,0.005590000189840794,0.0021299999207258224,0.12245000153779984
6384.987053933678,1067364.0,0.004000000189989805,0.005630000028759241,0.00031999999191612005,0.12099000066518784
6384.988053705893,1067365.0,-0.003590000094845891,0.005040000192821026,0.00031999999191612005,0.1197500005364418
6384.989053478109,1067366.0,-0.008630000054836273,0.003220000071451068,-0.002859999891370535,0.11884000152349472
6384.990053250324,1067367.0,-0.009390000253915787,-0.004999999888241291,-0.0033199999015778303,0.11298000067472458
6384.99105302254,1067368.0,-0.005750000011175871,-0.004310000222176313,0.0010000000474974513,0.11307000368833542
6384.992052794754,1067369.0,0.0003100000030826777,-0.004089999943971634,-0.0017300000181421638,0.1116499975323677
6384.99305256697,1067370.0,0.007590000052005053,-0.004679999779909849,0.0002300000051036477,0.11333999782800674
6384.994052339185,1067371.0,0.012489999644458294,-0.006630000192672014,-4.999999873689376e-05,0.11535999923944473
6384.995052111401,1067372.0,0.014870000071823597,-0.006219999864697456,-0.002589999930933118,0.11695999652147293
6384.996051883616,1067373.0,0.017430000007152557,-0.0031799999997019768,-0.0030900000128895044,0.11823999881744385
6384.9970516558315,1067374.0,0.02022000029683113,-9.000000136438757e-05,0.004269999917596579,0.11750999838113785
6384.998051428046,1067375.0,0.023310000076889992,0.004410000052303076,-4.999999873689376e-05,0.11568000167608261
6384.999051200261,1067376.0,0.026100000366568565,0.0052200001664459705,0.0010400000028312206,0.11595000326633453
6385.000050972477,1067377.0,0.026410000398755074,0.00203999993391335,-0.000590000010561198,0.11568000167608261
6385.001050744692,1067378.0,0.02425999939441681,0.0020000000949949026,0.00031999999191612005,0.1142600029706955
6385.002050516908,1067379.0,0.01923000067472458,0.0014100000262260437,-0.0006799999973736703,0.1123799979686737
6385.003050289122,1067380.0,0.012040000408887863,-0.0007699999841861427,-0.002589999930933118,0.11087000370025635
6385.004050061338,1067381.0,0.004540000110864639,0.004269999917596579,0.0021299999207258224,0.10941000282764435
6385.005049833553,1067382.0,-0.004220000002533197,0.006130000110715628,0.0024999999441206455,0.10367999970912933
6385.006049605769,1067383.0,-0.012760000303387642,0.005950000137090683,-0.002589999930933118,0.10378000140190125
6385.007049377984,1067384.0,-0.02071000076830387,0.0034099998883903027,-0.0030900000128895044,0.10350000113248825
6385.0080491501985,1067385.0,-0.02947000041604042,0.003590000094845891,0.0015399999683722854,0.10231000185012817
6385.009048922414,1067386.0,-0.03162999823689461,-0.0020000000949949026,-0.002360000042244792,0.10231000185012817
6385.010048694629,1067387.0,-0.029650000855326653,-0.0018599999602884054,-0.006949999835342169,0.1043199971318245
6385.011048466845,1067388.0,-0.026909999549388885,-0.006949999835342169,0.0010400000028312206,0.10698000341653824
6385.01204823906,1067389.0,-0.02363000065088272,-0.00839999970048666,-0.0028200000524520874,0.10620000213384628
6385.013048011276,1067390.0,-0.017430000007152557,-0.005489999894052744,-0.002950000111013651,0.10482999682426453
6385.01404778349,1067391.0,-0.008539999835193157,-0.0030400000978261232,0.002859999891370535,0.10281000286340714
6385.015047555706,1067392.0,-0.00018000000272877514,-0.0002699999895412475,-0.000590000010561198,0.09640999883413315
6385.016047327921,1067393.0,0.0052999998442828655,-0.0017300000181421638,-0.0013599999947473407,0.09544000029563904
6385.017047100137,1067394.0,0.008449999615550041,-0.000859999970998615,0.001449999981559813,0.094760000705719
6385.018046872352,1067395.0,0.00800000037997961,0.0021299999207258224,0.00031999999191612005,0.09480000287294388
6385.0190466445665,1067396.0,0.004490000195801258,0.0009500000160187483,0.004310000222176313,0.09809999912977219
6385.020046416782,1067397.0,-0.0025599999353289604,-0.0002300000051036477,0.000859999970998615,0.09993000328540802
6385.021046188997,1067398.0,-0.011859999969601631,0.004410000052303076,0.0,0.0979200005531311
6385.022045961213,1067399.0,-0.02191999927163124,0.0025400000158697367,0.0018599999602884054,0.09539999812841415
6385.023045733428,1067400.0,-0.028750000521540642,0.0024999999441206455,-0.001500000013038516,0.08968000113964081
6385.024045505644,1067401.0,-0.032340001314878464,0.002319999970495701,-0.001230000052601099,0.08968000113964081
6385.025045277858,1067402.0,-0.03683999925851822,0.004679999779909849,0.0024999999441206455,0.08876000344753265
6385.026045050074,1067403.0,-0.04106000065803528,0.008630000054836273,-0.001180000021122396,0.09407000243663788
6385.027044822289,1067404.0,-0.046810001134872437,0.00494999997317791,0.00031999999191612005,0.09407000243663788
6385.0280445945045,1067405.0,-0.05355000123381615,0.0010400000028312206,-0.0007300000288523734,0.09218999743461609
6385.02904436672,1067406.0,-0.05857999995350838,0.0018599999602884054,-0.0020000000949949026,0.09018000215291977
6385.0300441389345,1067407.0,-0.0611799992620945,-0.004769999999552965,-0.007360000163316727,0.08382000029087067
6385.03104391115,1067408.0,-0.0611799992620945,-0.009309999644756317,0.0028200000524520874,0.08468999713659286
6385.032043683365,1067409.0,-0.057500001043081284,-0.004410000052303076,0.00031999999191612005,0.0873899981379509
6385.033043455581,1067410.0,-0.0514799989759922,-0.0045900000259280205,-0.0016799999866634607,0.08816999942064285
6385.034043227796,1067411.0,-0.04569000005722046,-0.0035000001080334187,-0.004129999782890081,0.08698000013828278
6385.035043000012,1067412.0,-0.039170000702142715,-0.004809999838471413,0.0024500000290572643,0.08449999988079071
6385.036042772226,1067413.0,-0.03305999934673309,-0.003860000055283308,0.004720000084489584,0.07993000000715256
6385.037042544442,1067414.0,-0.02785000018775463,0.0,0.0019499999471008778,0.07863999903202057
6385.038042316657,1067415.0,-0.02133999951183796,0.001180000021122396,0.004629999864846468,0.07750000059604645
6385.0390420888725,1067416.0,-0.01769999973475933,0.0022299999836832285,0.0014100000262260437,0.07631000131368637
6385.040041861088,1067417.0,-0.01508999988436699,0.003719999920576811,0.00031999999191612005,0.07535000145435333
6385.0410416333025,1067418.0,-0.011500000022351742,0.0035000001080334187,-0.0007699999841861427,0.07429999858140945
6385.042041405518,1067419.0,-0.007189999800175428,0.006089999806135893,0.003449999960139394,0.0741100013256073
6385.043041177733,1067420.0,-0.003860000055283308,0.003220000071451068,-0.0021800000686198473,0.07699999958276749
6385.044040949949,1067421.0,-0.0009899999713525176,0.00031999999191612005,-0.004129999782890081,0.07979000359773636
6385.045040722164,1067422.0,-0.005210000090301037,0.00267999991774559,0.002360000042244792,0.07859999686479568
6385.046040494379,1067423.0,-0.015540000051259995,0.002859999891370535,-0.000859999970998615,0.07750000059604645
6385.047040266594,1067424.0,-0.02694999985396862,0.0031300000846385956,0.00031999999191612005,0.07699999958276749
6385.04804003881,1067425.0,-0.03229999914765358,0.00031999999191612005,-0.006630000192672014,0.07566999644041061
6385.049039811025,1067426.0,-0.032340001314878464,-0.000590000010561198,-0.0044999998062849045,0.07562000304460526
6385.0500395832405,1067427.0,-0.028750000521540642,-0.0012700000079348683,0.0014100000262260437,0.07378999888896942
6385.051039355456,1067428.0,-0.022690000012516975,-0.004410000052303076,-4.999999873689376e-05,0.07219000160694122
6385.0520391276705,1067429.0,-0.015270000323653221,-0.005679999943822622,0.00031999999191612005,0.07062999904155731
6385.053038899886,1067430.0,-0.007590000052005053,-0.0031300000846385956,-0.0015399999683722854,0.06453999876976013
6385.054038672101,1067431.0,0.0008999999845400453,-0.004449999891221523,-0.0036800000816583633,0.06345000118017197
6385.055038444317,1067432.0,0.01095999963581562,-0.004410000052303076,0.003220000071451068,0.06807000190019608
6385.056038216532,1067433.0,0.022509999573230743,0.001230000052601099,0.004900000058114529,0.0686199963092804
6385.057037988747,1067434.0,0.03139999881386757,-0.0012700000079348683,0.0014100000262260437,0.06693000346422195
6385.058037760962,1067435.0,0.03449999913573265,0.003590000094845891,0.0010400000028312206,0.06476999819278717
6385.059037533178,1067436.0,0.037289999425411224,0.003000000026077032,0.00031999999191612005,0.059140000492334366
6385.060037305393,1067437.0,0.039889998733997345,0.003220000071451068,-0.001500000013038516,0.05818000063300133
6385.0610370776085,1067438.0,0.04393000155687332,0.0044999998062849045,-0.0010400000028312206,0.05716999992728233
6385.062036849824,1067439.0,0.04617999866604805,0.004220000002533197,-0.0002699999895412475,0.05561999976634979
6385.063036622038,1067440.0,0.05071999877691269,0.003220000071451068,-0.0018599999602884054,0.05561999976634979
6385.064036394254,1067441.0,0.05435999855399132,0.003220000071451068,-0.0029100000392645597,0.05671999976038933
6385.065036166469,1067442.0,0.05641999840736389,0.005450000055134296,0.0014100000262260437,0.05891000106930733
6385.066035938685,1067443.0,0.053769998252391815,0.006579999811947346,0.002589999930933118,0.05992000177502632
6385.0670357109,1067444.0,0.045010000467300415,0.003220000071451068,-0.0015899999998509884,0.0595100000500679
6385.068035483115,1067445.0,0.03449999913573265,-0.0011399999493733048,-0.000590000010561198,0.05745000019669533
6385.06903525533,1067446.0,0.03037000074982643,-0.0013200000394135714,-0.0031300000846385956,0.055070001631975174
6385.070035027546,1067447.0,0.03328999876976013,-0.0007699999841861427,-0.003269999986514449,0.05135999992489815
6385.071034799761,1067448.0,0.03832000121474266,-0.002589999930933118,-0.00044999999227002263,0.04915999993681908
6385.0720345719765,1067449.0,0.04222999885678291,-0.005489999894052744,0.002319999970495701,0.04820000007748604
6385.073034344191,1067450.0,0.04586999863386154,-0.005590000189840794,-0.0020000000949949026,0.047200001776218414
6385.074034116406,1067451.0,0.050850000232458115,-0.003590000094845891,-0.00044999999227002263,0.04633000120520592
6385.075033888622,1067452.0,0.056379999965429306,-0.00203999993391335,-0.00041000000783242285,0.04513999819755554
6385.076033660837,1067453.0,0.05875999853014946,-0.0011399999493733048,-0.003220000071451068,0.047200001776218414
6385.077033433053,1067454.0,0.05948000028729439,-0.00203999993391335,-0.0024500000290572643,0.05048999935388565
6385.078033205268,1067455.0,0.061810001730918884,0.0010400000028312206,0.0024999999441206455,0.04912000149488449
6385.079032977483,1067456.0,0.06414999812841415,0.003539999946951866,-0.0008200000156648457,0.04788000136613846
6385.080032749698,1067457.0,0.06451000273227692,0.001769999973475933,-0.002319999970495701,0.04715000092983246
6385.081032521914,1067458.0,0.06276000291109085,0.005040000192821026,0.005270000081509352,0.04532000049948692
6385.082032294129,1067459.0,0.06095999851822853,0.004000000189989805,-0.0011399999493733048,0.043209999799728394
6385.0830320663445,1067460.0,0.05984000116586685,0.0031300000846385956,-0.0031300000846385956,0.04261999949812889
6385.084031838559,1067461.0,0.05916000157594681,0.000910000002477318,-0.0021800000686198473,0.042249999940395355
6385.085031610774,1067462.0,0.05463000014424324,0.0030900000128895044,0.00031999999191612005,0.04239000007510185
6385.08603138299,1067463.0,0.046810001134872437,0.007400000002235174,0.006039999891072512,0.04221000149846077
6385.087031155205,1067464.0,0.03790999948978424,0.007670000195503235,-4.999999873689376e-05,0.04129000008106232
6385.088030927421,1067465.0,0.02978000044822693,0.0020000000949949026,-0.0009500000160187483,0.040150001645088196
6385.089030699636,1067466.0,0.02606000006198883,0.0024500000290572643,-0.00203999993391335,0.03863999992609024
6385.090030471851,1067467.0,0.025520000606775284,0.001500000013038516,0.0020000000949949026,0.037220001220703125
6385.091030244066,1067468.0,0.029239999130368233,-0.0045900000259280205,0.0016299999551847577,0.03539000079035759
6385.092030016282,1067469.0,0.033959999680519104,-0.00267999991774559,-0.0030400000978261232,0.03034999966621399
6385.093029788497,1067470.0,0.04056999832391739,-0.004999999888241291,-0.003000000026077032,0.029160000383853912
6385.094029560712,1067471.0,0.046629998832941055,-0.005489999894052744,-0.0022700000554323196,0.028060000389814377
6385.095029332927,1067472.0,0.05445000156760216,-0.006219999864697456,0.003220000071451068,0.026690000668168068
6385.096029105142,1067473.0,0.06342999637126923,-0.0011399999493733048,-0.00041000000783242285,0.025499999523162842
6385.097028877358,1067474.0,0.07017000019550323,-0.0017300000181421638,-0.0006399999838322401,0.025590000674128532
6385.098028649573,1067475.0,0.07156000286340714,0.002859999891370535,-0.00031999999191612005,0.025679999962449074
6385.099028421789,1067476.0,0.06719999760389328,0.004129999782890081,-0.001500000013038516,0.02329999953508377
6385.100028194004,1067477.0,0.0588500015437603,0.002360000042244792,-0.0007699999841861427,0.021700000390410423
6385.101027966219,1067478.0,0.05057999864220619,0.007040000054985285,0.006130000110715628,0.021649999544024467
6385.102027738434,1067479.0,0.04554999992251396,-0.00041000000783242285,0.0044999998062849045,0.021560000255703926
6385.10302751065,1067480.0,0.044199999421834946,0.0035000001080334187,0.00031999999191612005,0.02443999983370304
6385.104027282865,1067481.0,0.042410001158714294,0.005630000028759241,0.00031999999191612005,0.02443999983370304
6385.10502705508,1067482.0,0.0370200015604496,0.004679999779909849,-0.001500000013038516,0.023760000243782997
6385.106026827295,1067483.0,0.028750000521540642,0.009039999917149544,-0.0030400000978261232,0.022379999980330467
6385.10702659951,1067484.0,0.02012999914586544,0.006130000110715628,-0.0011399999493733048,0.018629999831318855
6385.108026371726,1067485.0,0.013570000417530537,0.00031999999191612005,-0.0010900000343099236,0.01534000039100647
6385.109026143941,1067486.0,0.011049999855458736,0.001769999973475933,0.001769999973475933,0.014510000124573708
6385.110025916157,1067487.0,0.01384000014513731,-0.004040000028908253,-0.003000000026077032,0.015790000557899475
6385.111025688371,1067488.0,0.022059999406337738,-0.005489999894052744,-0.005489999894052744,0.016249999403953552
6385.112025460587,1067489.0,0.033959999680519104,-0.005489999894052744,0.0029100000392645597,0.016249999403953552
6385.113025232802,1067490.0,0.044829998165369034,-0.006630000192672014,0.0015399999683722854,0.01534000039100647
6385.1140250050175,1067491.0,0.05372999981045723,-0.0063599999994039536,-0.0022299999836832285,0.014050000347197056
6385.115024777233,1067492.0,0.06486999988555908,-0.0051299999468028545,-0.001449999981559813,0.012679999694228172
6385.116024549448,1067493.0,0.07034999877214432,-0.0005000000237487257,0.005489999894052744,0.009610000066459179
6385.117024321663,1067494.0,0.06774000078439713,0.0010000000474974513,0.00031999999191612005,0.003980000037699938
6385.118024093878,1067495.0,0.06145000085234642,0.00031999999191612005,-0.0006399999838322401,0.007600000128149986
6385.119023866094,1067496.0,0.0573199987411499,0.0037700000684708357,0.004999999888241291,0.008150000125169754
6385.120023638309,1067497.0,0.05372999981045723,0.004129999782890081,0.001230000052601099,0.0021100000012665987
6385.121023410525,1067498.0,0.050220001488924026,0.002360000042244792,-0.0015899999998509884,4.999999873689376e-05
6385.122023182739,1067499.0,0.04887999966740608,0.0010900000343099236,0.0036800000816583633,0.005450000055134296
6385.123022954955,1067500.0,0.046939998865127563,-0.002319999970495701,-0.003220000071451068,-0.0009200000204145908
6385.12402272717,1067501.0,0.0436599999666214,0.004720000084489584,-0.003449999960139394,-0.0026100000832229853
6385.1250224993855,1067502.0,0.037689998745918274,0.0027699999045580626,0.007040000054985285,0.0012799999676644802
6385.126022271601,1067503.0,0.03198999911546707,0.00795000046491623,-0.0036800000816583633,-0.004619999788701534
6385.127022043816,1067504.0,0.023809999227523804,0.007400000002235174,-0.0036299999337643385,0.00018000000272877514
6385.128021816031,1067505.0,0.015449999831616879,0.0022700000554323196,-0.0015899999998509884,-0.002469999948516488
6385.129021588246,1067506.0,0.008270000107586384,0.0010400000028312206,0.0016299999551847577,-0.004389999900013208
6385.130021360462,1067507.0,0.0008099999977275729,-0.00267999991774559,-0.002950000111013651,-0.008559999987483025
6385.131021132677,1067508.0,0.0,-0.0030400000978261232,-0.003000000026077032,-0.010479999706149101
6385.132020904893,1067509.0,0.006829999852925539,-0.010490000247955322,0.00031999999191612005,-0.010440000332891941
6385.133020677107,1067510.0,0.014379999600350857,-0.00839999970048666,-0.0011399999493733048,-0.006680000107735395
6385.134020449323,1067511.0,0.02102000080049038,-0.007309999782592058,-0.00014000000373926014,-0.006089999806135893
6385.135020221538,1067512.0,0.029069999232888222,-0.0027199999894946814,-0.001769999973475933,-0.008510000072419643
6385.1360199937535,1067513.0,0.03539999946951866,-0.0008200000156648457,0.004129999782890081,-0.011350000277161598
6385.137019765969,1067514.0,0.03720000013709068,-0.00014000000373926014,-0.0024500000290572643,-0.015110000036656857
6385.1380195381835,1067515.0,0.037379998713731766,0.003220000071451068,-0.0021800000686198473,-0.01689000055193901
6385.139019310399,1067516.0,0.03711000084877014,-0.0024500000290572643,0.0022700000554323196,-0.017580000683665276
6385.140019082614,1067517.0,0.036159999668598175,0.005489999894052744,-0.004269999917596579,-0.016300000250339508
6385.14101885483,1067518.0,0.03432000055909157,0.004679999779909849,-0.001820000004954636,-0.015200000256299973
6385.142018627045,1067519.0,0.03215999901294708,0.00267999991774559,0.0034099998883903027,-0.014510000124573708
6385.143018399261,1067520.0,0.02857000008225441,0.00031999999191612005,-0.0003600000054575503,-0.01583999954164028
6385.144018171475,1067521.0,0.025200000032782555,0.005040000192821026,-0.0010000000474974513,-0.018629999831318855
6385.145017943691,1067522.0,0.018689999356865883,0.004269999917596579,0.005770000163465738,-0.022609999403357506
6385.146017715906,1067523.0,0.009929999709129333,0.00749000022187829,0.002360000042244792,-0.02457999996840954
6385.1470174881215,1067524.0,0.0012600000482052565,0.0037700000684708357,-0.0031300000846385956,-0.02677999995648861
6385.148017260337,1067525.0,-0.0053900000639259815,0.00267999991774559,0.0022700000554323196,-0.025960000231862068
6385.1490170325515,1067526.0,-0.010239999741315842,0.0016799999866634607,0.001769999973475933,-0.023350000381469727
6385.150016804767,1067527.0,-0.0129399998113513,0.0022700000554323196,-0.006949999835342169,-0.02339000068604946
6385.151016576982,1067528.0,-0.009340000338852406,-0.005630000028759241,-0.0031799999997019768,-0.024170000106096268
6385.152016349198,1067529.0,-0.0006300000241026282,-0.009850000031292439,-0.0009500000160187483,-0.02696000039577484
6385.153016121413,1067530.0,0.007860000245273113,-0.002589999930933118,-0.0012700000079348683,-0.02897999994456768
6385.154015893629,1067531.0,0.016440000385046005,-0.007720000110566616,0.00031999999191612005,-0.032680001109838486
6385.155015665843,1067532.0,0.023269999772310257,-0.002589999930933118,0.006130000110715628,-0.03401000052690506
6385.156015438059,1067533.0,0.02947000041604042,-0.0012700000079348683,0.0016299999551847577,-0.03589000180363655
6385.157015210274,1067534.0,0.032930001616477966,0.005400000140070915,-0.0015899999998509884,-0.03666999936103821
6385.1580149824895,1067535.0,0.036479998379945755,0.004679999779909849,0.0011399999493733048,-0.037450000643730164
6385.159014754705,1067536.0,0.04163999855518341,0.006130000110715628,0.004449999891221523,-0.03621000051498413
6385.160014526919,1067537.0,0.043710000813007355,-0.0011399999493733048,-0.0011399999493733048,-0.03488000109791756
6385.161014299135,1067538.0,0.04357999935746193,0.0010400000028312206,-0.00798999983817339,-0.03539000079035759
6385.16201407135,1067539.0,0.043129999190568924,-0.0021800000686198473,0.004129999782890081,-0.03666999936103821
6385.163013843566,1067540.0,0.04374999925494194,0.004679999779909849,0.0021299999207258224,-0.037450000643730164
6385.164013615781,1067541.0,0.04303999990224838,0.002319999970495701,0.002409999957308173,-0.0384100005030632
6385.165013387997,1067542.0,0.03962000086903572,0.00031999999191612005,-0.002090000081807375,-0.03951000049710274
6385.166013160211,1067543.0,0.028750000521540642,0.00686000008136034,0.0010900000343099236,-0.04114999994635582
6385.167012932427,1067544.0,0.011900000274181366,0.006719999946653843,-0.0008200000156648457,-0.04340000078082085
6385.168012704642,1067545.0,-0.0028800000436604023,0.004679999779909849,-0.000859999970998615,-0.04706000164151192
6385.1690124768575,1067546.0,-0.008980000391602516,9.000000136438757e-05,0.0010900000343099236,-0.04806999862194061
6385.170012249073,1067547.0,-0.007819999940693378,-0.002589999930933118,-0.00044999999227002263,-0.05057999864220619
6385.171012021287,1067548.0,-0.004670000169426203,-0.002859999891370535,-0.0022700000554323196,-0.05008000135421753
6385.172011793503,1067549.0,-0.0007200000109151006,-0.006219999864697456,-0.001500000013038516,-0.05094999819993973
6385.173011565718,1067550.0,0.004670000169426203,-0.006219999864697456,0.00031999999191612005,-0.048980001360177994
6385.174011337934,1067551.0,0.011680000461637974,-0.006579999811947346,-0.0031300000846385956,-0.0488400012254715
6385.175011110149,1067552.0,0.019770000129938126,-0.0033199999015778303,-0.0002699999895412475,-0.05167999863624573
6385.176010882364,1067553.0,0.02622999995946884,-0.0031300000846385956,0.004310000222176313,-0.05502000078558922
6385.177010654579,1067554.0,0.03037000074982643,0.0012700000079348683,0.00031999999191612005,-0.057590000331401825
6385.178010426795,1067555.0,0.03305999934673309,0.004360000137239695,-0.000590000010561198,-0.057909999042749405
6385.17901019901,1067556.0,0.03413999825716019,0.005309999920427799,0.00031999999191612005,-0.05713000148534775
6385.180009971225,1067557.0,0.03136000037193298,0.0051299999468028545,0.0028200000524520874,-0.05900999903678894
6385.181009743441,1067558.0,0.028030000627040863,0.006490000057965517,0.002319999970495701,-0.06078999862074852
6385.182009515655,1067559.0,0.02655000053346157,-0.0011399999493733048,-0.0031300000846385956,-0.062300000339746475
6385.183009287871,1067560.0,0.02694999985396862,-0.0013599999947473407,-0.004269999917596579,-0.06372000277042389
6385.184009060086,1067561.0,0.025429999455809593,0.0009500000160187483,-0.0022299999836832285,-0.06418000161647797
6385.185008832302,1067562.0,0.020980000495910645,0.0024999999441206455,0.0009500000160187483,-0.06449999660253525
6385.186008604517,1067563.0,0.011549999937415123,0.005040000192821026,0.003220000071451068,-0.06550999730825424
6385.187008376732,1067564.0,-0.0008999999845400453,0.002630000002682209,0.000859999970998615,-0.0660099983215332
6385.188008148947,1067565.0,-0.011500000022351742,9.000000136438757e-05,-0.0018599999602884054,-0.06757000088691711
6385.189007921163,1067566.0,-0.021069999784231186,0.002859999891370535,-0.001769999973475933,-0.06893999874591827
6385.190007693378,1067567.0,-0.02857000008225441,-0.003719999920576811,-0.0012700000079348683,-0.06802000105381012
6385.191007465593,1067568.0,-0.028750000521540642,-0.003949999809265137,-0.004040000028908253,-0.06615000218153
6385.192007237809,1067569.0,-0.024800000712275505,-0.005770000163465738,-0.0030900000128895044,-0.06665000319480896
6385.193007010023,1067570.0,-0.019950000569224358,-0.007670000195503235,0.002950000111013651,-0.06880000233650208
6385.194006782239,1067571.0,-0.01307000033557415,-0.0020000000949949026,-0.0016799999866634607,-0.07242000102996826
6385.195006554454,1067572.0,-0.004449999891221523,-0.004410000052303076,0.0010400000028312206,-0.07383999973535538
6385.19600632667,1067573.0,0.001930000027641654,-0.001180000021122396,-0.0002300000051036477,-0.07292000204324722
6385.197006098885,1067574.0,0.007770000025629997,0.0016799999866634607,-0.0008200000156648457,-0.07072000205516815
6385.1980058711,1067575.0,0.0147299999371171,0.0021299999207258224,0.004220000002533197,-0.07219000160694122
6385.199005643315,1067576.0,0.02053000032901764,0.0027699999045580626,-0.0028200000524520874,-0.07419999688863754
6385.2000054155305,1067577.0,0.022280000150203705,-0.001230000052601099,0.00031999999191612005,-0.07681000232696533
6385.201005187746,1067578.0,0.02071000076830387,0.001769999973475933,0.006130000110715628,-0.07831999659538269
6385.202004959961,1067579.0,0.017829999327659607,-0.00041000000783242285,0.0018599999602884054,-0.07924000173807144
6385.203004732176,1067580.0,0.014379999600350857,0.0033599999733269215,-0.0028200000524520874,-0.08079999685287476
6385.204004504391,1067581.0,0.007459999993443489,0.001769999973475933,0.003590000094845891,-0.07823000103235245
6385.205004276607,1067582.0,-0.000539999979082495,0.002859999891370535,0.0002300000051036477,-0.07717999815940857
6385.206004048822,1067583.0,-0.010870000347495079,0.009039999917149544,-0.0007699999841861427,-0.07932999730110168
6385.207003821038,1067584.0,-0.018459999933838844,0.002630000002682209,0.0010400000028312206,-0.08243999630212784
6385.208003593253,1067585.0,-0.02092999964952469,0.00267999991774559,-0.0007300000288523734,-0.08472999930381775
6385.209003365468,1067586.0,-0.019680000841617584,0.00031999999191612005,0.002409999957308173,-0.08290000259876251
6385.210003137683,1067587.0,-0.016979999840259552,-0.0016799999866634607,-0.00018000000272877514,-0.08106999844312668
6385.2110029098985,1067588.0,-0.012129999697208405,-0.0027699999045580626,-0.0015399999683722854,-0.08376999944448471
6385.212002682114,1067589.0,-0.005969999823719263,-0.007309999782592058,0.0013200000394135714,-0.08632999658584595
6385.213002454329,1067590.0,0.004540000110864639,-0.008080000057816505,-0.002589999930933118,-0.08386000245809555
6385.214002226544,1067591.0,0.015449999831616879,-0.004410000052303076,0.0019099999917671084,-0.08606000244617462
6385.215001998759,1067592.0,0.028209999203681946,-0.0044999998062849045,-0.0007699999841861427,-0.08912999927997589
6385.216001770975,1067593.0,0.036479998379945755,0.0002300000051036477,0.002950000111013651,-0.08518999814987183
6385.21700154319,1067594.0,0.04187000170350075,0.004129999782890081,0.0021299999207258224,-0.08990000188350677
6385.218001315406,1067595.0,0.0451899990439415,0.003220000071451068,0.001230000052601099,-0.08912999927997589
6385.219001087621,1067596.0,0.04546000063419342,0.0013599999947473407,0.0019099999917671084,-0.08793999999761581
6385.220000859836,1067597.0,0.046720001846551895,0.0037700000684708357,-0.0024500000290572643,-0.08829999715089798
6385.221000632051,1067598.0,0.045820001512765884,0.0015899999998509884,0.0036299999337643385,-0.08976999670267105
6385.2220004042665,1067599.0,0.044520001858472824,-0.0019099999917671084,0.0015399999683722854,-0.09096000343561172
6385.223000176482,1067600.0,0.04276999831199646,0.00494999997317791,-0.004040000028908253,-0.09342999756336212
6385.223999948697,1067601.0,0.038989998400211334,4.999999873689376e-05,0.00018000000272877514,-0.09511999785900116
6385.224999720912,1067602.0,0.02717999927699566,0.006130000110715628,-0.004000000189989805,-0.09380000084638596
6385.225999493127,1067603.0,0.01348000019788742,0.00839999970048666,0.004900000058114529,-0.092009998857975
6385.226999265343,1067604.0,0.004269999917596579,0.0018599999602884054,-0.0031799999997019768,-0.09420999884605408
6385.227999037558,1067605.0,9.000000136438757e-05,0.0034099998883903027,-0.0011399999493733048,-0.09681999683380127
6385.228998809774,1067606.0,-0.0027000000700354576,0.0024999999441206455,-0.0011399999493733048,-0.09786999970674515
6385.229998581989,1067607.0,-0.0008999999845400453,-0.0062699997797608376,-0.003000000026077032,-0.09673000127077103
6385.230998354204,1067608.0,0.004989999812096357,-0.0022299999836832285,-0.004449999891221523,-0.09480000287294388
6385.231998126419,1067609.0,0.01257999986410141,-0.008539999835193157,0.00203999993391335,-0.09673000127077103
6385.2329978986345,1067610.0,0.020390000194311142,-0.006949999835342169,-0.005590000189840794,-0.0993800014257431
6385.23399767085,1067611.0,0.029069999232888222,-0.0031799999997019768,0.0024500000290572643,-0.10057000070810318
6385.234997443065,1067612.0,0.0384100005030632,-0.003949999809265137,-0.00041000000783242285,-0.09928999841213226
6385.23599721528,1067613.0,0.04464999958872795,-0.002950000111013651,0.002090000081807375,-0.09809999912977219
6385.236996987495,1067614.0,0.04554999992251396,0.0013599999947473407,0.0017300000181421638,-0.10074999928474426
6385.237996759711,1067615.0,0.04631999880075455,0.003909999970346689,-0.0019499999471008778,-0.10277000069618225
6385.238996531926,1067616.0,0.04617999866604805,0.0014100000262260437,0.002589999930933118,-0.10267999768257141
6385.239996304142,1067617.0,0.04631999880075455,0.004040000028908253,-0.0037700000684708357,-0.10138999670743942
6385.240996076356,1067618.0,0.04631999880075455,0.0015899999998509884,-0.0016299999551847577,-0.10047999769449234
6385.241995848572,1067619.0,0.04473999887704849,0.0014100000262260437,-0.0007300000288523734,-0.10249000042676926
6385.242995620787,1067620.0,0.043129999190568924,0.000910000002477318,0.00031999999191612005,-0.1051499992609024
6385.2439953930025,1067621.0,0.04047999903559685,0.003220000071451068,-0.0017300000181421638,-0.10413999855518341
6385.244995165218,1067622.0,0.03378000110387802,0.0024999999441206455,0.0027699999045580626,-0.10244999825954437
6385.245994937433,1067623.0,0.02353999949991703,0.0071299998089671135,0.0016299999551847577,-0.10478000342845917
6385.246994709648,1067624.0,0.011140000075101852,0.004679999779909849,-0.002589999930933118,-0.10651999711990356
6385.247994481863,1067625.0,0.0003100000030826777,0.004220000002533197,-0.001500000013038516,-0.10698000341653824
6385.248994254079,1067626.0,-0.006380000151693821,-0.002950000111013651,-0.002090000081807375,-0.10767000168561935
6385.249994026294,1067627.0,-0.008539999835193157,-0.0006799999973736703,0.003220000071451068,-0.10807999968528748
6385.25099379851,1067628.0,-0.00610999995842576,-0.007360000163316727,-0.002589999930933118,-0.10871999710798264
6385.251993570724,1067629.0,-0.0009399999980814755,-0.00494999997317791,-0.00014000000373926014,-0.10918000340461731
6385.25299334294,1067630.0,0.0069599999114871025,-0.00839999970048666,-0.003220000071451068,-0.11032000184059143
6385.253993115155,1067631.0,0.015629999339580536,-0.0027199999894946814,0.000910000002477318,-0.10721000283956528
6385.2549928873705,1067632.0,0.0258799996227026,-0.003449999960139394,0.00031999999191612005,-0.10843999683856964
6385.255992659586,1067633.0,0.03260999917984009,0.0013200000394135714,0.00031999999191612005,-0.11123999953269958
6385.256992431801,1067634.0,0.0325700007379055,0.004089999943971634,0.004220000002533197,-0.1084899976849556
6385.257992204016,1067635.0,0.03117999993264675,0.0011399999493733048,-0.000539999979082495,-0.11118999868631363
6385.258991976231,1067636.0,0.030009999871253967,0.004220000002533197,0.0030900000128895044,-0.10999999940395355
6385.259991748447,1067637.0,0.026590000838041306,0.005679999943822622,-0.0014100000262260437,-0.11210999637842178
6385.260991520662,1067638.0,0.02384999953210354,-0.0009500000160187483,0.00031999999191612005,-0.11136999726295471
6385.261991292878,1067639.0,0.02102000080049038,-0.0017300000181421638,-0.0019099999917671084,-0.11275000125169754
6385.262991065092,1067640.0,0.017430000007152557,-0.0005000000237487257,0.004220000002533197,-0.11260999739170074
6385.263990837308,1067641.0,0.014379999600350857,0.002589999930933118,0.00031999999191612005,-0.11247000098228455
6385.264990609523,1067642.0,0.008129999972879887,0.0031799999997019768,-0.0003600000054575503,-0.11563000082969666
6385.265990381738,1067643.0,0.002520000096410513,0.00803999975323677,0.000910000002477318,-0.1125200018286705
6385.266990153954,1067644.0,-0.003229999914765358,0.008670000359416008,-0.004410000052303076,-0.1158600002527237
6385.267989926168,1067645.0,-0.009429999627172947,0.003809999907389283,0.002360000042244792,-0.11394000053405762
6385.268989698384,1067646.0,-0.01343000028282404,-0.0013599999947473407,-0.0002300000051036477,-0.11503999680280685
6385.269989470599,1067647.0,-0.017880000174045563,-0.004040000028908253,0.002589999930933118,-0.11695999652147293
6385.270989242815,1067648.0,-0.018869999796152115,-0.004809999838471413,-0.0033199999015778303,-0.1148499995470047
6385.27198901503,1067649.0,-0.014550000429153442,-0.003719999920576811,-0.0044999998062849045,-0.11765000224113464
6385.272988787246,1067650.0,-0.005030000116676092,-0.004410000052303076,-0.002360000042244792,-0.119159996509552
6385.27398855946,1067651.0,0.0048500001430511475,-0.0036800000816583633,-0.002589999930933118,-0.11838000267744064
6385.274988331676,1067652.0,0.01384000014513731,-0.00798999983817339,0.0045900000259280205,-0.11687000095844269
6385.275988103891,1067653.0,0.020479999482631683,-0.00014000000373926014,-0.0018599999602884054,-0.11810000240802765
6385.276987876106,1067654.0,0.024709999561309814,0.0045900000259280205,-0.002319999970495701,-0.1204800009727478
6385.277987648322,1067655.0,0.02281999960541725,-0.0007699999841861427,0.001230000052601099,-0.12015999853610992
6385.278987420536,1067656.0,0.015720000490546227,0.0018599999602884054,-0.0010400000028312206,-0.11911000311374664
6385.279987192752,1067657.0,0.0101500004529953,0.002360000042244792,-0.0007300000288523734,-0.12212999910116196
6385.280986964967,1067658.0,0.007550000213086605,0.004360000137239695,0.001230000052601099,-0.12056999653577805
6385.281986737183,1067659.0,0.004900000058114529,0.0014100000262260437,-0.0037700000684708357,-0.120619997382164
6385.282986509398,1067660.0,0.0017999999690800905,0.003220000071451068,0.00267999991774559,-0.12199000269174576
6385.283986281614,1067661.0,-0.0018899999558925629,0.004679999779909849,-0.0007300000288523734,-0.12387000024318695
6385.284986053828,1067662.0,-0.0065100002102553844,0.005400000140070915,0.003000000026077032,-0.12455999851226807
6385.2859858260435,1067663.0,-0.014469999819993973,0.005859999917447567,0.00031999999191612005,-0.12250000238418579
6385.286985598259,1067664.0,-0.026820000261068344,0.007040000054985285,-0.002589999930933118,-0.12281999737024307
6385.287985370474,1067665.0,-0.0384100005030632,0.0027699999045580626,0.00031999999191612005,-0.1246500015258789
6385.28898514269,1067666.0,-0.04780000075697899,-0.0003600000054575503,-0.005770000163465738,-0.12680000066757202
6385.289984914904,1067667.0,-0.052650000900030136,-0.003909999970346689,0.0031799999997019768,-0.1256600022315979
6385.29098468712,1067668.0,-0.05313999950885773,-0.002630000002682209,-0.004129999782890081,-0.12460000067949295
6385.291984459335,1067669.0,-0.04816000163555145,-0.00203999993391335,-0.002090000081807375,-0.12575000524520874
6385.292984231551,1067670.0,-0.04213999956846237,-0.0062699997797608376,0.002630000002682209,-0.12721000611782074
6385.293984003766,1067671.0,-0.037289999425411224,-0.004040000028908253,-0.000910000002477318,-0.12761999666690826
6385.294983775982,1067672.0,-0.030549999326467514,-0.0027199999894946814,-0.00203999993391335,-0.12946000695228577
6385.295983548196,1067673.0,-0.023000000044703484,-0.0022299999836832285,0.0013200000394135714,-0.12950000166893005
6385.2969833204115,1067674.0,-0.01779000088572502,0.001820000004954636,0.002859999891370535,-0.1295499950647354
6385.297983092627,1067675.0,-0.0147299999371171,0.004679999779909849,-0.000859999970998615,-0.1297300010919571
6385.298982864842,1067676.0,-0.012129999697208405,0.004040000028908253,0.00031999999191612005,-0.13120000064373016
6385.299982637058,1067677.0,-0.009750000201165676,0.00031999999191612005,0.005859999917447567,-0.13152000308036804
6385.300982409272,1067678.0,-0.010239999741315842,0.00031999999191612005,0.0019499999471008778,-0.1326099932193756
6385.301982181488,1067679.0,-0.012620000168681145,0.0013200000394135714,-0.001500000013038516,-0.13370999693870544
6385.302981953703,1067680.0,-0.014960000291466713,0.00031999999191612005,0.00267999991774559,-0.13307000696659088
6385.303981725919,1067681.0,-0.014290000312030315,0.0030900000128895044,0.004360000137239695,-0.13367000222206116
6385.304981498134,1067682.0,-0.016170000657439232,0.006810000166296959,-0.0014100000262260437,-0.1344500035047531
6385.305981270349,1067683.0,-0.02102000080049038,0.007579999975860119,-0.00203999993391335,-0.13422000408172607
6385.306981042564,1067684.0,-0.02857000008225441,0.004540000110864639,0.003949999809265137,-0.13315999507904053
6385.3079808147795,1067685.0,-0.03570999950170517,0.003860000055283308,-0.003719999920576811,-0.13454000651836395
6385.308980586995,1067686.0,-0.0399399995803833,0.0002699999895412475,-0.003220000071451068,-0.13628000020980835
6385.30998035921,1067687.0,-0.0399399995803833,-0.002630000002682209,-0.0010400000028312206,-0.13747000694274902
6385.310980131426,1067688.0,-0.033560000360012054,-0.003949999809265137,-0.002409999957308173,-0.13540999591350555
6385.31197990364,1067689.0,-0.023000000044703484,-0.006680000107735395,-0.00267999991774559,-0.1370999962091446
6385.312979675856,1067690.0,-0.008630000054836273,-0.004679999779909849,-0.0002300000051036477,-0.13884000480175018
6385.313979448071,1067691.0,0.005659999791532755,-0.001769999973475933,0.0045900000259280205,-0.13892999291419983
6385.314979220287,1067692.0,0.017829999327659607,-0.004809999838471413,-0.0033199999015778303,-0.14030000567436218
6385.315978992502,1067693.0,0.028119999915361404,-0.0009500000160187483,-0.001230000052601099,-0.14034999907016754
6385.316978764717,1067694.0,0.03472999855875969,9.000000136438757e-05,-0.00018000000272877514,-0.14090000092983246
6385.317978536932,1067695.0,0.037379998713731766,0.004679999779909849,0.0012700000079348683,-0.13878999650478363
6385.3189783091475,1067696.0,0.03903999924659729,-4.999999873689376e-05,0.0022299999836832285,-0.14030000567436218
6385.319978081363,1067697.0,0.03872000053524971,0.0029100000392645597,0.0009500000160187483,-0.14148999750614166
6385.320977853578,1067698.0,0.03633999824523926,0.005770000163465738,0.0008200000156648457,-0.14232000708580017
6385.321977625794,1067699.0,0.03612000122666359,0.0024999999441206455,9.000000136438757e-05,-0.1421400010585785
6385.322977398008,1067700.0,0.037379998713731766,-0.0008200000156648457,4.999999873689376e-05,-0.14139999449253082
6385.323977170224,1067701.0,0.03720000013709068,0.0024999999441206455,0.00031999999191612005,-0.14282000064849854
6385.324976942439,1067702.0,0.030729999765753746,0.007579999975860119,0.002950000111013651,-0.14396999776363373
6385.325976714655,1067703.0,0.01971999928355217,0.006089999806135893,-0.0033199999015778303,-0.1441500037908554
6385.32697648687,1067704.0,0.008179999887943268,0.005900000222027302,0.0024999999441206455,-0.14282000064849854
6385.327976259085,1067705.0,-0.0016199999954551458,0.002859999891370535,-0.0028200000524520874,-0.1442900002002716
6385.3289760313,1067706.0,-0.007139999885112047,0.000910000002477318,-0.000539999979082495,-0.14571000635623932
6385.3299758035155,1067707.0,-0.005570000037550926,0.0014100000262260437,0.0009500000160187483,-0.1457500010728836
6385.330975575731,1067708.0,0.0003100000030826777,-0.004040000028908253,-0.006630000192672014,-0.1451600044965744
6385.331975347946,1067709.0,0.01131999958306551,-0.009359999559819698,0.0012700000079348683,-0.14579999446868896
6385.332975120161,1067710.0,0.02305000089108944,-0.007449999917298555,-0.002589999930933118,-0.1473499983549118
6385.333974892376,1067711.0,0.032930001616477966,-0.004540000110864639,-0.0013599999947473407,-0.1476300060749054
6385.334974664592,1067712.0,0.03962000086903572,-0.0030900000128895044,0.00031999999191612005,-0.14872999489307404
6385.335974436807,1067713.0,0.04473999887704849,0.00031999999191612005,0.004000000189989805,-0.1482200026512146
6385.336974209023,1067714.0,0.05012999847531319,0.0017300000181421638,-0.0051299999468028545,-0.1492300033569336
6385.337973981238,1067715.0,0.05400000140070915,0.0059899999760091305,0.000859999970998615,-0.14872999489307404
6385.338973753453,1067716.0,0.05400000140070915,0.005590000189840794,0.003220000071451068,-0.1493699997663498
6385.339973525668,1067717.0,0.05067000165581703,0.003809999907389283,0.0044999998062849045,-0.14959999918937683
6385.3409732978835,1067718.0,0.046720001846551895,0.006130000110715628,-0.0007699999841861427,-0.1490900069475174
6385.341973070099,1067719.0,0.04407000169157982,0.0012700000079348683,-0.00018000000272877514,-0.1490900069475174
6385.342972842314,1067720.0,0.04016000032424927,-0.0007699999841861427,-0.000859999970998615,-0.1490900069475174
6385.343972614529,1067721.0,0.03423000127077103,4.999999873689376e-05,-0.0022299999836832285,-0.15087999403476715
6385.344972386744,1067722.0,0.024529999122023582,0.004679999779909849,0.00031999999191612005,-0.15216000378131866
6385.34597215896,1067723.0,0.012040000408887863,0.005090000107884407,-0.0027199999894946814,-0.1529799997806549
6385.346971931175,1067724.0,-0.0012600000482052565,0.005040000192821026,0.0045900000259280205,-0.15092000365257263
6385.347971703391,1067725.0,-0.012310000136494637,0.0020000000949949026,-0.004040000028908253,-0.15202000737190247
6385.348971475606,1067726.0,-0.019540000706911087,-0.0010400000028312206,0.0024999999441206455,-0.15320999920368195
6385.349971247821,1067727.0,-0.022690000012516975,-0.00041000000783242285,-0.0010400000028312206,-0.15320999920368195
6385.350971020036,1067728.0,-0.018729999661445618,-0.001230000052601099,4.999999873689376e-05,-0.1523900032043457
6385.351970792251,1067729.0,-0.009429999627172947,-0.008170000277459621,0.00014000000373926014,-0.15380999445915222
6385.352970564467,1067730.0,0.0017999999690800905,-0.01063000038266182,-0.002950000111013651,-0.15467999875545502
6385.353970336682,1067731.0,0.0129399998113513,-0.0031300000846385956,0.0019499999471008778,-0.15477000176906586
6385.354970108897,1067732.0,0.021379999816417694,-0.002589999930933118,-0.0003600000054575503,-0.1538500040769577
6385.355969881112,1067733.0,0.028300000354647636,-0.0016799999866634607,0.0022700000554323196,-0.15509000420570374
6385.356969653328,1067734.0,0.03279000148177147,-0.002589999930933118,-0.0027199999894946814,-0.15633000433444977
6385.357969425543,1067735.0,0.03378000110387802,0.0021299999207258224,0.003220000071451068,-0.1550000011920929
6385.358969197759,1067736.0,0.03347000107169151,0.004679999779909849,-0.0009500000160187483,-0.15604999661445618
6385.359968969974,1067737.0,0.032340001314878464,0.0012700000079348683,0.003000000026077032,-0.15688000619411469
6385.360968742189,1067738.0,0.028839999809861183,0.00031999999191612005,-0.004310000222176313,-0.15810999274253845
6385.361968514404,1067739.0,0.024660000577569008,0.0014100000262260437,0.0014100000262260437,-0.15613999962806702
6385.362968286619,1067740.0,0.02102000080049038,0.00031999999191612005,0.0015399999683722854,-0.15665000677108765
6385.363968058835,1067741.0,0.016979999840259552,-4.999999873689376e-05,-0.0015399999683722854,-0.15764999389648438
6385.36496783105,1067742.0,0.009879999794065952,0.004410000052303076,0.003949999809265137,-0.15796999633312225
6385.365967603265,1067743.0,0.0024300001095980406,0.006130000110715628,0.0018599999602884054,-0.15861999988555908
6385.36696737548,1067744.0,-0.006289999932050705,0.006990000139921904,-0.0016799999866634607,-0.1592099964618683
6385.367967147696,1067745.0,-0.013659999705851078,0.004679999779909849,0.000910000002477318,-0.1573300063610077
6385.368966919911,1067746.0,-0.01841999962925911,-0.00041000000783242285,-0.0045900000259280205,-0.15880000591278076
6385.369966692127,1067747.0,-0.019680000841617584,-0.005489999894052744,-0.0002699999895412475,-0.1597599983215332
6385.370966464341,1067748.0,-0.01679999940097332,-0.005539999809116125,-0.0024500000290572643,-0.16021999716758728
6385.371966236557,1067749.0,-0.010239999741315842,-0.00839999970048666,-0.00267999991774559,-0.1604900062084198
6385.372966008772,1067750.0,0.0007200000109151006,-0.00571999978274107,0.0019099999917671084,-0.1588899940252304
6385.373965780987,1067751.0,0.013570000417530537,-0.003949999809265137,-0.002589999930933118,-0.15981000661849976
6385.374965553203,1067752.0,0.026319999247789383,-0.0033199999015778303,0.0008200000156648457,-0.16067999601364136
6385.375965325418,1067753.0,0.03369000181555748,0.0024999999441206455,-0.0027699999045580626,-0.15981000661849976
6385.376965097633,1067754.0,0.03723999857902527,0.00031999999191612005,-0.0011399999493733048,-0.16141000390052795
6385.377964869848,1067755.0,0.0370200015604496,0.0016799999866634607,0.003590000094845891,-0.1598999947309494
6385.378964642064,1067756.0,0.03531000018119812,0.004679999779909849,0.0010400000028312206,-0.16080999374389648
6385.379964414279,1067757.0,0.032249998301267624,0.005090000107884407,-0.002950000111013651,-0.16158999502658844
6385.380964186495,1067758.0,0.027219999581575394,0.00014000000373926014,0.0024500000290572643,-0.16095000505447388
6385.381963958709,1067759.0,0.023310000076889992,0.001230000052601099,-0.001230000052601099,-0.16241000592708588
6385.3829637309245,1067760.0,0.021469999104738235,0.003539999946951866,0.0044999998062849045,-0.16086000204086304
6385.38396350314,1067761.0,0.02111000008881092,0.003220000071451068,0.00031999999191612005,-0.16264000535011292
6385.384963275355,1067762.0,0.01769999973475933,0.007400000002235174,0.0010400000028312206,-0.16103999316692352
6385.385963047571,1067763.0,0.011769999749958515,0.0052200001664459705,0.0009500000160187483,-0.16204999387264252
6385.386962819786,1067764.0,0.0027000000700354576,0.00535999983549118,-0.003949999809265137,-0.16118000447750092
6385.387962592001,1067765.0,-0.005439999978989363,0.0016299999551847577,0.002409999957308173,-0.16232000291347504
6385.388962364216,1067766.0,-0.007679999805986881,-0.0010000000474974513,-0.005090000107884407,-0.16333000361919403
6385.389962136432,1067767.0,-0.00610999995842576,-0.0051299999468028545,0.0021800000686198473,-0.16181999444961548
6385.390961908647,1067768.0,-0.004540000110864639,-0.0035000001080334187,-0.00203999993391335,-0.16373999416828156
6385.391961680863,1067769.0,-0.00279000005684793,-0.005040000192821026,-0.0051299999468028545,-0.16301000118255615
6385.392961453077,1067770.0,0.0017999999690800905,-0.006579999811947346,0.00267999991774559,-0.16268999874591827
6385.3939612252925,1067771.0,0.010329999960958958,-0.005859999917447567,-0.0010400000028312206,-0.1639299988746643
6385.394960997508,1067772.0,0.018060000613331795,-0.0031799999997019768,0.0022700000554323196,-0.1627800017595291
6385.395960769723,1067773.0,0.020980000495910645,-0.00041000000783242285,-0.0033199999015778303,-0.16447000205516815
6385.396960541939,1067774.0,0.022280000150203705,0.0014100000262260437,0.0044999998062849045,-0.162090003490448
6385.397960314153,1067775.0,0.024119999259710312,0.002409999957308173,0.0036800000816583633,-0.1630599945783615
6385.398960086369,1067776.0,0.023900000378489494,0.0008200000156648457,-0.002319999970495701,-0.1645199954509735
6385.399959858584,1067777.0,0.023809999227523804,0.002360000042244792,0.0035000001080334187,-0.16264000535011292
6385.4009596308,1067778.0,0.024080000817775726,0.005590000189840794,-0.002589999930933118,-0.16373999416828156
6385.401959403015,1067779.0,0.024620000272989273,0.003220000071451068,-0.0011399999493733048,-0.16493000090122223
6385.4029591752305,1067780.0,0.02295999974012375,0.0031300000846385956,0.0030900000128895044,-0.1627800017595291
6385.403958947445,1067781.0,0.020390000194311142,0.003449999960139394,0.003000000026077032,-0.16301000118255615
6385.4049587196605,1067782.0,0.016170000657439232,0.004040000028908253,-0.0010000000474974513,-0.16373999416828156
6385.405958491876,1067783.0,0.0083600003272295,0.0037700000684708357,-0.000910000002477318,-0.16457000374794006
6385.406958264091,1067784.0,-0.0006300000241026282,0.005489999894052744,0.004679999779909849,-0.16333000361919403
6385.407958036307,1067785.0,-0.010329999960958958,0.0019499999471008778,0.002319999970495701,-0.16264000535011292
6385.408957808521,1067786.0,-0.01779000088572502,0.002090000081807375,-0.0033199999015778303,-0.16402000188827515
6385.409957580737,1067787.0,-0.019139999523758888,-0.005950000137090683,-0.006949999835342169,-0.16447000205516815
6385.410957352952,1067788.0,-0.015410000458359718,-0.007040000054985285,0.00031999999191612005,-0.1648399978876114
6385.411957125168,1067789.0,-0.008129999972879887,-0.009039999917149544,-0.002090000081807375,-0.163100004196167
6385.412956897383,1067790.0,0.0003100000030826777,-0.007670000195503235,-0.005489999894052744,-0.16489000618457794
6385.4139566695985,1067791.0,0.009429999627172947,-0.004040000028908253,0.0011399999493733048,-0.1629199981689453
6385.414956441813,1067792.0,0.016529999673366547,0.0002300000051036477,-0.002090000081807375,-0.16474999487400055
6385.4159562140285,1067793.0,0.020840000361204147,-0.0013599999947473407,0.004679999779909849,-0.16373999416828156
6385.416955986244,1067794.0,0.022600000724196434,-0.00014000000373926014,-0.0015399999683722854,-0.1639699935913086
6385.417955758459,1067795.0,0.022460000589489937,0.0034099998883903027,0.0,-0.1643799990415573
6385.418955530675,1067796.0,0.01923000067472458,0.004310000222176313,0.0006799999973736703,-0.16373999416828156
6385.419955302889,1067797.0,0.015809999778866768,-0.0017300000181421638,-0.002589999930933118,-0.16520999372005463
6385.420955075105,1067798.0,0.013570000417530537,0.00031999999191612005,0.0022299999836832285,-0.1630599945783615
6385.42195484732,1067799.0,0.01351999957114458,0.006039999891072512,-0.00014000000373926014,-0.16425000131130219
6385.422954619536,1067800.0,0.01384000014513731,0.0002300000051036477,-0.003539999946951866,-0.1646600067615509
6385.423954391751,1067801.0,0.011230000294744968,0.003949999809265137,0.0008200000156648457,-0.1639699935913086
6385.4249541639665,1067802.0,0.0026100000832229853,0.00267999991774559,-0.0010400000028312206,-0.16319000720977783
6385.425953936181,1067803.0,-0.010470000095665455,0.0051299999468028545,0.004269999917596579,-0.1639699935913086
6385.4269537083965,1067804.0,-0.024620000272989273,0.006680000107735395,-0.0033199999015778303,-0.1649799942970276
6385.427953480612,1067805.0,-0.03440999984741211,0.003220000071451068,-0.002859999891370535,-0.1647000014781952
6385.428953252827,1067806.0,-0.0408799983561039,-0.0008200000156648457,0.001769999973475933,-0.16414999961853027
6385.429953025043,1067807.0,-0.04349000006914139,-0.004040000028908253,-0.0010000000474974513,-0.16434000432491302
6385.430952797257,1067808.0,-0.03903999924659729,-0.003860000055283308,-0.0009500000160187483,-0.16388000547885895
6385.431952569473,1067809.0,-0.032749999314546585,-0.00267999991774559,-0.0044999998062849045,-0.16301000118255615
6385.432952341688,1067810.0,-0.025380000472068787,-0.007579999975860119,0.00267999991774559,-0.1627800017595291
6385.433952113904,1067811.0,-0.016349999234080315,-0.006769999861717224,-0.0036800000816583633,-0.1632400006055832
6385.434951886119,1067812.0,-0.005799999926239252,-0.0014100000262260437,-0.004220000002533197,-0.16428999602794647
6385.435951658334,1067813.0,0.0023399998899549246,0.00014000000373926014,0.004809999838471413,-0.16373999416828156
6385.436951430549,1067814.0,0.007189999800175428,0.0031300000846385956,0.003220000071451068,-0.16373999416828156
6385.437951202764,1067815.0,0.00773000018671155,0.006039999891072512,-0.000590000010561198,-0.16255000233650208
6385.43895097498,1067816.0,0.00610999995842576,0.002319999970495701,-0.002950000111013651,-0.1623699963092804
6385.439950747195,1067817.0,0.0034099998883903027,0.00031999999191612005,-0.000590000010561198,-0.16190999746322632
6385.440950519411,1067818.0,0.0003100000030826777,0.00031999999191612005,0.004679999779909849,-0.16213999688625336
6385.441950291625,1067819.0,-0.0020699999295175076,-0.00031999999191612005,0.003220000071451068,-0.16227999329566956
6385.442950063841,1067820.0,-0.0047599999234080315,-0.002319999970495701,-0.0031799999997019768,-0.16264000535011292
6385.443949836056,1067821.0,-0.006289999932050705,0.003000000026077032,-0.002090000081807375,-0.16241000592708588
6385.444949608272,1067822.0,-0.010060000233352184,0.007860000245273113,0.0034099998883903027,-0.1627800017595291
6385.445949380487,1067823.0,-0.015629999339580536,0.008630000054836273,-0.0035000001080334187,-0.16272999346256256
6385.446949152702,1067824.0,-0.025289999321103096,0.005489999894052744,-0.0036800000816583633,-0.16255000233650208
6385.447948924917,1067825.0,-0.03449999913573265,0.005679999943822622,0.0015899999998509884,-0.1621900051832199
6385.448948697132,1067826.0,-0.040070001035928726,0.0,-0.0011399999493733048,-0.1627800017595291
6385.449948469348,1067827.0,-0.03925999999046326,0.0012700000079348683,-0.0013599999947473407,-0.16282999515533447
6385.450948241563,1067828.0,-0.03449999913573265,-0.0052200001664459705,-0.0012700000079348683,-0.16245999932289124
6385.451948013779,1067829.0,-0.02727000042796135,-0.00418000016361475,0.003590000094845891,-0.16200000047683716
6385.452947785993,1067830.0,-0.016529999673366547,-0.004860000219196081,-0.0015399999683722854,-0.16200000047683716
6385.453947558209,1067831.0,-0.004670000169426203,-0.009759999811649323,-0.0015899999998509884,-0.16158999502658844
6385.454947330424,1067832.0,0.008089999668300152,-0.003949999809265137,0.0021299999207258224,-0.16008000075817108
6385.45594710264,1067833.0,0.016039999201893806,-0.0013200000394135714,0.0035000001080334187,-0.159620001912117
6385.456946874855,1067834.0,0.017069999128580093,0.00031999999191612005,0.00018000000272877514,-0.15897999703884125
6385.45794664707,1067835.0,0.012260000221431255,0.0014100000262260437,0.0,-0.1592099964618683
6385.458946419285,1067836.0,0.007819999940693378,-0.000910000002477318,0.002950000111013651,-0.15934999287128448
6385.4599461915,1067837.0,0.005750000011175871,-0.0010000000474974513,-0.0007699999841861427,-0.1588899940252304
6385.460945963716,1067838.0,0.0063299997709691525,0.003590000094845891,-0.000590000010561198,-0.15848000347614288
6385.461945735931,1067839.0,0.005750000011175871,0.00031999999191612005,0.0016299999551847577,-0.15894000232219696
6385.462945508147,1067840.0,0.005799999926239252,0.00031999999191612005,-0.000590000010561198,-0.15958000719547272
6385.463945280361,1067841.0,0.006649999879300594,0.001769999973475933,-0.00041000000783242285,-0.1594800055027008
6385.464945052577,1067842.0,0.0031399999279528856,0.0017300000181421638,0.0030400000978261232,-0.15751999616622925
6385.465944824792,1067843.0,-0.0020699999295175076,0.0044999998062849045,-0.003000000026077032,-0.1572899967432022
6385.466944597008,1067844.0,-0.0071000000461936,0.008990000002086163,0.0024999999441206455,-0.15751999616622925
6385.467944369223,1067845.0,-0.011859999969601631,0.00203999993391335,-0.004410000052303076,-0.15793000161647797
6385.4689441414375,1067846.0,-0.018330000340938568,-0.0011399999493733048,0.005400000140070915,-0.1572899967432022
6385.469943913653,1067847.0,-0.025340000167489052,0.0017300000181421638,-0.004269999917596579,-0.15578000247478485
6385.470943685868,1067848.0,-0.02606000006198883,-0.0011399999493733048,0.00267999991774559,-0.15532000362873077
6385.471943458084,1067849.0,-0.024080000817775726,-0.0033199999015778303,-0.002090000081807375,-0.15578000247478485
6385.472943230299,1067850.0,-0.02232999913394451,-0.003539999946951866,-0.0031300000846385956,-0.15669000148773193
6385.473943002514,1067851.0,-0.02012999914586544,-0.0063599999994039536,-4.999999873689376e-05,-0.1547199934720993
6385.474942774729,1067852.0,-0.019950000569224358,-0.0009500000160187483,0.0015399999683722854,-0.15408000349998474
6385.475942546945,1067853.0,-0.023089999333024025,-0.0015399999683722854,0.003220000071451068,-0.15458999574184418
6385.47694231916,1067854.0,-0.026410000398755074,0.001230000052601099,-0.0010400000028312206,-0.15509000420570374
6385.477942091376,1067855.0,-0.02865999937057495,0.0014100000262260437,0.0016299999551847577,-0.15275999903678894
6385.478941863591,1067856.0,-0.032519999891519547,0.003719999920576811,-0.0007699999841861427,-0.15308000147342682
6385.4799416358055,1067857.0,-0.034460000693798065,0.00267999991774559,0.0021299999207258224,-0.15320999920368195
6385.480941408021,1067858.0,-0.03477000072598457,0.00031999999191612005,-0.001180000021122396,-0.1521099954843521
6385.481941180236,1067859.0,-0.036070000380277634,0.0031799999997019768,-0.0009500000160187483,-0.1511099934577942
6385.482940952452,1067860.0,-0.03714999929070473,0.004410000052303076,-0.0010900000343099236,-0.15220999717712402
6385.483940724667,1067861.0,-0.03782999888062477,0.004040000028908253,-0.00041000000783242285,-0.1522500067949295
6385.484940496882,1067862.0,-0.040789999067783356,0.0024999999441206455,-0.0015899999998509884,-0.14963999390602112
6385.485940269097,1067863.0,-0.047529999166727066,0.008080000057816505,0.00267999991774559,-0.14982999861240387
6385.486940041313,1067864.0,-0.0544000007212162,0.008170000277459621,-0.0018599999602884054,-0.1506499946117401
6385.487939813528,1067865.0,-0.06207999959588051,0.006680000107735395,0.004769999999552965,-0.1499200016260147
6385.4889395857435,1067866.0,-0.06738000363111496,-0.004040000028908253,-0.004040000028908253,-0.14809000492095947
6385.489939357959,1067867.0,-0.0700799971818924,-0.0027199999894946814,0.0028200000524520874,-0.14725999534130096
6385.4909391301735,1067868.0,-0.06544999778270721,-0.005489999894052744,-0.0007699999841861427,-0.14799000322818756
6385.491938902389,1067869.0,-0.056060001254081726,-0.0015399999683722854,-0.004220000002533197,-0.14872999489307404
6385.492938674604,1067870.0,-0.04402000084519386,-0.005900000222027302,0.0022299999836832285,-0.14841000735759735
6385.49393844682,1067871.0,-0.033959999680519104,-0.003449999960139394,9.000000136438757e-05,-0.14817999303340912
6385.494938219035,1067872.0,-0.03058999963104725,-0.004720000084489584,-0.0044999998062849045,-0.14872999489307404
6385.49593799125,1067873.0,-0.028929999098181725,0.001500000013038516,0.004679999779909849,-0.14786000549793243
6385.496937763465,1067874.0,-0.024119999259710312,-0.0020000000949949026,0.001230000052601099,-0.14693999290466309
6385.497937535681,1067875.0,-0.019770000129938126,-0.000590000010561198,0.0024999999441206455,-0.1466200053691864
6385.498937307896,1067876.0,-0.017340000718832016,0.0013200000394135714,-0.0011399999493733048,-0.14712999761104584
6385.4999370801115,1067877.0,-0.0142000000923872,0.001769999973475933,0.0027699999045580626,-0.14616000652313232
6385.500936852326,1067878.0,-0.011459999717772007,0.001180000021122396,-0.0008200000156648457,-0.14539000391960144
6385.5019366245415,1067879.0,-0.006649999879300594,0.00014000000373926014,-0.005179999861866236,-0.14493000507354736
6385.502936396757,1067880.0,-0.00418000016361475,0.0014100000262260437,0.0034099998883903027,-0.14542999863624573
6385.503936168972,1067881.0,-0.0023799999617040157,-0.0007699999841861427,-0.002589999930933118,-0.14725999534130096
6385.504935941188,1067882.0,-0.004900000058114529,0.002859999891370535,0.003220000071451068,-0.14470000565052032
6385.505935713403,1067883.0,-0.009069999679923058,0.0031799999997019768,0.0,-0.14616000652313232
6385.506935485618,1067884.0,-0.012310000136494637,0.003719999920576811,-0.0036299999337643385,-0.14725999534130096
6385.507935257833,1067885.0,-0.0142000000923872,0.006130000110715628,-0.0003600000054575503,-0.14524999260902405
6385.508935030049,1067886.0,-0.015270000323653221,-0.001230000052601099,-0.0031799999997019768,-0.14712999761104584
6385.509934802264,1067887.0,-0.0142000000923872,0.00031999999191612005,0.0007300000288523734,-0.14524999260902405
6385.5109345744795,1067888.0,-0.007189999800175428,-0.007040000054985285,-0.00044999999227002263,-0.14634999632835388
6385.511934346694,1067889.0,0.003229999914765358,-0.007309999782592058,0.001180000021122396,-0.1468999981880188
6385.5129341189095,1067890.0,0.011680000461637974,-0.005489999894052744,-0.0007699999841861427,-0.14616000652313232
6385.513933891125,1067891.0,0.021379999816417694,-0.0030900000128895044,0.0027699999045580626,-0.14725999534130096
6385.51493366334,1067892.0,0.03109000064432621,-0.00203999993391335,0.003220000071451068,-0.14579999446868896
6385.515933435556,1067893.0,0.035440001636743546,-9.000000136438757e-05,-4.999999873689376e-05,-0.1467600017786026
6385.516933207771,1067894.0,0.03522000089287758,-0.0028200000524520874,0.002319999970495701,-0.14803999662399292
6385.517932979986,1067895.0,0.03621000051498413,0.003220000071451068,-0.003269999986514449,-0.14616000652313232
6385.518932752201,1067896.0,0.03338000178337097,0.003949999809265137,0.003449999960139394,-0.14790000021457672
6385.519932524417,1067897.0,0.026680000126361847,-4.999999873689376e-05,-0.002589999930933118,-0.14653000235557556
6385.520932296632,1067898.0,0.02053000032901764,0.0031300000846385956,0.0008200000156648457,-0.14771999418735504
6385.5219320688475,1067899.0,0.015449999831616879,0.0027699999045580626,0.0027699999045580626,-0.14854000508785248
6385.522931841062,1067900.0,0.010649999603629112,-0.0022700000554323196,-0.0024500000290572643,-0.147489994764328
6385.523931613277,1067901.0,0.003949999809265137,0.0002699999895412475,0.002360000042244792,-0.1490900069475174
6385.524931385493,1067902.0,-0.007910000160336494,0.0036299999337643385,-0.001769999973475933,-0.1499200016260147
6385.525931157708,1067903.0,-0.02443999983370304,0.002409999957308173,0.003220000071451068,-0.14812999963760376
6385.526930929924,1067904.0,-0.04177999868988991,0.006130000110715628,-0.002630000002682209,-0.1490900069475174
6385.527930702139,1067905.0,-0.05610999837517738,0.006680000107735395,-0.0010000000474974513,-0.15056000649929047
6385.528930474354,1067906.0,-0.06694000214338303,0.0027699999045580626,0.003220000071451068,-0.15092000365257263
6385.529930246569,1067907.0,-0.0826599970459938,-0.0035000001080334187,-0.005489999894052744,-0.1499200016260147
6385.530930018785,1067908.0,-0.09757000207901001,-0.004769999999552965,-0.0027199999894946814,-0.1503800004720688
6385.531929791,1067909.0,-0.10467000305652618,-0.0020000000949949026,-0.0021800000686198473,-0.15202000737190247
6385.5329295632155,1067910.0,-0.10287000238895416,-0.004449999891221523,0.001820000004954636,-0.15202000737190247
6385.53392933543,1067911.0,-0.09765999764204025,-0.00571999978274107,-0.00203999993391335,-0.15056000649929047
6385.534929107645,1067912.0,-0.091279998421669,-0.0045900000259280205,0.004269999917596579,-0.15202000737190247
6385.535928879861,1067913.0,-0.08832000195980072,0.0010400000028312206,0.0037700000684708357,-0.1531199961900711
6385.536928652076,1067914.0,-0.08720000088214874,0.0009500000160187483,-0.00267999991774559,-0.1525699943304062
6385.537928424292,1067915.0,-0.08597999811172485,0.003909999970346689,0.003220000071451068,-0.15334999561309814
6385.538928196506,1067916.0,-0.08459000289440155,0.0002300000051036477,-0.001230000052601099,-0.15331000089645386
6385.539927968722,1067917.0,-0.08049999922513962,0.004679999779909849,0.005040000192821026,-0.15395000576972961
6385.540927740937,1067918.0,-0.07492999732494354,0.005950000137090683,-0.0013599999947473407,-0.15532000362873077
6385.541927513153,1067919.0,-0.06764999777078629,-4.999999873689376e-05,0.0011399999493733048,-0.15458999574184418
6385.542927285368,1067920.0,-0.0514799989759922,0.0024500000290572643,0.0009500000160187483,-0.15591000020503998
6385.5439270575835,1067921.0,-0.03206999972462654,0.004310000222176313,0.001230000052601099,-0.15490999817848206
6385.544926829798,1067922.0,-0.019770000129938126,0.00267999991774559,0.00686000008136034,-0.15633000433444977
6385.545926602013,1067923.0,-0.008980000391602516,0.009669999592006207,0.004089999943971634,-0.15549999475479126
6385.546926374229,1067924.0,0.003949999809265137,0.007309999782592058,-0.00203999993391335,-0.1564200073480606
6385.547926146444,1067925.0,0.017340000718832016,0.003909999970346689,0.0030400000978261232,-0.1578799933195114
6385.54892591866,1067926.0,0.03172000125050545,0.0015899999998509884,-0.0010000000474974513,-0.1565999984741211
6385.549925690874,1067927.0,0.05062999948859215,-0.0018599999602884054,-0.005040000192821026,-0.15770000219345093
6385.55092546309,1067928.0,0.07507000118494034,-0.007579999975860119,0.003949999809265137,-0.15851999819278717
6385.551925235305,1067929.0,0.10728000104427338,-0.006680000107735395,-0.0013200000394135714,-0.1597599983215332
6385.552925007521,1067930.0,0.14702999591827393,-0.004220000002533197,-0.0035000001080334187,-0.15861999988555908
6385.553924779736,1067931.0,0.1847199946641922,-0.004310000222176313,0.0030400000978261232,-0.15939000248908997
6385.554924551951,1067932.0,0.21940000355243683,-0.0019099999917671084,0.002859999891370535,-0.16053999960422516
6385.555924324166,1067933.0,0.24473999440670013,0.0016799999866634607,0.00031999999191612005,-0.15934999287128448
6385.556924096381,1067934.0,0.25946998596191406,-0.001230000052601099,0.001769999973475933,-0.16109000146389008
6385.557923868597,1067935.0,0.26513001322746277,0.0030400000978261232,-0.0011399999493733048,-0.16132000088691711
6385.558923640812,1067936.0,0.26881998777389526,0.003909999970346689,-0.0002699999895412475,-0.161640003323555
6385.559923413028,1067937.0,0.27851998805999756,0.0019499999471008778,-0.0009500000160187483,-0.1623699963092804
6385.560923185242,1067938.0,0.2993200123310089,0.0024999999441206455,-0.001180000021122396,-0.1623699963092804
6385.561922957458,1067939.0,0.32433998584747314,0.002090000081807375,-0.004999999888241291,-0.16373999416828156
6385.562922729673,1067940.0,0.3463599979877472,0.0016299999551847577,-0.002589999930933118,-0.16287000477313995
6385.563922501889,1067941.0,0.35780999064445496,-0.00044999999227002263,-0.0037700000684708357,-0.16493000090122223
6385.564922274104,1067942.0,0.36226001381874084,0.004310000222176313,0.000910000002477318,-0.16282999515533447
6385.5659220463185,1067943.0,0.3591099977493286,0.004220000002533197,-0.0033599999733269215,-0.16520999372005463
6385.566921818534,1067944.0,0.34797000885009766,0.0045900000259280205,0.00031999999191612005,-0.16529999673366547
6385.567921590749,1067945.0,0.33103999495506287,0.00031999999191612005,-0.0006799999973736703,-0.16512000560760498
6385.568921362965,1067946.0,0.30906999111175537,0.0,-0.005489999894052744,-0.16675999760627747
6385.56992113518,1067947.0,0.2907400131225586,-0.0019099999917671084,-0.001500000013038516,-0.1652500033378601
6385.570920907396,1067948.0,0.28360000252723694,-0.005489999894052744,-0.0033199999015778303,-0.16763000190258026
6385.57192067961,1067949.0,0.2835099995136261,-0.007079999893903732,0.003590000094845891,-0.16620999574661255
6385.572920451826,1067950.0,0.2883099913597107,-0.006219999864697456,-0.003590000094845891,-0.16836999356746674
6385.573920224041,1067951.0,0.28992998600006104,-0.006310000084340572,-0.0005000000237487257,-0.1677200049161911
6385.5749199962565,1067952.0,0.2920899987220764,-0.004040000028908253,-0.004040000028908253,-0.16850000619888306
6385.575919768472,1067953.0,0.29846999049186707,0.0015399999683722854,0.004129999782890081,-0.1688700020313263
6385.5769195406865,1067954.0,0.29666998982429504,0.002090000081807375,-0.0024500000290572643,-0.16877999901771545
6385.577919312902,1067955.0,0.2818000018596649,0.004269999917596579,0.0036800000816583633,-0.17001000046730042
6385.578919085117,1067956.0,0.25624001026153564,0.0030900000128895044,0.00031999999191612005,-0.16965000331401825
6385.579918857333,1067957.0,0.22811999917030334,-0.0015399999683722854,-0.0018599999602884054,-0.1714800000190735
6385.580918629548,1067958.0,0.2048500031232834,0.001769999973475933,0.0028200000524520874,-0.17001000046730042
6385.581918401764,1067959.0,0.18248000741004944,0.005309999920427799,-0.0003600000054575503,-0.1720699965953827
6385.582918173978,1067960.0,0.15849000215530396,0.002859999891370535,0.003449999960139394,-0.1711599975824356
6385.583917946194,1067961.0,0.13305999338626862,-0.0016299999551847577,-0.004540000110864639,-0.1729000061750412
6385.584917718409,1067962.0,0.10440000146627426,0.00686000008136034,-0.0007699999841861427,-0.1722099930047989
6385.5859174906245,1067963.0,0.07556000351905823,0.005630000028759241,-0.003000000026077032,-0.17372000217437744
6385.58691726284,1067964.0,0.04901000112295151,0.0083600003272295,-0.001500000013038516,-0.17476999759674072
6385.5879170350545,1067965.0,0.024800000712275505,0.006130000110715628,0.00031999999191612005,-0.17330999672412872
6385.58891680727,1067966.0,0.005750000011175871,-0.002409999957308173,-0.002950000111013651,-0.1750900000333786
6385.589916579485,1067967.0,-0.011680000461637974,-0.0010400000028312206,0.0029100000392645597,-0.17545999586582184
6385.590916351701,1067968.0,-0.02363000065088272,-0.0008200000156648457,0.001180000021122396,-0.17554999887943268
6385.591916123916,1067969.0,-0.02703999914228916,-0.0031300000846385956,-0.002589999930933118,-0.1769299954175949
6385.592915896132,1067970.0,-0.02606000006198883,-0.007860000245273113,0.0009500000160187483,-0.1765100061893463
6385.593915668346,1067971.0,-0.02425999939441681,-0.008949999697506428,-0.004410000052303076,-0.17728999257087708
6385.594915440562,1067972.0,-0.020479999482631683,-0.00203999993391335,0.0011399999493733048,-0.17792999744415283
6385.595915212777,1067973.0,-0.017969999462366104,0.0017300000181421638,0.0027699999045580626,-0.1776600033044815
6385.5969149849925,1067974.0,-0.01679999940097332,0.0030400000978261232,0.0020000000949949026,-0.1783899962902069
6385.597914757208,1067975.0,-0.018279999494552612,0.006490000057965517,0.0007300000288523734,-0.17916999757289886
6385.5989145294225,1067976.0,-0.022420000284910202,0.0024999999441206455,-0.0007699999841861427,-0.17952999472618103
6385.599914301638,1067977.0,-0.026680000126361847,0.007079999893903732,0.004310000222176313,-0.17962999641895294
6385.600914073853,1067978.0,-0.03175999969244003,0.0009500000160187483,-0.002589999930933118,-0.18131999671459198
6385.601913846069,1067979.0,-0.034949999302625656,-0.001230000052601099,0.00031999999191612005,-0.18131999671459198
6385.602913618284,1067980.0,-0.037289999425411224,0.003220000071451068,-0.001180000021122396,-0.18073000013828278
6385.603913390499,1067981.0,-0.037689998745918274,-0.0006399999838322401,-0.000910000002477318,-0.18150000274181366
6385.604913162714,1067982.0,-0.04061000049114227,0.004679999779909849,-0.0016799999866634607,-0.18251000344753265
6385.60591293493,1067983.0,-0.04698999971151352,0.003949999809265137,9.000000136438757e-05,-0.1824599951505661
6385.606912707145,1067984.0,-0.05516999959945679,0.010490000247955322,-0.001500000013038516,-0.182559996843338
6385.6079124793605,1067985.0,-0.06369999796152115,0.0052200001664459705,0.0010900000343099236,-0.18291999399662018
6385.608912251576,1067986.0,-0.0729999989271164,-0.0007699999841861427,-0.00041000000783242285,-0.18411000072956085
6385.6099120237905,1067987.0,-0.0806799978017807,-0.003220000071451068,-0.006180000025779009,-0.1843400001525879
6385.610911796006,1067988.0,-0.08342000097036362,-0.004629999864846468,-0.007040000054985285,-0.18493999540805817
6385.611911568221,1067989.0,-0.08000999689102173,-0.00839999970048666,0.000910000002477318,-0.18424999713897705
6385.612911340437,1067990.0,-0.07727000117301941,-0.005090000107884407,0.0016299999551847577,-0.18424999713897705
6385.613911112652,1067991.0,-0.07304000109434128,-0.006310000084340572,-0.003949999809265137,-0.1846199929714203
6385.614910884867,1067992.0,-0.06738000363111496,-0.0019099999917671084,0.00803999975323677,-0.18512000143527985
6385.615910657082,1067993.0,-0.06379000097513199,0.00031999999191612005,0.004040000028908253,-0.18535000085830688
6385.616910429298,1067994.0,-0.06396999955177307,-0.00014000000373926014,-0.001180000021122396,-0.18630999326705933
6385.617910201513,1067995.0,-0.06809999793767929,-9.000000136438757e-05,0.006130000110715628,-0.1860799938440323
6385.6189099737285,1067996.0,-0.07156000286340714,0.0021299999207258224,0.001180000021122396,-0.18580999970436096
6385.619909745944,1067997.0,-0.07664000242948532,0.002319999970495701,-0.004900000058114529,-0.18599000573158264
6385.620909518158,1067998.0,-0.08171000331640244,0.002409999957308173,0.0,-0.1860799938440323
6385.621909290374,1067999.0,-0.08495000004768372,4.999999873689376e-05,-0.001820000004954636,-0.18717999756336212
6385.622909062589,1068000.0,-0.08320000022649765,0.002589999930933118,0.002859999891370535,-0.18717999756336212
6385.623908834805,1068001.0,-0.07996000349521637,-0.0011399999493733048,-0.0037700000684708357,-0.18805000185966492
6385.62490860702,1068002.0,-0.0802299976348877,0.002859999891370535,0.0018599999602884054,-0.18717999756336212
6385.625908379235,1068003.0,-0.08597999811172485,0.008489999920129776,0.0030900000128895044,-0.1873600035905838
6385.62690815145,1068004.0,-0.09415999799966812,0.006399999838322401,-0.004769999999552965,-0.18759000301361084
6385.627907923666,1068005.0,-0.1035899966955185,0.004769999999552965,-9.000000136438757e-05,-0.18818999826908112
6385.628907695881,1068006.0,-0.11123000085353851,0.005770000163465738,0.00031999999191612005,-0.18863999843597412
6385.6299074680965,1068007.0,-0.11657000333070755,0.0031300000846385956,-0.0016799999866634607,-0.18900999426841736
6385.630907240311,1068008.0,-0.11657000333070755,-0.004769999999552965,-0.0036299999337643385,-0.18946999311447144
6385.631907012526,1068009.0,-0.11113999783992767,-0.005900000222027302,-0.0018599999602884054,-0.18974000215530396
6385.632906784742,1068010.0,-0.10292000323534012,-0.0062699997797608376,-0.0008200000156648457,-0.19047999382019043
6385.633906556957,1068011.0,-0.09415999799966812,-0.004040000028908253,-0.0011399999493733048,-0.19020000100135803
6385.634906329173,1068012.0,-0.0854400023818016,-0.002319999970495701,-0.0017300000181421638,-0.19047999382019043
6385.635906101388,1068013.0,-0.07664000242948532,0.00203999993391335,0.005309999920427799,-0.19056999683380127
6385.636905873603,1068014.0,-0.0689999982714653,4.999999873689376e-05,0.00031999999191612005,-0.19101999700069427
6385.637905645818,1068015.0,-0.06541000306606293,0.0028200000524520874,-4.999999873689376e-05,-0.19121000170707703
6385.638905418034,1068016.0,-0.06379000097513199,0.0013200000394135714,0.0030900000128895044,-0.1908400058746338
6385.639905190249,1068017.0,-0.06261999905109406,0.00494999997317791,-0.0007699999841861427,-0.19101999700069427
6385.640904962464,1068018.0,-0.06342999637126923,-0.0002699999895412475,-0.0030400000978261232,-0.1908400058746338
6385.641904734679,1068019.0,-0.06697999686002731,-0.00031999999191612005,0.001500000013038516,-0.19176000356674194
6385.642904506894,1068020.0,-0.07429999858140945,0.006490000057965517,-0.004540000110864639,-0.19286000728607178
6385.64390427911,1068021.0,-0.08400999754667282,0.0037700000684708357,0.003719999920576811,-0.19231000542640686
6385.644904051325,1068022.0,-0.09172999858856201,0.0052200001664459705,-0.0014100000262260437,-0.1925400048494339
6385.645903823541,1068023.0,-0.09694000333547592,0.005539999809116125,0.004269999917596579,-0.19303999841213226
6385.646903595756,1068024.0,-0.1017099991440773,0.004679999779909849,0.003220000071451068,-0.19303999841213226
6385.647903367971,1068025.0,-0.1040399968624115,0.003909999970346689,-0.0033199999015778303,-0.19426999986171722
6385.648903140186,1068026.0,-0.10215000063180923,0.00203999993391335,4.999999873689376e-05,-0.19345000386238098
6385.649902912402,1068027.0,-0.09828999638557434,-0.004040000028908253,-0.004629999864846468,-0.1941400021314621
6385.650902684617,1068028.0,-0.09325999766588211,-0.0016799999866634607,-0.0009500000160187483,-0.19449999928474426
6385.651902456832,1068029.0,-0.08675000071525574,-0.004089999943971634,-0.0037700000684708357,-0.19550999999046326
6385.652902229047,1068030.0,-0.07672999799251556,-0.005859999917447567,0.004540000110864639,-0.19469000399112701
6385.653902001262,1068031.0,-0.06738000363111496,-0.0037700000684708357,-0.0030900000128895044,-0.1948699951171875
6385.654901773478,1068032.0,-0.06019999831914902,-0.002090000081807375,-0.0020000000949949026,-0.1956000030040741
6385.655901545693,1068033.0,-0.055879998952150345,-0.0022299999836832285,-0.000590000010561198,-0.196150004863739
6385.656901317909,1068034.0,-0.04958999902009964,0.003590000094845891,0.00031999999191612005,-0.1963299959897995
6385.657901090124,1068035.0,-0.04416000097990036,0.00031999999191612005,-0.001500000013038516,-0.19687999784946442
6385.658900862339,1068036.0,-0.03818000108003616,0.0014100000262260437,0.004089999943971634,-0.1967500001192093
6385.659900634554,1068037.0,-0.033240001648664474,0.0022700000554323196,-4.999999873689376e-05,-0.19724999368190765
6385.6609004067695,1068038.0,-0.03136000037193298,0.0015899999998509884,0.0044999998062849045,-0.19684000313282013
6385.661900178985,1068039.0,-0.032430000603199005,0.004269999917596579,0.0016799999866634607,-0.19762000441551208
6385.6628999512,1068040.0,-0.033959999680519104,0.0012700000079348683,-0.0011399999493733048,-0.19839000701904297
6385.663899723415,1068041.0,-0.036070000380277634,0.004720000084489584,0.0019499999471008778,-0.19839000701904297
6385.66489949563,1068042.0,-0.04383999854326248,0.0036800000816583633,-0.00014000000373926014,-0.1997700035572052
6385.665899267846,1068043.0,-0.053369998931884766,0.008670000359416008,-0.002630000002682209,-0.19994999468326569
6385.666899040061,1068044.0,-0.05861999839544296,0.008170000277459621,0.0022700000554323196,-0.19968000054359436
6385.667898812277,1068045.0,-0.06019999831914902,0.0013200000394135714,-0.0028200000524520874,-0.1998099982738495
6385.668898584491,1068046.0,-0.05993000045418739,0.0022700000554323196,0.00031999999191612005,-0.1998099982738495
6385.669898356707,1068047.0,-0.05804000049829483,0.00018000000272877514,-0.0011399999493733048,-0.20132000744342804
6385.670898128922,1068048.0,-0.050939999520778656,-0.006490000057965517,0.00031999999191612005,-0.20182999968528748
6385.6718979011375,1068049.0,-0.040789999067783356,-0.006039999891072512,0.0018599999602884054,-0.20110000669956207
6385.672897673353,1068050.0,-0.02928999997675419,0.0002699999895412475,-0.002589999930933118,-0.20182999968528748
6385.673897445568,1068051.0,-0.016170000657439232,-0.007670000195503235,-0.0007300000288523734,-0.20255999267101288
6385.674897217783,1068052.0,-0.0028800000436604023,-0.0033599999733269215,-0.0045900000259280205,-0.20348000526428223
6385.675896989998,1068053.0,0.006829999852925539,0.003539999946951866,0.0035000001080334187,-0.20338000357151031
6385.676896762214,1068054.0,0.013880000449717045,0.0010000000474974513,-0.00267999991774559,-0.20338000357151031
6385.677896534429,1068055.0,0.018959999084472656,0.003269999986514449,0.0002699999895412475,-0.20374999940395355
6385.678896306645,1068056.0,0.021379999816417694,0.0027699999045580626,0.0014100000262260437,-0.20479999482631683
6385.679896078859,1068057.0,0.022369999438524246,0.0013200000394135714,0.00031999999191612005,-0.20534999668598175
6385.680895851075,1068058.0,0.020309999585151672,0.00031999999191612005,0.0011399999493733048,-0.20521999895572662
6385.68189562329,1068059.0,0.01689000055193901,0.00031999999191612005,-0.0014100000262260437,-0.20622000098228455
6385.6828953955055,1068060.0,0.015720000490546227,0.003949999809265137,0.0018599999602884054,-0.20595000684261322
6385.683895167721,1068061.0,0.015809999778866768,0.005040000192821026,-0.0011399999493733048,-0.2068600058555603
6385.684894939936,1068062.0,0.012489999644458294,0.0016799999866634607,-0.0013599999947473407,-0.20732000470161438
6385.685894712151,1068063.0,0.007459999993443489,0.0037700000684708357,-4.999999873689376e-05,-0.20850999653339386
6385.686894484366,1068064.0,0.0008999999845400453,0.004129999782890081,-0.001500000013038516,-0.20837000012397766
6385.687894256582,1068065.0,-0.005929999984800816,0.0016799999866634607,0.0013599999947473407,-0.20833000540733337
6385.688894028797,1068066.0,-0.012310000136494637,0.002589999930933118,-0.002589999930933118,-0.20942999422550201
6385.689893801013,1068067.0,-0.01761000044643879,-0.0006399999838322401,-0.00041000000783242285,-0.21071000397205353
6385.690893573227,1068068.0,-0.018330000340938568,-0.007360000163316727,-0.0015399999683722854,-0.21065999567508698
6385.691893345443,1068069.0,-0.014550000429153442,-0.003909999970346689,-0.0044999998062849045,-0.210889995098114
6385.692893117658,1068070.0,-0.007009999826550484,-0.00494999997317791,0.00031999999191612005,-0.2110700011253357
6385.6938928898735,1068071.0,0.0015300000086426735,-0.006769999861717224,0.0030900000128895044,-0.2116200029850006
6385.694892662089,1068072.0,0.010239999741315842,-0.002090000081807375,-0.00014000000373926014,-0.2127700001001358
6385.6958924343035,1068073.0,0.016580000519752502,-0.0035000001080334187,0.00031999999191612005,-0.2134999930858612
6385.696892206519,1068074.0,0.019589999690651894,-0.001769999973475933,-0.001500000013038516,-0.21355000138282776
6385.697891978734,1068075.0,0.02022000029683113,-0.00203999993391335,0.003220000071451068,-0.21381999552249908
6385.69889175095,1068076.0,0.018689999356865883,0.004040000028908253,-0.0009500000160187483,-0.21482999622821808
6385.699891523165,1068077.0,0.01671000011265278,0.0014100000262260437,-0.0009500000160187483,-0.2152400016784668
6385.700891295381,1068078.0,0.016349999234080315,0.0045900000259280205,0.002630000002682209,-0.21565000712871552
6385.701891067595,1068079.0,0.016759999096393585,0.004679999779909849,-0.0013200000394135714,-0.21648000180721283
6385.702890839811,1068080.0,0.013159999623894691,-0.0013200000394135714,0.00031999999191612005,-0.21671000123023987
6385.703890612026,1068081.0,0.005659999791532755,0.00031999999191612005,-0.0021299999207258224,-0.2176699936389923
6385.7048903842415,1068082.0,-0.0028800000436604023,0.004900000058114529,0.006680000107735395,-0.21817000210285187
6385.705890156457,1068083.0,-0.01271000038832426,0.008670000359416008,0.004629999864846468,-0.21849000453948975
6385.706889928671,1068084.0,-0.02857000008225441,0.005309999920427799,-0.004999999888241291,-0.2194100022315979
6385.707889700887,1068085.0,-0.041370000690221786,0.002950000111013651,-0.0011399999493733048,-0.22005000710487366
6385.708889473102,1068086.0,-0.04936999827623367,0.00031999999191612005,0.00203999993391335,-0.22064000368118286
6385.709889245318,1068087.0,-0.05130000039935112,-0.003909999970346689,0.00031999999191612005,-0.22182999551296234
6385.710889017533,1068088.0,-0.046539999544620514,-0.0018599999602884054,-0.000539999979082495,-0.22096000611782074
6385.711888789749,1068089.0,-0.03957999870181084,-0.0045900000259280205,-0.003220000071451068,-0.22234000265598297
6385.712888561963,1068090.0,-0.03359999880194664,-0.006399999838322401,-0.0021299999207258224,-0.22269999980926514
6385.713888334179,1068091.0,-0.028440000489354134,-0.003809999907389283,-0.0008200000156648457,-0.22357000410556793
6385.714888106394,1068092.0,-0.0243500005453825,-0.004129999782890081,0.006810000166296959,-0.22366000711917877
6385.7158878786095,1068093.0,-0.02133999951183796,-0.002630000002682209,-0.004040000028908253,-0.2244900017976761
6385.716887650825,1068094.0,-0.019770000129938126,0.00267999991774559,0.0019499999471008778,-0.22495000064373016
6385.717887423039,1068095.0,-0.01769999973475933,0.003719999920576811,0.00018000000272877514,-0.22559000551700592
6385.718887195255,1068096.0,-0.016850000247359276,0.00031999999191612005,0.001769999973475933,-0.2259099930524826
6385.71988696747,1068097.0,-0.02012999914586544,-0.0016799999866634607,-0.002950000111013651,-0.22614000737667084
6385.720886739686,1068098.0,-0.024390000849962234,0.00031999999191612005,0.0017300000181421638,-0.22682000696659088
6385.721886511901,1068099.0,-0.02848000079393387,0.005539999809116125,-0.0015899999998509884,-0.2276500016450882
6385.722886284117,1068100.0,-0.03037000074982643,0.002409999957308173,0.002630000002682209,-0.22791999578475952
6385.723886056331,1068101.0,-0.032340001314878464,-0.004769999999552965,-0.000590000010561198,-0.22860999405384064
6385.724885828547,1068102.0,-0.03853999823331833,0.003449999960139394,0.0024999999441206455,-0.22874000668525696
6385.725885600762,1068103.0,-0.051169998943805695,0.005400000140070915,-0.0021800000686198473,-0.22970999777317047
6385.726885372977,1068104.0,-0.06414999812841415,0.008860000409185886,0.0010000000474974513,-0.2296600043773651
6385.727885145193,1068105.0,-0.07384999841451645,0.0036800000816583633,-0.005489999894052744,-0.22975000739097595
6385.728884917407,1068106.0,-0.0817599967122078,0.001769999973475933,0.00031999999191612005,-0.23038999736309052
6385.729884689623,1068107.0,-0.08660999685525894,-0.0005000000237487257,0.0030900000128895044,-0.23075999319553375
6385.730884461838,1068108.0,-0.0871099978685379,-0.00803999975323677,-0.005770000163465738,-0.2313999980688095
6385.731884234054,1068109.0,-0.08597999811172485,-0.005590000189840794,0.004129999782890081,-0.23135000467300415
6385.732884006269,1068110.0,-0.08297000080347061,-0.003860000055283308,-0.0013200000394135714,-0.2319899946451187
6385.733883778484,1068111.0,-0.08049999922513962,-0.005770000163465738,-0.0014100000262260437,-0.23276999592781067
6385.734883550699,1068112.0,-0.07817000150680542,-0.003539999946951866,-4.999999873689376e-05,-0.23308999836444855
6385.735883322915,1068113.0,-0.07596000283956528,0.003220000071451068,-0.0015899999998509884,-0.23276999592781067
6385.73688309513,1068114.0,-0.07645999640226364,-0.0019099999917671084,0.0016299999551847577,-0.2332800030708313
6385.737882867345,1068115.0,-0.07794000208377838,0.00267999991774559,-0.003909999970346689,-0.23405000567436218
6385.738882639561,1068116.0,-0.07879000157117844,0.0029100000392645597,0.0021299999207258224,-0.23276999592781067
6385.739882411775,1068117.0,-0.08041000366210938,0.0012700000079348683,0.00267999991774559,-0.23478999733924866
6385.740882183991,1068118.0,-0.08014000207185745,0.003220000071451068,-0.0013599999947473407,-0.2347400039434433
6385.741881956206,1068119.0,-0.08287999778985977,0.005590000189840794,0.003220000071451068,-0.23478999733924866
6385.742881728422,1068120.0,-0.08880999684333801,-0.0021800000686198473,-0.0031300000846385956,-0.23483000695705414
6385.743881500637,1068121.0,-0.09272000193595886,0.003220000071451068,0.000910000002477318,-0.23520000278949738
6385.744881272852,1068122.0,-0.09675999730825424,0.007540000136941671,0.0010400000028312206,-0.2356099933385849
6385.745881045067,1068123.0,-0.10192999988794327,0.006990000139921904,0.0013200000394135714,-0.23578999936580658
6385.7468808172825,1068124.0,-0.10691999644041061,0.004129999782890081,-0.00041000000783242285,-0.23598000407218933
6385.747880589498,1068125.0,-0.11203999817371368,0.0033199999015778303,0.0011399999493733048,-0.23598000407218933
6385.748880361713,1068126.0,-0.11823999881744385,0.002589999930933118,0.001230000052601099,-0.23657000064849854
6385.749880133929,1068127.0,-0.12291000038385391,-0.0036800000816583633,-0.003590000094845891,-0.2370299994945526
6385.750879906143,1068128.0,-0.12038999795913696,-0.001500000013038516,0.00031999999191612005,-0.2370299994945526
6385.751879678359,1068129.0,-0.11082000285387039,-0.001180000021122396,-0.005859999917447567,-0.23698000609874725
6385.752879450574,1068130.0,-0.09963999688625336,-0.00949000008404255,0.001820000004954636,-0.2373500019311905
6385.75387922279,1068131.0,-0.08822999894618988,-0.006810000166296959,-0.00571999978274107,-0.23781000077724457
6385.754878995005,1068132.0,-0.07609999924898148,-0.002950000111013651,0.0013200000394135714,-0.23729999363422394
6385.75587876722,1068133.0,-0.0660799965262413,-0.000859999970998615,-0.0017300000181421638,-0.23758000135421753
6385.756878539435,1068134.0,-0.05965999886393547,0.00203999993391335,0.005810000002384186,-0.2380799949169159
6385.7578783116505,1068135.0,-0.056689999997615814,-0.000910000002477318,0.00031999999191612005,-0.23845000565052032
6385.758878083866,1068136.0,-0.05435999855399132,0.0035000001080334187,0.002859999891370535,-0.2380799949169159
6385.759877856081,1068137.0,-0.05291999876499176,0.00031999999191612005,-0.00267999991774559,-0.23845000565052032
6385.760877628296,1068138.0,-0.05260000005364418,0.00203999993391335,0.00031999999191612005,-0.23904000222682953
6385.761877400511,1068139.0,-0.0530100017786026,0.003449999960139394,0.00031999999191612005,-0.23969000577926636
6385.762877172727,1068140.0,-0.051750000566244125,0.0036299999337643385,0.0015899999998509884,-0.23826999962329865
6385.763876944942,1068141.0,-0.0510299988090992,-0.0013200000394135714,0.00018000000272877514,-0.23917999863624573
6385.764876717158,1068142.0,-0.051750000566244125,0.003719999920576811,-0.000590000010561198,-0.23991000652313232
6385.765876489373,1068143.0,-0.05494000017642975,0.0034099998883903027,0.006219999864697456,-0.2393600046634674
6385.766876261588,1068144.0,-0.0603800006210804,0.009039999917149544,-0.002859999891370535,-0.23991000652313232
6385.767876033803,1068145.0,-0.06716000288724899,0.0031799999997019768,0.00031999999191612005,-0.23931999504566193
6385.7688758060185,1068146.0,-0.07124999910593033,-0.001230000052601099,-0.004040000028908253,-0.23991000652313232
6385.769875578234,1068147.0,-0.0720599964261055,-0.004310000222176313,-0.002589999930933118,-0.24000999331474304
6385.770875350449,1068148.0,-0.07044000178575516,-0.002589999930933118,-0.0002699999895412475,-0.24000999331474304
6385.771875122664,1068149.0,-0.064690001308918,-0.00203999993391335,0.00018000000272877514,-0.23940999805927277
6385.772874894879,1068150.0,-0.055479999631643295,-0.00749000022187829,0.001449999981559813,-0.2405499964952469
6385.773874667095,1068151.0,-0.04747999832034111,-0.001500000013038516,-0.002589999930933118,-0.24041999876499176
6385.77487443931,1068152.0,-0.04061000049114227,-0.0015899999998509884,0.0037700000684708357,-0.24014000594615936
6385.775874211526,1068153.0,-0.03369000181555748,-0.0013200000394135714,-0.0006399999838322401,-0.23991000652313232
6385.776873983741,1068154.0,-0.028209999203681946,-0.0010400000028312206,0.0008200000156648457,-0.24068999290466309
6385.777873755956,1068155.0,-0.024620000272989273,0.003949999809265137,-0.003809999907389283,-0.2405499964952469
6385.778873528171,1068156.0,-0.02111000008881092,0.00494999997317791,0.001769999973475933,-0.24068999290466309
6385.7798733003865,1068157.0,-0.01923000067472458,0.001769999973475933,-0.0019099999917671084,-0.24100999534130096
6385.780873072602,1068158.0,-0.02012999914586544,0.0007300000288523734,0.005270000081509352,-0.24077999591827393
6385.781872844817,1068159.0,-0.021290000528097153,0.00031999999191612005,-0.001449999981559813,-0.24142000079154968
6385.782872617032,1068160.0,-0.02111000008881092,0.0021299999207258224,0.00018000000272877514,-0.24146999418735504
6385.783872389247,1068161.0,-0.023719999939203262,0.00031999999191612005,-0.00041000000783242285,-0.24155999720096588
6385.784872161463,1068162.0,-0.026149999350309372,0.002409999957308173,-0.0012700000079348683,-0.24161000549793243
6385.785871933678,1068163.0,-0.029829999431967735,0.0018599999602884054,0.0031300000846385956,-0.24083000421524048
6385.786871705894,1068164.0,-0.03198999911546707,0.005040000192821026,-0.002950000111013651,-0.24161000549793243
6385.787871478109,1068165.0,-0.03288000077009201,0.005179999861866236,-0.0006399999838322401,-0.2413800060749054
6385.788871250324,1068166.0,-0.03378000110387802,0.003719999920576811,0.002319999970495701,-0.24192999303340912
6385.789871022539,1068167.0,-0.03378000110387802,-4.999999873689376e-05,-0.004040000028908253,-0.24266000092029572
6385.7908707947545,1068168.0,-0.03136000037193298,-0.0035000001080334187,0.0007699999841861427,-0.24174000322818756
6385.79187056697,1068169.0,-0.027089999988675117,-0.004129999782890081,-0.004040000028908253,-0.242249995470047
6385.792870339185,1068170.0,-0.019950000569224358,-0.005590000189840794,-0.000859999970998615,-0.24187999963760376
6385.7938701114,1068171.0,-0.011140000075101852,-0.0018599999602884054,-0.00041000000783242285,-0.24289000034332275
6385.794869883615,1068172.0,-0.0023399998899549246,-0.0036299999337643385,-0.0021299999207258224,-0.2428400069475174
6385.795869655831,1068173.0,0.0005799999926239252,-0.00044999999227002263,0.003590000094845891,-0.2423900067806244
6385.796869428046,1068174.0,0.0003100000030826777,0.00031999999191612005,0.00031999999191612005,-0.24260999262332916
6385.797869200262,1068175.0,0.0008999999845400453,0.001180000021122396,0.0024500000290572643,-0.24201999604701996
6385.798868972476,1068176.0,0.0013000000035390258,0.004860000219196081,-0.0018599999602884054,-0.24330000579357147
6385.799868744692,1068177.0,0.0011699999449774623,0.006130000110715628,0.000910000002477318,-0.243259996175766
6385.800868516907,1068178.0,-0.0006300000241026282,0.001769999973475933,0.0017300000181421638,-0.2431199997663498
6385.8018682891225,1068179.0,-0.004089999943971634,0.003719999920576811,-0.0021800000686198473,-0.24321000277996063
6385.802868061338,1068180.0,-0.008270000107586384,-0.001449999981559813,0.0036299999337643385,-0.24315999448299408
6385.803867833553,1068181.0,-0.01257999986410141,0.00494999997317791,0.0015399999683722854,-0.24344000220298767
6385.804867605768,1068182.0,-0.020080000162124634,0.003220000071451068,-0.0013599999947473407,-0.24344000220298767
6385.805867377983,1068183.0,-0.033240001648664474,0.003949999809265137,0.0002699999895412475,-0.2429800033569336
6385.806867150199,1068184.0,-0.048700001090765,0.004860000219196081,-0.002589999930933118,-0.24379999935626984
6385.807866922414,1068185.0,-0.061230000108480453,0.0024500000290572643,0.0010000000474974513,-0.24422000348567963
6385.80886669463,1068186.0,-0.06827999651432037,0.0010400000028312206,-0.0010000000474974513,-0.2441300004720688
6385.809866466844,1068187.0,-0.0733100026845932,-0.0002699999895412475,-0.00203999993391335,-0.24435000121593475
6385.81086623906,1068188.0,-0.07564999908208847,-0.0036800000816583633,0.0012700000079348683,-0.2443999946117401
6385.811866011275,1068189.0,-0.07447999715805054,-0.005489999894052744,-0.004040000028908253,-0.24445000290870667
6385.81286578349,1068190.0,-0.06936000287532806,-0.00803999975323677,-0.0019099999917671084,-0.24416999518871307
6385.813865555706,1068191.0,-0.0636100023984909,-0.0062699997797608376,-0.0029100000392645597,-0.24402999877929688
6385.814865327921,1068192.0,-0.06055999919772148,-0.006949999835342169,-0.0016799999866634607,-0.24435000121593475
6385.815865100136,1068193.0,-0.059300001710653305,-0.0013599999947473407,0.006130000110715628,-0.244719997048378
6385.816864872351,1068194.0,-0.05894000083208084,0.004040000028908253,-0.0022299999836832285,-0.24477000534534454
6385.817864644567,1068195.0,-0.05785999819636345,0.00031999999191612005,0.003909999970346689,-0.24357999861240387
6385.818864416782,1068196.0,-0.06029000133275986,0.006490000057965517,-0.0045900000259280205,-0.24467000365257263
6385.819864188998,1068197.0,-0.06276000291109085,0.004860000219196081,0.0021299999207258224,-0.24467000365257263
6385.820863961212,1068198.0,-0.06559000164270401,0.0017300000181421638,0.00031999999191612005,-0.24503999948501587
6385.821863733428,1068199.0,-0.06989999860525131,-0.0013200000394135714,-0.0019099999917671084,-0.2443999946117401
6385.822863505643,1068200.0,-0.07474999874830246,-0.00014000000373926014,0.004410000052303076,-0.2439900040626526
6385.823863277858,1068201.0,-0.08444999903440475,0.003719999920576811,-0.002319999970495701,-0.24448999762535095
6385.824863050074,1068202.0,-0.09707999974489212,0.005040000192821026,0.004720000084489584,-0.24508999288082123
6385.825862822288,1068203.0,-0.10925000160932541,0.008080000057816505,-0.002319999970495701,-0.2448599934577942
6385.826862594504,1068204.0,-0.1220100000500679,0.005040000192821026,0.002859999891370535,-0.2445400059223175
6385.827862366719,1068205.0,-0.1327899992465973,0.004769999999552965,0.001820000004954636,-0.24431000649929047
6385.828862138935,1068206.0,-0.14312000572681427,0.0021299999207258224,-0.0011399999493733048,-0.2445400059223175
6385.82986191115,1068207.0,-0.15219999849796295,-0.0037700000684708357,0.00203999993391335,-0.24522000551223755
6385.830861683366,1068208.0,-0.1578100025653839,-0.0064500002190470695,-0.001230000052601099,-0.24522000551223755
6385.83186145558,1068209.0,-0.15875999629497528,-0.002950000111013651,0.0013200000394135714,-0.2448599934577942
6385.832861227796,1068210.0,-0.1533699929714203,-0.004769999999552965,-0.0021800000686198473,-0.24445000290870667
6385.833861000011,1068211.0,-0.1442900002002716,-0.0033199999015778303,0.00014000000373926014,-0.24462999403476715
6385.834860772226,1068212.0,-0.13620999455451965,-0.004629999864846468,0.00014000000373926014,-0.24503999948501587
6385.835860544442,1068213.0,-0.13022999465465546,0.002859999891370535,0.00031999999191612005,-0.24500000476837158
6385.836860316656,1068214.0,-0.123989999294281,0.0034099998883903027,0.0025400000158697367,-0.24467000365257263
6385.837860088872,1068215.0,-0.11940000206232071,-0.00044999999227002263,-0.0020000000949949026,-0.2443999946117401
6385.838859861087,1068216.0,-0.11841999739408493,0.003719999920576811,0.003719999920576811,-0.24416999518871307
6385.839859633303,1068217.0,-0.12075000256299973,0.002630000002682209,-0.0017300000181421638,-0.24477000534534454
6385.840859405518,1068218.0,-0.12268000096082687,0.0019499999471008778,0.003909999970346689,-0.24481000006198883
6385.841859177734,1068219.0,-0.12456999719142914,-0.0022700000554323196,-0.0013200000394135714,-0.24481000006198883
6385.842858949948,1068220.0,-0.1287900060415268,0.003220000071451068,0.00267999991774559,-0.24448999762535095
6385.8438587221635,1068221.0,-0.1332399994134903,-0.000859999970998615,-0.0024500000290572643,-0.24500000476837158
6385.844858494379,1068222.0,-0.1399800032377243,0.001769999973475933,0.002319999970495701,-0.2445800006389618
6385.845858266594,1068223.0,-0.14680999517440796,0.006130000110715628,-0.00203999993391335,-0.24448999762535095
6385.84685803881,1068224.0,-0.15485000610351562,0.00953999999910593,-0.002589999930933118,-0.24408000707626343
6385.847857811024,1068225.0,-0.1588899940252304,0.0064500002190470695,0.0031300000846385956,-0.2441300004720688
6385.84885758324,1068226.0,-0.16068999469280243,0.002319999970495701,-0.0010400000028312206,-0.2443999946117401
6385.849857355455,1068227.0,-0.15830999612808228,-0.0021800000686198473,-0.00686000008136034,-0.2448599934577942
6385.850857127671,1068228.0,-0.1555200070142746,-0.0018599999602884054,0.0010000000474974513,-0.24431000649929047
6385.851856899886,1068229.0,-0.1501300036907196,-0.008170000277459621,-0.0008200000156648457,-0.2445400059223175
6385.852856672102,1068230.0,-0.14024999737739563,-0.002090000081807375,-0.00418000016361475,-0.24462999403476715
6385.853856444316,1068231.0,-0.12865999341011047,-0.0011399999493733048,0.003000000026077032,-0.24379999935626984
6385.8548562165315,1068232.0,-0.11913999915122986,-0.004040000028908253,0.0012700000079348683,-0.24390000104904175
6385.855855988747,1068233.0,-0.11298000067472458,0.0031300000846385956,-0.0018599999602884054,-0.24422000348567963
6385.856855760962,1068234.0,-0.10772000253200531,0.0030900000128895044,-0.002409999957308173,-0.24408000707626343
6385.857855533178,1068235.0,-0.1029599979519844,0.005679999943822622,0.005040000192821026,-0.243259996175766
6385.858855305392,1068236.0,-0.09792999923229218,0.003220000071451068,0.003269999986514449,-0.24338999390602112
6385.859855077608,1068237.0,-0.09384000301361084,0.004900000058114529,4.999999873689376e-05,-0.2436700016260147
6385.860854849823,1068238.0,-0.09172999858856201,0.003220000071451068,-0.00203999993391335,-0.24330000579357147
6385.861854622039,1068239.0,-0.09092000126838684,0.003590000094845891,0.006719999946653843,-0.24289000034332275
