Time,Filtered_EMG_Bicep,Filtered_EMG_Tricep
6906.098325698229,0.0035970386256228173,0.0015432003691076743
6906.0993254704445,0.0035467139882604383,0.001566150253084344
6906.10032524266,0.0035020366868893514,0.0015873062383049618
6906.101325014874,0.0034635756388830268,0.0016065847135896174
6906.10232478709,0.0034318266975055097,0.0016239438521433159
6906.103324559305,0.003407202992289065,0.001639385505721103
6906.104324331521,0.003390026919146078,0.0016529558285619092
6906.105324103736,0.0033805239421106233,0.0016647445570037729
6906.106323875951,0.0033788183327464103,0.001674882942028877
6906.107323648166,0.003384930959243282,0.0016835404052604806
6906.108323420382,0.003398779215962872,0.001690920054716565
6906.109323192597,0.003420179137654206,0.0016972532439709306
6906.110322964812,0.003448849669276518,0.0017027933833451022
6906.111322737028,0.003484418972144592,0.001707809217089052
6906.112322509242,0.003526432549518646,0.0017125777688284211
6906.113322281458,0.0035743628764222895,0.0017173771372784711
6906.114322053673,0.0036276201363054012,0.001722479314702403
6906.115321825889,0.0036855636256423376,0.0017281432132931077
6906.116321598103,0.0037475133866164546,0.0017346081047513544
6906.117321370319,0.00381276163488749,0.0017420876800883448
6906.118321142534,0.0038805835472133466,0.0017507649114071313
6906.11932091475,0.003950246998410757,0.0017607878570761112
6906.120320686965,0.004021020936062754,0.001772266512851978
6906.12132045918,0.004092182252950337,0.0017852707820760324
6906.122320231395,0.00416302121709808,0.0017998296151981146
6906.12332000361,0.00423284570155739,0.0018159313461335092
6906.124319775826,0.004300984582506354,0.0018335252283919311
6906.125319548041,0.004366790710505673,0.0018525241477570693
6906.126319320257,0.004429643799617054,0.0018728084553298132
6906.127319092471,0.00448895346999736,0.001894230819283364
6906.128318864687,0.00454416259331309,0.0019166219411780319
6906.129318636902,0.004594751057552811,0.001939796935469839
6906.1303184091175,0.004640240056480006,0.00196356213505358
6906.131318181333,0.004680196971039176,0.001987722060345308
6906.132317953548,0.004714240831756421,0.00201208627103487
6906.133317725763,0.004742048254513682,0.002036475805721146
6906.134317497978,0.004763359656121761,0.0020607289132150166
6906.135317270194,0.004777985492465268,0.002084705807056678
6906.136317042409,0.004785812208806469,0.0021082922343455173
6906.137316814625,0.004786807532352771,0.0021314017247913283
6906.138316586839,0.004781024676324346,0.002153976464023775
6906.139316359055,0.004768604994361521,0.0021759868181634293
6906.14031613127,0.004749778661954988,0.0021974296235682824
6906.1413159034855,0.004724863082702175,0.002218325432883698
6906.142315675701,0.004694258899414695,0.0022387149544770705
6906.143315447916,0.00465844368406675,0.002258654921732568
6906.144315220131,0.004617963532988682,0.002278213588252806
6906.145314992346,0.004573422873884348,0.0022974659937461833
6906.146314764562,0.004525472816677721,0.0023164891142168848
6906.147314536777,0.004474798407290903,0.002335357010549611
6906.148314308993,0.004422105207129539,0.0023541361096310965
6906.149314081207,0.004368105689209289,0.0023728807689134303
6906.150313853423,0.004313505947501595,0.0023916292736284304
6906.151313625638,0.004258993128346681,0.0024104003972313477
6906.1523133978535,0.004205223847278364,0.002429190628627099
6906.153313170069,0.004152813720965484,0.0024479721367602655
6906.154312942284,0.004102328069266611,0.002466691506208567
6906.155312714499,0.0040542738189094174,0.002485269249560824
6906.156312486714,0.004009092623664168,0.0025036000977180593
6906.15731225893,0.003967155178148735,0.0025215540829337264
6906.158312031145,0.003928756663183175,0.0025389784390859806
6906.159311803361,0.003894113258070398,0.002555700332608666
6906.160311575575,0.0038633596986308804,0.002571530410079346
6906.161311347791,0.003836547927316965,0.002586267118696703
6906.162311120006,0.0038136469506001914,0.0025997017242902058
6906.1633108922215,0.0037945440735153045,0.0026116239063362213
6906.164310664437,0.003779047698180139,0.0026218277514452226
6906.165310436652,0.0037668918292985357,0.0026301179136357816
6906.166310208867,0.0037577423358468166,0.0026363156728730678
6906.167309981082,0.0037512049204419706,0.0026402646019683855
6906.168309753298,0.003746834682102395,0.002641835552472898
6906.169309525513,0.0037441471149137367,0.002640930709073097
6906.170309297729,0.003742630328901284,0.002637486543807769
6906.171309069943,0.0037417581927995424,0.002631475607183834
6906.172308842159,0.0037410040013923125,0.002622907190607846
6906.173308614374,0.0037398542025740204,0.0026118269579419474
6906.1743083865895,0.003737821711480414,0.002598315668740813
6906.175308158805,0.0037344583876871094,0.0025824871125851878
6906.17630793102,0.00372936631419398,0.002564485355750625
6906.177307703235,0.0037222075438639356,0.0025444813819877877
6906.17830747545,0.003712711965560831,0.0025226692055991405
6906.179307247666,0.0037006829443030002,0.0024992615557567076
6906.180307019881,0.003686000476499188,0.00247448526412832
6906.181306792096,0.003668621789550455,0.0024485765138194575
6906.182306564311,0.003648579545641805,0.002421776118008674
6906.183306336527,0.003625977987525977,0.002394324991873245
6906.184306108742,0.00360098742997281,0.0023664599608607738
6906.1853058809575,0.0035738374721444137,0.0023384100103975153
6906.186305653173,0.0035448092553883475,0.0023103930308889607
6906.187305425387,0.0035142270757415914,0.0022826130631481527
6906.188305197603,0.003482449677567372,0.002255258024947074
6906.189304969818,0.003449861557598932,0.0022284979084861573
6906.190304742034,0.0034168645596249544,0.002202483464638952
6906.191304514249,0.0033838699425547164,0.0021773454035047277
6906.192304286464,0.0033512909994732843,0.00215319413003182
6906.193304058679,0.003319536240116396,0.00213012001205603
6906.194303830895,0.0032890031379955134,0.002108194163598757
6906.19530360311,0.003260072452478269,0.0020874697184034958
6906.196303375325,0.003233103117002311,0.00206798355027451
6906.197303147541,0.003208427623717475,0.0020497583551090815
6906.198302919755,0.0031863477695269443,0.0020328049562043067
6906.199302691971,0.0031671306140094377,0.0020171246578321402
6906.200302464186,0.0031510045609370583,0.0020027114714028732
6906.201302236402,0.003138155590289616,0.001989554072191184
6906.202302008617,0.003128723790837521,0.0019776373961832433
6906.203301780832,0.003122800429631421,0.001966943832595475
6906.204301553047,0.0031204258147176592,0.0019574539912392275
6906.205301325263,0.003121588162819282,0.0019491470318153787
6906.206301097478,0.0031262236080020745,0.0019420005562497962
6906.207300869693,0.0031342174162322795,0.0019359900939873588
6906.208300641909,0.0031454064146669626,0.0019310882405403245
6906.209300414123,0.0031595825916391723,0.001927263525748221
6906.210300186339,0.003176497759619725,0.0019244790897116207
6906.211299958554,0.0031958691006916486,0.0019226912426059956
6906.21229973077,0.0032173853577796368,0.0019218479877287655
6906.213299502985,0.0032407134258763673,0.001921887593561209
6906.2142992752,0.0032655051326668963,0.001922737304420407
6906.215299047415,0.003291404036376609,0.0019243122767858979
6906.216298819631,0.0033180520765512637,0.0019265148184107878
6906.217298591846,0.003345095889732279,0.001929233989103549
6906.218298364061,0.003372192564535114,0.0019323455998257202
6906.219298136277,0.0033990145900666836,0.0019357126331029084
6906.220297908491,0.003425253791032013,0.0019391861098476426
6906.221297680707,0.0034506241711185688,0.001942606435014097
6906.222297452922,0.0034748637804794375,0.0019458052555601352
6906.223297225138,0.0034977359067767935,0.0019486078615070443
6906.224296997353,0.003519029982729968,0.001950836152812028
6906.225296769568,0.0035385625845727373,0.001952312165292773
6906.226296541783,0.0035561788056279256,0.0019528620926779355
6906.227296313999,0.003571754177376924,0.0019523206791398507
6906.228296086214,0.0035851971931049145,0.0019505358106876574
6906.229295858429,0.0035964523560517597,0.00194737310794768
6906.230295630645,0.003605503521561883,0.0019427203083101534
6906.231295402859,0.0036123771523307088,0.0019364912226545927
6906.232295175075,0.0036171449990297015,0.0019286290720758048
6906.23329494729,0.003619925702519628,0.0019191090557537675
6906.234294719506,0.0036208849129207954,0.0019079400570764771
6906.235294491721,0.003620233703382598,0.0018951654445850858
6906.236294263936,0.0036182252396314545,0.0018808629654691565
6906.237294036151,0.0036151497742095908,0.0018651437648146416
6906.238293808367,0.003611328059104806,0.0018481505855321742
6906.239293580582,0.0036071032790306215,0.001830055207113658
6906.240293352797,0.0036028316822670765,0.0018110551802591017
6906.241293125013,0.003598872248047462,0.0017913699221392269
6906.242292897227,0.0035955759164799468,0.001771236246723454
6906.243292669443,0.0035932750281922597,0.0017509034111980334
6906.244292441658,0.003592273628756659,0.0017306277792331832
6906.245292213874,0.0035928391987232683,0.0017106672462246619
6906.246291986088,0.0035951962142431017,0.001691275621916583
6906.247291758304,0.003599521767965146,0.0016726971940636973
6906.248291530519,0.0036059433125444915,0.0016551616953808424
6906.249291302735,0.0036145384363063036,0.0016388798725836616
6906.25029107495,0.0036253364425249163,0.0016240398164345988
6906.251290847165,0.003638321390751566,0.0016108041580747087
6906.25229061938,0.003653436186312168,0.0015993081745561627
6906.253290391595,0.0036705872852792797,0.0015896587814998185
6906.254290163811,0.003689649627161557,0.0015819343291085652
6906.255289936026,0.003710471507406783,0.001576185069160113
6906.256289708242,0.0037328792078225367,0.0015724341407051192
6906.257289480456,0.003756681255279635,0.0015706789400486134
6906.258289252672,0.0037816721704412555,0.0015708927805338781
6906.259289024887,0.00380763555668595,0.0015730267761991494
6906.260288797103,0.0038343464249298493,0.0015770118810401218
6906.261288569318,0.003861572759235606,0.001582760993422022
6906.262288341533,0.0038890764644242946,0.0015901710207587296
6906.263288113748,0.0039166139565018614,0.0015991248139854747
6906.264287885963,0.003943936723068098,0.001609492924560512
6906.265287658179,0.003970792172133486,0.001621135191593868
6906.266287430394,0.003996925008404338,0.001633902216191091
6906.26728720261,0.004022079256981783,0.0016476368140938438
6906.268286974824,0.0040460009380497925,0.0016621755490650952
6906.26928674704,0.004068441315325573,0.0016773504377545923
6906.270286519255,0.004089160595653841,0.0016929908913805368
6906.271286291471,0.004107931913961836,0.0017089259296164652
6906.272286063686,0.0041245453753035385,0.0017249866687034444
6906.273285835901,0.004138811875509578,0.0017410090488840836
6906.274285608116,0.004150566440500693,0.0017568367291408249
6906.275285380331,0.004159670920772453,0.0017723240393093494
6906.276285152547,0.004166015988712283,0.0017873388370638996
6906.277284924762,0.004169522430399418,0.0018017650795035885
6906.278284696978,0.00417014167431234,0.0018155049115265985
6906.279284469192,0.004167855414951781,0.0018284801124951668
6906.280284241408,0.004162674170919918,0.0018406328180962928
6906.281284013623,0.0041546347232561875,0.001851925520268684
6906.282283785838,0.0041437965737881905,0.0018623404247542971
6906.283283558054,0.004130237751077478,0.001871878302201538
6906.284283330269,0.004114050403674657,0.0018805569994496253
6906.285283102484,0.004095336641937111,0.0018884097821332498
6906.286282874699,0.004074205036567358,0.0018954836577711898
6906.287282646915,0.004050768079696941,0.0019018377810247375
6906.28828241913,0.004025140793240892,0.00190754198030283
6906.289282191346,0.003997440553856547,0.0019126753828245001
6906.29028196356,0.003967788096336217,0.0019173250618308828
6906.291281735776,0.003936309544523081,0.0019215845908128212
6906.292281507991,0.0039031392022950626,0.0019255523810439894
6906.293281280206,0.003868422746756584,0.0019293297144444925
6906.294281052422,0.003832320435697599,0.0019330184539361195
6906.295280824637,0.003795009972855228,0.0019367184886197777
6906.296280596852,0.003756688731408483,0.001940525027007875
6906.297280369067,0.0037175750835869016,0.0019445258769313842
6906.298280141283,0.003677908623911713,0.0019487988429184335
6906.299279913498,0.0036379491346471846,0.0019534093430460483
6906.300279685714,0.0035979742481611738,0.0019584083256585405
6906.301279457928,0.003558275908268968,0.001963830571682977
6906.302279230144,0.0035191558860425505,0.00196969348954212
6906.303279002359,0.003480920713765259,0.00197599651738044
6906.304278774574,0.003443876429705029,0.001982721224647478
6906.30527854679,0.0034083234811581944,0.0019898321590837214
6906.306278319005,0.0033745520449605694,0.001997278432034709
6906.30727809122,0.0033428379248596606,0.0020049959850171164
6906.308277863435,0.0033134390941219195,0.002012910435801345
6906.309277635651,0.0032865928795800772,0.002020940360085981
6906.310277407866,0.003262513731847385,0.0020290008227863013
6906.311277180081,0.0032413914917720763,0.0020370069409221744
6906.312276952296,0.0032233900434584426,0.00204487726098156
6906.313276724512,0.003208646246436293,0.002052536777381019
6906.314276496727,0.0031972690712724554,0.0020599194816097242
6906.315276268942,0.0031893389127355533,0.0020669703818505625
6906.316276041158,0.003184907089868815,0.002073646969202219
6906.317275813372,0.0031839955314701945,0.0020799201509370197
6906.318275585588,0.0031865965858758477,0.0020857747252130986
6906.319275357803,0.0031926728236679673,0.002091209503837148
6906.320275130019,0.0032021566822296546,0.0020962371722608977
6906.321274902234,0.003214949870098085,0.0021008839214948062
6906.322274674449,0.0032309225835431216,0.002105188836829169
6906.323274446664,0.003249912717842351,0.0021092030133218692
6906.32427421888,0.0032717253187803923,0.002112988385213171
6906.325273991095,0.0032961324979396043,0.0021166162819398044
6906.32627376331,0.0033228739560271833,0.0021201657343474425
6906.327273535526,0.003351658175300295,0.0021237215443523573
6906.32827330774,0.0033821643018506604,0.0021273721131560984
6906.329273079956,0.0034140447474301527,0.0021312070217736024
6906.330272852171,0.0034469285577404286,0.0021353143925655696
6906.331272624387,0.0034804255692813427,0.002139778128496756
6906.332272396602,0.0035141313042260603,0.002144675193496301
6906.333272168817,0.00354763248027211,0.0021500731194446275
6906.334271941032,0.0035805129872702604,0.0021560278915922835
6906.335271713248,0.0036123601968112724,0.0021625822979745497
6906.336271485463,0.0036427714734205987,0.0021697647526600773
6906.337271257678,0.0036713607112613834,0.0021775885282378504
6906.338271029894,0.0036977646474580937,0.0021860512790464128
6906.339270802108,0.003721648660815688,0.0021951347307620174
6906.340270574324,0.0037427118027826937,0.0022048044563799424
6906.341270346539,0.0037606909273768785,0.0022150097199471284
6906.342270118755,0.00377536394206511,0.0022256834163647057
6906.34326989097,0.003786552332251806,0.00223674216694457
6906.344269663185,0.0037941231745084697,0.00224808665281379
6906.3452694354,0.003797990835065125,0.0022596022729042754
6906.346269207616,0.0037981184726118824,0.0022711601909119338
6906.347268979831,0.0037945193682632763,0.002282618795461967
6906.348268752046,0.003787258015737933,0.0022938255585546697
6906.349268524262,0.0037764508237366915,0.002304619248192761
6906.350268296476,0.0037622662134070123,0.0023148324283572093
6906.351268068692,0.0037449238531416253,0.002324294160231215
6906.352267840907,0.003724692781464479,0.002332832805744484
6906.353267613123,0.0037018882448215593,0.0023402788303389954
6906.354267385338,0.0036768672208059745,0.0023464675067035473
6906.355267157553,0.0036500227620547385,0.0023512414358272003
6906.356266929768,0.0036217774024615277,0.0023544528255541744
6906.357266701984,0.0035925758683046784,0.0023559655005028117
6906.358266474199,0.0035628772561946435,0.0023556566593198524
6906.359266246414,0.003533146748078943,0.0023534184286800037
6906.36026601863,0.0035038469014436447,0.0023491592641904755
6906.361265790844,0.003475428612841068,0.002342805217895293
6906.36226556306,0.003448321981303885,0.0023343010606837605
6906.363265335275,0.0034229274333572052,0.0023236112395362365
6906.364265107491,0.0033996075564114,0.002310720660752006
6906.365264879706,0.003378680097189571,0.002295635306509763
6906.366264651921,0.0033604125212636955,0.0022783827077624916
6906.367264424136,0.0033450184206901433,0.002259012311459315
6906.368264196351,0.0033326559243590983,0.002237595788497268
6906.369263968567,0.0033234281258659416,0.0022142273238207996
6906.370263740782,0.0033173853988262758,0.0021890239130702457
6906.371263512998,0.0033145293201129237,0.002162125664430911
6906.372263285212,0.0033148177887295013,0.002133696067930637
6906.373263057428,0.0033181708589007084,0.0021039221482836716
6906.374262829643,0.0033244768357189097,0.002073014372462928
6906.375262601859,0.0033335982865383453,0.002041206155527806
6906.376262374073,0.003345377728961912,0.002008752813821805
6906.377262146289,0.0033596428133566675,0.00197592986375279
6906.378261918504,0.003376210831333079,0.0019430306477234492
6906.379261690719,0.0033948923917507656,0.0019103633530994162
6906.380261462935,0.0034154941419840897,0.0018782475377139916
6906.38126123515,0.003437820484497084,0.0018470102720455227
6906.382261007365,0.003461674346812093,0.0018169819730674331
6906.38326077958,0.0034868571886209226,0.0017884919723808576
6906.384260551796,0.0035131685333232333,0.0017618638541934146
6906.385260324011,0.0035404053559735965,0.0017374106211277191
6906.386260096227,0.003568361637486279,0.0017154297925430812
6906.387259868441,0.0035968283238015544,0.001696198596315707
6906.3882596406565,0.0036255938374609538,0.0016799694543495971
6906.389259412872,0.0036544452032370896,0.0016669659612488427
6906.390259185087,0.003683169773485113,0.0016573795119667544
6906.391258957303,0.003711557460363664,0.0016513666632056393
6906.392258729518,0.003739403306535206,0.0016490472341263447
6906.393258501733,0.0037665101862898406,0.0016505030811980322
6906.394258273948,0.003792691445984217,0.0016557774339040605
6906.395258046164,0.0038177733442817225,0.001664874660820818
6906.396257818379,0.0038415971918696118,0.0016777603473247752
6906.397257590595,0.003864021082996133,0.0016943615942484592
6906.398257362809,0.0038849210632720087,0.0017145674730212042
6906.3992571350245,0.0039041915370280466,0.0017382295884525467
6906.40025690724,0.003921744736714269,0.0017651627184237671
6906.401256679455,0.003937509172589763,0.0017951455393268693
6906.402256451671,0.003951427127725194,0.0018279215040017086
6906.403256223886,0.0039634514202101226,0.0018631999911614785
6906.404255996101,0.003973541779972174,0.001900657870857031
6906.405255768316,0.003981661246002857,0.0019399416243374447
6906.406255540532,0.003987772970478601,0.001980670128341568
6906.407255312747,0.003991837745005157,0.0020224381806578404
6906.408255084963,0.003993812479969429,0.0020648208169641866
6906.409254857177,0.003993649790646523,0.0021073784446074676
6906.4102546293925,0.003991298768240615,0.0021496627858923886
6906.411254401608,0.003986706927726544,0.0021912235758823066
6906.412254173823,0.003979823226226572,0.0022316159015583186
6906.413253946039,0.003970601954967073,0.0022704080128583626
6906.414253718254,0.0039590072519406294,0.002307189394793339
6906.415253490469,0.003945017968910643,0.0023415788644734203
6906.416253262684,0.003928632628249253,0.002373232437325641
6906.4172530349,0.003909874182426163,0.0024018506893251296
6906.418252807115,0.0038887942376313184,0.0024271853369994554
6906.4192525793305,0.003865476375623565,0.002449044772841477
6906.420252351545,0.00384003826628259,0.0024672983225608176
6906.4212521237605,0.003812632412480664,0.002481879020520234
6906.422251895976,0.0037834455519606403,0.002492784735361256
6906.423251668191,0.0037526968862849797,0.0025000775346772125
6906.424251440407,0.003720635372636304,0.0025038812625091753
6906.425251212622,0.0036875363108962106,0.0025043774059376194
6906.426250984837,0.003653697434464049,0.002501799424660172
6906.427250757052,0.0036194347018454085,0.002496425792247828
6906.428250529268,0.003585077975240932,0.0024885720472140023
6906.429250301483,0.003550966736932702,0.0024785821793995005
6906.4302500736985,0.0035174459333327662,0.0024668196810467193
6906.431249845913,0.003484861969082513,0.002453658573126308
6906.4322496181285,0.003453558817747097,0.002439474685570688
6906.433249390344,0.0034238741816169835,0.002424637432341604
6906.434249162559,0.003396135622164029,0.002409502273757915
6906.435248934775,0.0033706565872491543,0.0023944039954259077
6906.43624870699,0.0033477322717523116,0.00237965087011578
6906.437248479205,0.003327635265548096,0.002365519726507544
6906.43824825142,0.003310610981212267,0.0023522519271545125
6906.439248023636,0.0032968729236956267,0.002340050242418209
6906.440247795851,0.0032865979491603337,0.002329076591795271
6906.441247568066,0.0032799217293535115,0.0023194506124951963
6906.442247340281,0.0032769346788935447,0.002311249007566597
6906.4432471124965,0.0032776786218976983,0.0023045056237716694
6906.444246884712,0.0032821444676505926,0.00229921221946156
6906.445246656927,0.0032902711169113734,0.0022953199034623957
6906.446246429143,0.003301945728684854,0.002292741239328722
6906.447246201358,0.0033170053603124258,0.0022913529946348367
6906.448245973573,0.0033352398807261928,0.0022909994719014447
6906.449245745788,0.003356395977793841,0.002291496309936552
6906.450245518004,0.0033801820489549493,0.0022926346184238234
6906.451245290219,0.00340627376257009,0.0022941853168345315
6906.452245062434,0.003434320080437289,0.0022959035899470705
6906.453244834649,0.0034639495381519696,0.0022975334314411073
6906.454244606864,0.0034947766028537684,0.00229881229652394
6906.45524437908,0.003526407965526164,0.0022994759023419404
6906.456244151295,0.003558448654269051,0.0022992631997321277
6906.457243923511,0.0035905078551901302,0.0022979215040253463
6906.458243695725,0.0036222043056535662,0.00229521172887807
6906.459243467941,0.003653171110712469,0.002290913621797623
6906.460243240156,0.0036830598492774936,0.0022848308545415467
6906.461243012372,0.003711543879657563,0.0022767957830422832
6906.462242784587,0.0037383208192329686,0.002266673675259833
6906.463242556802,0.0037631142636599213,0.0022543662189450286
6906.464242329017,0.0037856749124497717,0.0022398141564167564
6906.465242101232,0.0038057813375857734,0.002222998939536301
6906.466241873448,0.00382324064481957,0.0022039433510468746
6906.467241645663,0.003837889251763925,0.0021827110948455437
6906.468241417879,0.003849593964138255,0.0021594054118977
6906.469241190093,0.0038582534612111017,0.0021341668269987527
6906.470240962309,0.003863800188260512,0.002107170175301441
6906.471240734524,0.003866202514676883,0.002078621095569116
6906.47224050674,0.0038654668962632083,0.0020487521990834733
6906.473240278955,0.0038616397203651656,0.002017819115026545
6906.4742400511695,0.0038548085246786212,0.0019860965721294004
6906.475239823385,0.003845102344369744,0.0019538746127113135
6906.4762395956,0.0038326910163024863,0.0019214549634518484
6906.477239367816,0.003817783317341258,0.0018891475221265587
6906.478239140031,0.0038006238363955578,0.0018572668758631418
6906.479238912247,0.0037814885154132684,0.0018261287560711705
6906.480238684461,0.003760678875818414,0.001796046361110458
6906.481238456677,0.0037385150714634133,0.0017673265281148414
6906.482238228892,0.0037153280549096783,0.0017402657872080014
6906.483238001108,0.003691451282911268,0.0017151463672505718
6906.484237773323,0.003667212479905514,0.0016922322397739228
6906.4852375455375,0.003642925990401499,0.001671765289634262
6906.486237317753,0.0036188861830986074,0.0016539616870198564
6906.487237089968,0.0035953622517448597,0.0016390085125016726
6906.488236862184,0.0035725946188311817,0.0016270606746659276
6906.489236634399,0.0035507930051640172,0.0016182381717135023
6906.490236406615,0.003530136094134804,0.0016126237714767057
6906.491236178829,0.0035107726042013687,0.0016102611949996956
6906.492235951045,0.003492823498578399,0.001611153879202995
6906.49323572326,0.0034763850275813368,0.0016152643720689945
6906.494235495476,0.0034615323252428993,0.0016225143891403127
6906.495235267691,0.003448323339225008,0.0016327855409396836
6906.4962350399055,0.0034368029103653023,0.0016459207324667794
6906.497234812121,0.0034270068008539706,0.001661726235686976
6906.498234584336,0.0034189654035869602,0.0016799744341649992
6906.499234356552,0.003412706794866213,0.0017004072277131347
6906.500234128767,0.0034082587799188473,0.0017227400635846553
6906.501233900983,0.0034056496653894477,0.0017466665334898576
6906.502233673197,0.00340490766604095,0.0017718634495332234
6906.503233445413,0.0034060590573680035,0.0017979962966226872
6906.504233217628,0.003409125345116788,0.001824724957267695
6906.505232989844,0.0034141197879352554,0.0018517096064131061
6906.506232762058,0.0034210435911008583,0.001878616664136648
6906.5072325342735,0.0034298820429325295,0.0019051246691717723
6906.508232306489,0.003440600841578301,0.001930929908953997
6906.509232078704,0.003453142859992075,0.0019557516321313186
6906.51023185092,0.00346742557913535,0.00197933668819249
6906.511231623135,0.0034833393519288643,0.0020014634782706247
6906.512231395351,0.0035007465624481656,0.002021945141714185
6906.513231167565,0.0035194816679747455,0.0020406319285385735
6906.514230939781,0.0035393520871789914,0.002057412714702437
6906.515230711996,0.0035601399086923405,0.0020722156147252695
6906.516230484212,0.0035816043941970144,0.002085007651811584
6906.517230256426,0.0036034852055118606,0.0020957934744817736
6906.5182300286415,0.0036255062048150427,0.002104613162965843
6906.519229800857,0.0036473796049519727,0.0021115392329244206
6906.520229573072,0.0036688102236699365,0.002116672993213428
6906.521229345288,0.0036894996335256392,0.0021201404319232324
6906.522229117503,0.003709150087220336,0.0021220877934999115
6906.523228889718,0.003727468212335029,0.00212267698410945
6906.524228661933,0.003744168574769343,0.0021220809195099505
6906.525228434149,0.0037589772724226397,0.002120478922048209
6906.526228206364,0.003771635724238567,0.0021180522795460777
6906.52722797858,0.00378190477291847,0.002114980083362455
6906.528227750794,0.0037895691465454294,0.0021114354535940413
6906.5292275230095,0.0037944422471864908,0.0021075822387182667
6906.530227295225,0.003796371154756742,0.002103572251579937
6906.53122706744,0.003795241640507776,0.00209954307278249
6906.532226839656,0.0037909828877764206,0.002095616416609813
6906.533226611871,0.0037835715659675557,0.0020918970242714556
6906.534226384086,0.0037730349373314713,0.002088472034693018
6906.535226156301,0.0037594527741987576,0.0020854107792894682
6906.536225928517,0.003742957958606039,0.0020827649400972513
6906.537225700732,0.0037237356809765466,0.002080568997222909
6906.538225472948,0.0037020211675331946,0.002078840884771622
6906.539225245162,0.003678095895810028,0.0020775827840474495
6906.540225017377,0.0036522823301088705,0.0020767820010991825
6906.541224789593,0.0036249373192829685,0.0020764118892796705
6906.542224561808,0.003596444429777778,0.002076432787638776
6906.543224334024,0.0035672056073758874,0.002076792969255232
6906.544224106239,0.0035376326317314508,0.002077429637445264
6906.545223878454,0.003508138824338725,0.0020782700506808837
6906.546223650669,0.0034791314035658317,0.002079232868660127
6906.547223422885,0.003451004781770042,0.002080229789220109
6906.5482231951,0.003424134994255615,0.002081167511742384
6906.549222967316,0.003398875341603773,0.00208195003260776
6906.55022273953,0.003375553208804854,0.0020824812444425987
6906.551222511745,0.0033544679003171566,0.0020826677650488635
6906.552222283961,0.003335889223790797,0.0020824218757487818
6906.553222056176,0.0033200565020251654,0.0020816644204810675
6906.554221828392,0.003307177716103479,0.002080327508844178
6906.555221600607,0.003297428569855555,0.0020783568696714065
6906.556221372822,0.003290951364071639,0.0020757137143672067
6906.557221145037,0.0032878536223965096,0.002072376000034543
6906.558220917253,0.0032882064165874075,0.0020683390383590193
6906.559220689468,0.0032920423501423416,0.0020636154633589094
6906.560220461684,0.0032993532202990057,0.002058234618481601
6906.561220233898,0.0033100874768246316,0.0020522414375333036
6906.562220006113,0.003324147692824684,0.00204569489564611
6906.563219778329,0.0033413883358366825,0.0020386661195515433
6906.564219550544,0.003361614167210131,0.002031236263784376
6906.56521932276,0.0033845795932609083,0.002023494260943113
6906.566219094975,0.0034099892438605563,0.002015534540797118
6906.56721886719,0.0034374999825532685,0.002007454800735683
6906.568218639405,0.003466724476055522,0.0019993539028856614
6906.569218411621,0.003497236371719318,0.0019913299629383987
6906.570218183836,0.0035285770386568253,0.0019834786774286673
6906.5712179560505,0.003560263719641183,0.001975891913770174
6906.572217728266,0.0035917988369449406,0.0019686565669866448
6906.573217500481,0.003622680127970245,0.001961853666601093
6906.574217272697,0.003652411271335912,0.001955557687297711
6906.575217044912,0.0036805126788679245,0.001949835978875796
6906.576216817128,0.003706532125572968,0.0019447482019636431
6906.577216589343,0.003730054839830793,0.0019403456525523817
6906.578216361558,0.0037507126080610345,0.0019366703838982304
6906.579216133773,0.003768191430350679,0.0019337540841568896
6906.580215905989,0.003782237348601077,0.001931616736977677
6906.581215678204,0.0037926602531341775,0.0019302651705048839
6906.5822154504185,0.0037993356987788387,0.0019296916678899375
6906.583215222634,0.003802204946330273,0.0019298728449396885
6906.584214994849,0.003801273536511042,0.001930768984905151
6906.585214767065,0.0037966087086438506,0.0019323239648162487
6906.58621453928,0.0037883359421893373,0.001934465833003508
6906.587214311496,0.003776634862806446,0.0019371080233221677
6906.58821408371,0.003761734724334542,0.0019401511333114556
6906.589213855926,0.003743909648166087,0.0019434851615055821
6906.590213628141,0.0037234737611641553,0.001946992093529203
6906.5912134003565,0.0037007763148886445,0.001950548735631518
6906.592213172572,0.003676196801646119,0.0019540297040567204
6906.5932129447865,0.003650140034083821,0.0019573104837068865
6906.594212717002,0.0036230311469049605,0.0019602704714268724
6906.595212489217,0.0035953105005763915,0.001962795917097515
6906.596212261433,0.0035674284751404006,0.001964782664098031
6906.597212033648,0.003539840106303352,0.0019661385712390323
6906.598211805864,0.0035129994533734756,0.0019667854905295818
6906.599211578078,0.003487353552557265,0.0019666607031384228
6906.600211350294,0.003463335846599703,0.0019657177785459955
6906.601211122509,0.0034413591009863067,0.001963926886999321
6906.6022108947245,0.003421807974587445,0.0019612746320220985
6906.60321066694,0.0034050315356553996,0.0019577634790109966
6906.6042104391545,0.003391336053090536,0.001953410860749603
6906.60521021137,0.0033809783570768726,0.001948248051766385
6906.606209983585,0.003374160004835873,0.0019423189083075407
6906.607209755801,0.0033710224555689693,0.0019356785531962318
6906.608209528016,0.00337164345992313,0.0019283920431493694
6906.609209300232,0.0033760348692343676,0.0019205330026703484
6906.610209072446,0.0033841420341142164,0.0019121821667995788
6906.611208844662,0.003395844883523791,0.0019034257710290091
6906.612208616877,0.0034109606707436505,0.0018943537686678194
6906.6132083890925,0.0034292482719544774,0.0018850579219220251
6906.614208161308,0.003450413855540214,0.0018756298683141844
6906.6152079335225,0.0034741177087723794,0.0018661592890013667
6906.616207705738,0.003499981983032193,0.0018567323029363217
6906.617207477953,0.003527599066108738,0.0018474301929544913
6906.618207250169,0.003556540219796669,0.001838328544349065
6906.619207022384,0.003586364089144346,0.0018294968441334375
6906.6202067946,0.0036166247421071363,0.0018209985499022447
6906.621206566814,0.003646879020737932,0.001812891596048656
6906.62220633903,0.0036766931252165663,0.0018052292711684625
6906.623206111245,0.0037056484690105237,0.0017980613769036837
6906.6242058834605,0.003733346915875184,0.0017914355591715347
6906.625205655676,0.0037594155273698274,0.0017853986853684069
6906.62620542789,0.003783510925715542,0.001779998133861657
6906.627205200106,0.0038053233447886796,0.0017752828714952497
6906.628204972321,0.0038245804264188618,0.0017713042202396894
6906.629204744537,0.00384105081441728,0.0017681162537738942
6906.630204516752,0.0038545475791145305,0.0017657758118762227
6906.631204288968,0.003864931448655841,0.0017643421585224021
6906.632204061182,0.0038721137292175765,0.0017638763272308428
6906.633203833398,0.0038760586931564545,0.0017644401995801095
6906.634203605613,0.0038767851534769458,0.0017660953597847175
6906.6352033778285,0.0038743669621639203,0.001768901763328106
6906.636203150043,0.0038689322472026323,0.0017729162526488407
6906.637202922258,0.00386066127533678,0.0017781909511235979
6906.638202694474,0.0038497828647614395,0.0017847715703081662
6906.639202466689,0.003836569310367126,0.0017926956759504633
6906.640202238905,0.003821329876952633,0.0018019909747620554
6906.64120201112,0.0038044030710240695,0.0018126736975880005
6906.642201783336,0.003786148072709509,0.0018247471540568882
6906.64320155555,0.003766935826846649,0.0018382005172641875
6906.644201327766,0.0037471403067613368,0.0018530078710465735
6906.645201099981,0.0037271303763341396,0.0018691275232410327
6906.6462008721965,0.0037072625369538705,0.0018865015635284536
6906.647200644411,0.0036878747216984357,0.0019050556334094838
6906.648200416626,0.003669281223630141,0.0019246988792178134
6906.649200188842,0.00365176880360896,0.0019453240652815686
6906.650199961057,0.0036355939786912356,0.0019668078254298743
6906.651199733273,0.003620981427185408,0.0019890110366437273
6906.652199505488,0.0036081233737961845,0.002011779324000474
6906.653199277703,0.003597179761988629,0.0020349437465782823
6906.654199049918,0.0035882789966450762,0.0020583217449188875
6906.655198822134,0.003581519051751341,0.002081718435941052
6906.656198594349,0.0035769687732418714,0.0021049283249380125
6906.657198366564,0.0035746692390769574,0.002127737469816181
6906.658198138779,0.003574635047234413,0.0021499260767011506
6906.659197910994,0.003576855401861481,0.002171271438224435
6906.66019768321,0.003581294895089489,0.0021915510692276157
6906.661197455425,0.003587893956556358,0.0022105458654474207
6906.662197227641,0.003596569051860437,0.002228043115974968
6906.663196999856,0.0036072128247227843,0.0022438392426792986
6906.664196772071,0.0036196944586151655,0.0022577422070126415
6906.665196544286,0.0036338605477583734,0.0022695735891857453
6906.666196316502,0.0036495367069442532,0.002279170388143753
6906.667196088717,0.0036665300444727925,0.002286386613754378
6906.668195860932,0.0036846325138766467,0.0022910947467510477
6906.669195633147,0.0037036250674401497,0.0022931871189898075
6906.670195405362,0.0037232824532778238,0.0022925772137775795
6906.671195177578,0.003743378421374447,0.002289200824487963
6906.672194949793,0.003763691040970069,0.0022830169787844156
6906.673194722009,0.0037840078036015627,0.002274008563920278
6906.674194494224,0.0038041302099895992,0.002262182666089654
6906.675194266439,0.003823877607772445,0.0022475707192120054
6906.676194038654,0.003843090127247675,0.00223022859906153
6906.6771938108695,0.0038616306153335164,0.0022102367796414993
6906.678193583085,0.0038793854833081296,0.0021877006049490647
6906.6791933553,0.0038962643922385225,0.002162750646202082
6906.680193127515,0.003912198747115975,0.0021355430317394303
6906.68119289973,0.0039271390750965935,0.002106259572698008
6906.682192671946,0.003941051502625684,0.002075107483843147
6906.683192444161,0.003953913676677604,0.0020423185259172212
6906.684192216377,0.003965710555600926,0.0020081474606445057
6906.685191988592,0.003976430505647946,0.001972869785871871
6906.686191760807,0.003986062088664663,0.0019367787833814193
6906.687191533022,0.003994591832906939,0.0019001819537096494
6906.6881913052375,0.004002003153995806,0.0018633969331553414
6906.689191077453,0.00400827645211427,0.0018267470019399615
6906.690190849668,0.0040133902799434655,0.0017905563093962573
6906.691190621883,0.004017323367797157,0.0017551449574928245
6906.692190394098,0.004020057207630419,0.0017208240884151133
6906.693190166314,0.00402157884751523,0.001687891114670597
6906.694189938529,0.004021883558064896,0.0016566252146746495
6906.695189710745,0.004020977105069526,0.0016272831916698469
6906.69618948296,0.004018877456515788,0.0016000957630488428
6906.697189255175,0.004015615810948471,0.001575264327172375
6906.69818902739,0.004011236846056024,0.0015529582554695393
6906.6991887996055,0.004005798099064333,0.0015333127675776154
6906.700188571821,0.00399936845383466,0.0015164274486962766
6906.701188344036,0.0039920258210601875,0.0015023654523895133
6906.702188116251,0.003983854215277903,0.0014911534001626637
6906.703187888466,0.0039749405158845666,0.0014827819560925847
6906.704187660682,0.0039653712281494365,0.001477207043104847
6906.705187432897,0.003955229528644513,0.0014743516808233086
6906.706187205113,0.003944592804418284,0.0014741084367578432
6906.707186977328,0.003933530816281854,0.001476342464170641
6906.708186749543,0.003922104561978365,0.0014808950507633277
6906.709186521758,0.003910365875380208,0.0014875875484342315
6906.7101862939735,0.003898357748814141,0.001496225525135268
6906.711186066189,0.00388611530050545,0.0015066029853341462
6906.712185838404,0.003873667244639915,0.0015185065298472889
6906.713185610619,0.003861037685351337,0.00153171934569876
6906.714185382834,0.003848248062975938,0.0015460249281881496
6906.71518515505,0.0038353191137055244,0.0015612104563857336
6906.716184927265,0.0038222727270281927,0.0015770697810738837
6906.717184699481,0.003809133580520308,0.0015934060309602872
6906.718184471695,0.003795930409980252,0.0016100338760039073
6906.719184243911,0.003782696766236909,0.0016267814904632762
6906.720184016126,0.003769471155605626,0.0016434922391446911
6906.7211837883415,0.003756296573723222,0.0016600260911380973
6906.722183560557,0.0037432195842050063,0.0016762607615785432
6906.723183332771,0.003730289193719509,0.0016920925854864645
6906.724183104987,0.0037175557935544166,0.0017074371225278416
6906.725182877202,0.003705070387138865,0.0017222294796918603
6906.726182649418,0.003692884237407471,0.001736424335183886
6906.727182421633,0.003681048977565615,0.0017499956564494556
6906.728182193849,0.003669617154073207,0.001762936123109799
6906.729181966063,0.003658643116503205,0.0017752562848956002
6906.730181738279,0.0036481841252639204,0.0017869834957849786
6906.731181510494,0.003638301502880177,0.001798160662516903
6906.7321812827095,0.003629061611641518,0.0018088448363497876
6906.733181054925,0.0036205364257345255,0.0018191056729075401
6906.734180827139,0.003612803504645767,0.0018290237849511795
6906.735180599355,0.003605945258320708,0.0018386890075731117
6906.73618037157,0.003600047477059913,0.001848198583437441
6906.737180143786,0.0035951971313116634,0.001857655266113982
6906.738179916001,0.003591479423857671,0.0018671653364452127
6906.739179688217,0.0035889740561369874,0.0018768365223518174
6906.740179460431,0.0035877507253493325,0.0018867758013107231
6906.741179232647,0.0035878640149229067,0.0018970870584949116
6906.742179004862,0.0035893480133907304,0.0019078685874248707
6906.743178777077,0.0035922111129095247,0.001919210452708034
6906.744178549293,0.0035964314633450236,0.0019311917745431272
6906.745178321507,0.0036019535054997694,0.0019438780361828785
6906.746178093723,0.003608685909506414,0.0019573185532001983
6906.747177865938,0.0036165011304174675,0.001971544263717441
6906.748177638154,0.003625236679788139,0.001986565991284051
6906.749177410369,0.0036346980999045174,0.0020023733016905952
6906.750177182585,0.003644663507259462,0.002018934033877774
6906.751176954799,0.0036548894479784795,0.0020361945406327294
6906.752176727015,0.0036651177088639296,0.0020540806324634265
6906.75317649923,0.0036750826861080034,0.0020724991860525126
6906.754176271445,0.003684518934889042,0.002091340356830603
6906.755176043661,0.003693168580098636,0.0021104803087927133
6906.756175815875,0.003700788320624351,0.00212978433547604
6906.757175588091,0.003707155776498813,0.0021491102115349437
6906.758175360306,0.003712074913478172,0.0021683116120947508
6906.759175132522,0.003715380274354473,0.0021872414734862584
6906.760174904737,0.0037169397967159556,0.002205755219365328
6906.761174676953,0.0037166561167340166,0.0022237138059351892
6906.762174449167,0.0037144664228725183,0.0022409865376227006
6906.763174221383,0.0037103410860088166,0.0022574535877036973
6906.764173993598,0.0037042814062185907,0.0022730081449677648
6906.765173765813,0.003696316852852085,0.0022875581008308552
6906.766173538028,0.0036865021361215254,0.0023010271962118525
6906.767173310243,0.0036749143612934817,0.0023133555762000777
6906.768173082459,0.003661650412684589,0.002324499754083785
6906.769172854674,0.003646824624346733,0.002334432044730398
6906.77017262689,0.0036305667407508513,0.00234313956398966
6906.771172399105,0.0036130201551336973,0.0023506228952583502
6906.772172171321,0.0035943404133052894,0.0023568945099884785
6906.773171943535,0.0035746939667883866,0.002361977016646631
6906.774171715751,0.0035542571500194547,0.00236590131116762
6906.775171487966,0.0035332153432090386,0.0023687047042139256
6906.776171260181,0.0035117622560536603,0.002370429092698526
6906.777171032396,0.00349009922278,0.0023711192205286284
6906.778170804611,0.003468434350355736,0.002370821050831989
6906.779170576827,0.0034469813359797753,0.0023695802683761473
6906.780170349042,0.0034259577877788446,0.0023674409494902375
6906.781170121258,0.0034055829474919433,0.0023644444618678056
6906.782169893473,0.0033860748163331094,0.0023606286653170966
6906.783169665688,0.0033676468076621058,0.0023560274631482525
6906.784169437903,0.003350504162731569,0.002350670711506703
6906.785169210119,0.0033348404308060037,0.002344584452722887
6906.786168982334,0.0033208343103039817,0.002337791410013995
6906.787168754549,0.003308647084575858,0.002330311663353926
6906.788168526764,0.00329842079723001,0.002322163420999899
6906.789168298979,0.0032902772244063653,0.002313363811519414
6906.790168071195,0.003284317621494011,0.0023039296436767522
6906.79116784341,0.0032806231450630678,0.0022938781052525893
6906.792167615626,0.0032792557833143726,0.0022832273839324614
6906.793167387841,0.003280259593785495,0.0022719971888566937
6906.794167160056,0.0032836620646588804,0.002260209143833445
6906.795166932271,0.0032894754698824338,0.0022478870342022817
6906.796166704487,0.003297698129201852,0.0022350569209922864
6906.797166476702,0.003308315474085624,0.0022217471655965842
6906.798166248917,0.0033213007714868307,0.0022079884140674636
6906.799166021132,0.00333661532148953,0.0021938135739532193
6906.800165793347,0.003354207973213645,0.0021792577977026648
6906.801165565563,0.0033740139121470245,0.0021643584811129263
6906.802165337778,0.003395952832499213,0.0021491552918959144
6906.803165109994,0.0034199267630398798,0.0021336902471755233
6906.804164882209,0.0034458179102865613,0.002118007848228232
6906.805164654424,0.003473486894903419,0.002102155261985349
6906.806164426639,0.003502771700806429,0.0020861825256029724
6906.807164198855,0.0035334875668375978,0.002070142744410093
6906.80816397107,0.003565427948788808,0.0020540922469179912
6906.809163743285,0.003598366564795441,0.00203809065698953
6906.8101635155,0.003632060417763959,0.0020222008553290242
6906.811163287715,0.003666253594978331,0.002006488827507729
6906.812163059931,0.003700681602044856,0.0019910234170997004
6906.813162832146,0.0037350759887938034,0.001975876012288864
6906.814162604362,0.003769169044076735,0.0019611201944722562
6906.815162376577,0.0038026983579966143,0.001946831368059206
6906.816162148792,0.003835411062407531,0.001933086373664271
6906.817161921007,0.0038670675495394687,0.001919963070453636
6906.818161693223,0.003897444444596272,0.0019075398677133439
6906.819161465438,0.003926336623190153,0.0018958951949090764
6906.820161237653,0.003953558162381309,0.001885106911524603
6906.821161009868,0.00397894227163618,0.0018752516523639256
6906.822160782083,0.004002340397815479,0.0018664040815484077
6906.823160554299,0.00402362078386795,0.001858636014751112
6906.824160326514,0.004042666772454202,0.0018520153803441733
6906.82516009873,0.00405937510351324,0.001846605015101773
6906.826159870945,0.004073654398655681,0.0018424613120817989
6906.82715964316,0.0040854239893116555,0.0018396327539737518
6906.828159415375,0.004094613231912506,0.0018381583784359116
6906.82915918759,0.004101161436546445,0.0018380662326760876
6906.830158959806,0.004105018491148336,0.001839371879754847
6906.83115873202,0.0041061461883709904,0.0018420770199293083
6906.832158504236,0.0041045201742799286,0.0018461682939399189
6906.833158276451,0.004100132366590561,0.0018516163449020556
6906.834158048667,0.0040929936617886,0.0018583752207116048
6906.835157820882,0.004083136759099094,0.0018663821849437278
6906.836157593098,0.0040706189305027805,0.0018755579730261427
6906.837157365313,0.004055524523961337,0.0018858074991311524
6906.838157137528,0.00403796692025381,0.0018970209996322148
6906.839156909743,0.004018089629809685,0.001909075589467239
6906.840156681958,0.0039960662601547445,0.0019218372021745868
6906.841156454174,0.003972099212585851,0.001935162878421767
6906.842156226388,0.0039464171445743376,0.0019489033591519205
6906.843155998604,0.00391927139949934,0.001962905928343664
6906.844155770819,0.0038909316967042913,0.00197701743705644
6906.845155543035,0.0038616813769145374,0.001991087422079835
6906.84615531525,0.003831812446420184,0.002004971210279303
6906.847155087466,0.003801620605711551,0.0020185328835378756
6906.84815485968,0.0037714004121344115,0.0020316479779234568
6906.849154631896,0.003741440714088579,0.002044205804004698
6906.850154404111,0.003712020487847615,0.002056111296686062
6906.851154176326,0.003683405184097507,0.002067286325373998
6906.852153948542,0.0036558436452264376,0.0020776704155460765
6906.853153720756,0.003629565604910872,0.002087220852823619
6906.854153492972,0.0036047797503853517,0.0020959121618053566
6906.855153265187,0.003581672314460029,0.0021037349756369934
6906.856153037403,0.0035604061440935256,0.0021106943467983736
6906.857152809618,0.0035411201463580594,0.002116807600399546
6906.858152581834,0.0035239289584179704,0.0021221018829121075
6906.859152354048,0.0035089226731404148,0.00212661158221302
6906.860152126264,0.003496166512721992,0.0021303757760014353
6906.861151898479,0.0034857004650883333,0.0021334358228060134
6906.862151670694,0.0034775390213476073,0.002135833172033202
6906.86315144291,0.0034716712202999046,0.0021376074505191638
6906.864151215124,0.0034680612020315032,0.0021387948771854795
6906.86515098734,0.003466649413075136,0.0021394270552160875
6906.866150759555,0.0034673545194408126,0.0021395301903153552
6906.867150531771,0.0034700760057246043,0.002139124782492528
6906.868150303986,0.003474697387129082,0.0021382258270834305
6906.869150076202,0.0034810899164156458,0.0021368435286611897
6906.870149848416,0.003489116596703129,0.0021349844877669466
6906.871149620632,0.0034986362178073696,0.0021326532828862244
6906.872149392847,0.003509507062418469,0.002129854339822697
6906.873149165062,0.003521589923022868,0.0021265939453757655
6906.874148937278,0.0035347501460124046,0.0021228822247897176
6906.875148709492,0.003548858551993475,0.002118734885891643
6906.876148481708,0.003563791214937221,0.002114174556131459
6906.877148253923,0.0035794281675553337,0.0021092315955008314
6906.878148026139,0.0035956511396728055,0.0021039443294394752
6906.879147798354,0.00361234048253078,0.0020983586816918413
6906.8801475705695,0.003629371521337932,0.002092527193872993
6906.881147342784,0.0036466106868992708,0.0020865074270242034
6906.882147115,0.0036639118524565834,0.0020803597868668732
6906.883146887215,0.0036811133183161076,0.0020741448943942206
6906.88414665943,0.003698035847885523,0.002067920690329793
6906.885146431646,0.003714482072082423,0.002061739478972074
6906.88614620386,0.003730237456767606,0.0020556450907789634
6906.887145976076,0.003745072893834234,0.002049670301481241
6906.888145748291,0.003758748853724935,0.0020438346061160055
6906.889145520507,0.0037710209315717324,0.002038142416780038
6906.890145292722,0.003781646523080297,0.0020325817398693267
6906.8911450649375,0.0037903922740232655,0.0020271233943329973
6906.892144837152,0.0037970418692300553,0.0020217208499496596
6906.893144609368,0.0038014036923296195,0.0020163107771833974
6906.894144381583,0.003803317924601938,0.002010814386539366
6906.895144153798,0.0038026627514671854,0.0020051395864366783
6906.896143926013,0.003799359451656893,0.0019991839201723947
6906.897143698228,0.0037933761965852552,0.001992838181349202
6906.898143470444,0.003784730380501717,0.0019859905663308927
6906.899143242659,0.0037734892919376356,0.001978531194427493
6906.900143014875,0.003759768988835321,0.0019703567973325714
6906.90114278709,0.003743731372445998,0.0019613753472445235
6906.9021425593055,0.003725579633305051,0.0019515103751513551
6906.90314233152,0.0037055524044224976,0.0019407047464903712
6906.904142103736,0.0036839170469591823,0.0019289237120166994
6906.905141875951,0.0036609624941448676,0.0019161571181214242
6906.906141648166,0.0036369920190339306,0.0019024207213313522
6906.907141420381,0.0036123162158769938,0.0018877565990186587
6906.908141192596,0.0035872464146079136,0.001872232686770099
6906.909140964812,0.0035620886775568064,0.0018559415031747595
6906.910140737027,0.003537138449804112,0.0018389981407427502
6906.911140509243,0.00351267585797814,0.001821537611903444
6906.912140281458,0.0034889615986303892,0.0018037116554233076
6906.913140053673,0.0034662333463985565,0.0017856851341545347
6906.914139825888,0.0034447026395602112,0.0017676321747267768
6906.915139598103,0.0034245522321213655,0.0017497322006288535
6906.916139370319,0.0034059339018310355,0.001732165997817843
6906.917139142534,0.0033889666671808763,0.001715111940424138
6906.918138914749,0.003373735318517249,0.0016987424946223275
6906.919138686964,0.003360289151383034,0.0016832210992934965
6906.92013845918,0.003348640850370122,0.0016686994860155519
6906.921138231395,0.0033387656189725447,0.0016553154559357478
6906.922138003611,0.0033306008231160406,0.0016431910891272206
6906.923137775826,0.0033240465188824207,0.0016324313284964728
6906.924137548041,0.003318967223189673,0.0016231228569725015
6906.925137320256,0.003315195185310017,0.0016153331820507634
6906.926137092471,0.003312535278872537,0.0016091098671656653
6906.927136864687,0.0033107714940573993,0.0016044798973161973
6906.928136636902,0.0033096748774089457,0.0016014492083099435
6906.929136409117,0.0033090126377029287,0.0016000024276505592
6906.930136181332,0.0033085580098330745,0.001600102880931247
6906.931135953548,0.0033081003540732933,0.0016016929233935832
6906.932135725763,0.0033074548859774134,0.0016046946569844367
6906.933135497979,0.0033064714148164378,0.0016090110794776487
6906.934135270194,0.0033050415404419662,0.001614527685927698
6906.935135042409,0.0033031039033672273,0.0016211145131781012
6906.936134814624,0.0033006472385770104,0.001628628593020649
6906.937134586839,0.0032977110873922593,0.0016369167589776194
6906.938134359055,0.003294384069267096,0.0016458187277616197
6906.93913413127,0.003290799670990887,0.0016551703450364556
6906.940133903485,0.003287129644393077,0.0016648068557051255
6906.9411336757,0.003283575314439379,0.0016745660466169327
6906.942133447916,0.003280357311344716,0.001684291121235396
6906.943133220131,0.0032777043699671587,0.0016938332012532721
6906.944132992347,0.0032758418622227696,0.0017030534072256052
6906.945132764562,0.0032749806828925917,0.001711824537031648
6906.9461325367765,0.003275307052391811,0.0017200324121100143
6906.947132308992,0.003276973749862068,0.0017275769801287752
6906.948132081207,0.0032800932188528265,0.0017343732575798422
6906.949131853423,0.0032847328679742683,0.001740352182193184
6906.950131625638,0.0032909127272983288,0.0017454614245508257
6906.951131397853,0.0032986054480020114,0.0017496661756784167
6906.952131170068,0.0033077384744902363,0.00175294988312704
6906.953130942284,0.003318198095249108,0.0017553148587833639
6906.954130714499,0.003329835011472726,0.0017567826403078923
6906.955130486715,0.0033424710580966326,0.0017573939715298948
6906.95613025893,0.0033559067423889134,0.0017572082848642634
6906.9571300311445,0.0033699292819865468,0.00175630261512221
6906.95812980336,0.003384320805543012,0.0017547699339778098
6906.959129575575,0.003398866354886461,0.0017527169535379863
6906.960129347791,0.0034133613479043604,0.0017502614929429958
6906.961129120005,0.0034276182447578168,0.001747529522689485
6906.962128892221,0.0034414722750161462,0.001744651997977008
6906.963128664436,0.003454786176042768,0.001741761577402145
6906.964128436652,0.0034674539294055526,0.0017389893082318377
6906.965128208867,0.0034794034686138602,0.001736461350542855
6906.9661279810825,0.003490598304657213,0.0017342958149951513
6906.967127753298,0.003501038016365463,0.0017325998030055857
6906.9681275255125,0.0035107575985893875,0.001731466755071266
6906.969127297728,0.00351982573236107,0.0017309742227463014
6906.970127069943,0.003528342094076709,0.0017311821749219974
6906.971126842159,0.0035364338280350015,0.0017321319240326774
6906.972126614373,0.003544251277013225,0.001733845713177282
6906.973126386589,0.0035519630290699144,0.0017363269528337271
6906.974126158804,0.003559750325194024,0.0017395610524060304
6906.97512593102,0.003567800892151743,0.0017435167645936417
6906.976125703235,0.0035763022947840443,0.0017481479425571907
6906.9771254754505,0.003585434904840569,0.001753395590083181
6906.978125247665,0.003595364557929666,0.001759190064802621
6906.9791250198805,0.003606234963268723,0.001765453289966045
6906.980124792096,0.0036181599845907146,0.0017721008525524659
6906.981124564311,0.0036312160168264235,0.001779043905960556
6906.982124336527,0.003645434799761069,0.0017861908352831773
6906.983124108741,0.003660797094806102,0.0017934486705046512
6906.984123880957,0.003677227678654508,0.0018007242482724658
6906.985123653172,0.0036945920743940938,0.0018079251311930026
6906.986123425388,0.0037126953604572142,0.0018149602962174189
6906.987123197603,0.003731283286070737,0.0018217406001194473
6906.9881229698185,0.003750045789855249,0.0018281790255287493
6906.989122742033,0.0037686228756676713,0.001834190715410582
6906.9901225142485,0.003786612651452794,0.001839692821914878
6906.991122286464,0.003803581186840118,0.001844604219389298
6906.992122058679,0.0038190737175351768,0.001848845146583668
6906.993121830895,0.003832626663372451,0.0018523368435316744
6906.994121603109,0.003843779954761846,0.0018550012415567503
6906.995121375325,0.0038520892458402426,0.0018567607591341011
6906.99612114754,0.0038571376669238188,0.0018575382540234721
6906.997120919756,0.0038585467940293362,0.001857257183104056
6906.998120691971,0.003855986504525001,0.0018558420255186158
6906.9991204641865,0.0038491833962643117,0.0018532190268983825
6907.000120236401,0.0038379275125220045,0.0018493173120621921
6907.001120008616,0.003822077234720613,0.0018440703823271497
6907.002119780832,0.00380156234630206,0.0018374179633171338
6907.003119553047,0.003776385397455645,0.0018293081123199836
6907.004119325263,0.003746621585414644,0.0018196994468316823
6907.005119097477,0.0037124173969550647,0.0018085633303555804
6907.006118869693,0.003673988243250198,0.001795885852642122
6907.007118641908,0.003631615268242733,0.00178166946775736
6907.008118414124,0.003585641450438308,0.001765934201490885
6907.009118186339,0.0035364670663729078,0.001748718403695707
6907.0101179585545,0.0034845445540634926,0.001730079083856496
6907.011117730769,0.003430372795287133,0.001710091902892801
6907.012117502984,0.0033744908126196642,0.0016888508874896625
6907.0131172752,0.003317470868522364,0.0016664679022062472
6907.014117047415,0.0032599109885804007,0.001643071889194743
6907.015116819631,0.0032024269966163814,0.0016188078758848819
6907.016116591845,0.003145644192875788,0.001593835746966636
6907.017116364061,0.0030901887938641344,0.0015683287743823268
6907.018116136276,0.003036679207572419,0.0015424719106887136
6907.019115908492,0.0029857171963596557,0.0015164598851377387
6907.020115680707,0.0029378790141022255,0.0014904951817757716
6907.0211154529225,0.002893706683035314,0.0014647859981752399
6907.022115225137,0.0028536996633956677,0.0014395442731507827
6907.023114997352,0.002818307226798248,0.0014149838434949458
6907.024114769568,0.0027879218454873824,0.0013913187584621218
6907.025114541783,0.002762873853249888,0.001368761754295003
6907.026114313998,0.0027434275412381126,0.0013475228687896614
6907.027114086213,0.002729778748341796,0.0013278081545764747
6907.028113858429,0.0027220539068208687,0.0013098184328441767
6907.029113630644,0.002720310413468494,0.0012937480222153465
6907.03011340286,0.002724538112127942,0.0012797833759865466
6907.031113175075,0.002734661598651593,0.001268101555904131
6907.03211294729,0.0027505430155391063,0.0012588684656495383
6907.033112719505,0.002771985022912986,0.0012522367770016725
6907.03411249172,0.0027987337271516356,0.0012483435123235964
6907.035112263936,0.002830481482641539,0.0012473072901824339
6907.036112036151,0.0028668695911056898,0.0012492252876347295
6907.037111808366,0.0029074909666682684,0.0012541700206653947
6907.038111580581,0.002951892827848942,0.001262186090206389
6907.039111352797,0.002999579468236501,0.0012732870766647524
6907.040111125012,0.0030500151841163572,0.0012874527827335207
6907.041110897228,0.003102627502524302,0.0013046270195959428
6907.042110669443,0.003156810925715173,0.0013247161078079948
6907.0431104416575,0.0032119314453143825,0.0013475882256012899
6907.044110213873,0.0032673320575427505,0.0013730736884266105
6907.045109986088,0.003322339438066879,0.0014009661903107054
6907.046109758304,0.0033762718374545,0.0014310249899539176
6907.047109530519,0.0034284481555503683,0.0014629779902250453
6907.048109302734,0.003478198049279737,0.0014965256359213335
6907.049109074949,0.003524872821212566,0.0015313455327005325
6907.050108847165,0.003567856728130502,0.0015670976684630507
6907.05110861938,0.0036065782531041566,0.001603430102453393
6907.052108391596,0.0036405208283858312,0.0016399849766947194
6907.053108163811,0.003669232508891693,0.001676404691704795
6907.0541079360255,0.0036923341817581396,0.0017123380728181728
6907.055107708241,0.0037095260244023034,0.0017474463464216747
6907.056107480456,0.00372059204185683,0.0017814087589192774
6907.057107252672,0.003725402588994018,0.0018139277044159098
6907.058107024887,0.0037239148194049337,0.0018447332665400837
6907.059106797102,0.003716171043632607,0.0018735871099563176
6907.060106569317,0.003702295071585491,0.0019002856715054732
6907.061106341533,0.0036824867632033543,0.0019246626035016726
6907.062106113748,0.0036570151762818537,0.0019465904211756675
6907.063105885964,0.003626210822424986,0.001965981317245181
6907.064105658179,0.00359045758114703,0.0019827871466383995
6907.0651054303935,0.003550184776441056,0.0019969986526378954
6907.066105202609,0.003505859821749805,0.0020086440722356744
6907.067104974824,0.0034579817223550037,0.0020177872873974882
6907.06810474704,0.003407075599926867,0.0020245256666919487
6907.069104519255,0.003353688269276201,0.0020289876814151555
6907.07010429147,0.003298384753616702,0.002031330309912075
6907.071104063685,0.0032417454848117032,0.002031736192446679
6907.072103835901,0.0031843638272404185,0.0020304104825055705
6907.073103608116,0.003126843526414462,0.00202757735275997
6907.074103380332,0.003069795737330948,0.002023476136957174
6907.075103152547,0.003013835406353489,0.0020183571131301
6907.0761029247615,0.002959576898174601,0.002012476961852955
6907.077102696977,0.002907628820562968,0.0020060939662954747
6907.078102469192,0.0028585880060550944,0.0019994630507399348
6907.079102241408,0.002813032618751213,0.001992830775670202
6907.080102013623,0.00277151442562602,0.001986430419530355
6907.081101785838,0.002734550410972937,0.0019804772771106613
6907.082101558053,0.002702614066464671,0.0019751642907267822
6907.083101330269,0.002676126794820782,0.0019706581078453456
6907.084101102484,0.0026554498971411338,0.001967095638666629
6907.0851008747,0.002640877586271352,0.0019645811823485702
6907.086100646915,0.00263263140299093,0.0019631842052800163
6907.0871004191295,0.002630856318710307,0.001962937875000484
6907.088100191345,0.0026356186922099445,0.0019638384548078544
6907.08909996356,0.002646906118186942,0.0019658456342131207
6907.090099735776,0.002664629072873456,0.001968883818754077
6907.09109950799,0.002688624132305598,0.0019728443507338825
6907.092099280206,0.00271865842132481,0.001977588595742837
6907.093099052421,0.0027544348723006155,0.0019829518076526233
6907.094098824637,0.0027955978660145495,0.0019887476655505647
6907.095098596852,0.002841738904196334,0.0019947733531193606
6907.096098369068,0.0028924020882350313,0.002000815031777136
6907.097098141283,0.0029470892914794096,0.002006653558085335
6907.098097913497,0.003005264988035154,0.0020120703178195427
6907.099097685713,0.00306636076838983,0.002016853078806205
6907.100097457928,0.003129779662189437,0.002020801779198004
6907.101097230144,0.003194900486388637,0.002023734153174243
6907.102097002358,0.003261082505224612,0.0020254910561945004
6907.103096774574,0.003327670707985009,0.0020259413098811406
6907.104096546789,0.0033940019829547057,0.0020249858678842566
6907.105096319005,0.003459412395669927,0.002022561114822326
6907.10609609122,0.003523245672306033,0.002018641142368458
6907.107095863436,0.00358486285916077,0.0020132388971616623
6907.10809563565,0.003643652995595495,0.0020064061641366948
6907.109095407865,0.0036990445094793154,0.001998232423799233
6907.110095180081,0.0037505169172543994,0.001988842684288351
6907.111094952296,0.003797612286747098,0.001978394427774229
6907.112094724512,0.0038399458289266396,0.0019670738251586157
6907.113094496726,0.003877214974943879,0.0019550913685757792
6907.114094268942,0.003909206396976827,0.001942677054879252
6907.115094041157,0.00393580061832239,0.0019300752302503755
6907.116093813373,0.00395697405035522,0.0019175391799726754
6907.117093585588,0.003972798415575638,0.001905325524403553
6907.118093357803,0.003983437561691839,0.0018936884704143762
6907.119093130018,0.0039891417097650175,0.0018828739715479694
6907.120092902233,0.003990239277486068,0.001873113867479215
6907.121092674449,0.0039871265814161345,0.0018646200969241558
6907.122092446664,0.003980255899636532,0.001857579098819936
6907.12309221888,0.003970122506229942,0.0018521465256593978
6907.124091991094,0.003957251332354791,0.0018484423879242548
6907.12509176331,0.003942183865356938,0.0018465467409146074
6907.126091535525,0.003925465792748816,0.00184649603420124
6907.127091307741,0.00390763576197681,0.0018482802746648114
6907.128091079956,0.003889215487347339,0.001851841186091749
6907.129090852171,0.0038707013101362954,0.0018570715543305184
6907.130090624386,0.0038525572069959785,0.0018638159186910677
6907.131090396601,0.0038352091410053927,0.0018718727179856144
6907.132090168817,0.0038190405736217847,0.0018809979365927776
6907.133089941032,0.0038043889358361383,0.0018909102308103623
6907.134089713248,0.003791542906359483,0.0019012974532342148
6907.135089485462,0.0037807404283483398,0.0019118244347257375
6907.136089257678,0.0037721674467639,0.0019221418315756383
6907.137089029893,0.003765957324098775,0.0019318958036477483
6907.1380888021085,0.0037621908187660596,0.0019407382574185004
6907.139088574324,0.003760896463049307,0.0019483373557504556
6907.140088346539,0.0037620512179843534,0.001954387953984183
6907.141088118754,0.0037655814125012246,0.0019586215787184337
6907.142087890969,0.003771364135726341,0.001960815548281573
6907.143087663185,0.0037792293650226964,0.0019608008590230137
6907.1440874354,0.0037889631280506302,0.0019584685205126804
6907.145087207616,0.0038003119212555304,0.001953774099522887
6907.14608697983,0.0038129884824289026,0.0019467403179770162
6907.147086752046,0.003826678882040098,0.0019374576334958607
6907.148086524261,0.003841050776914083,0.0019260828030833236
6907.1490862964765,0.0038557625623081523,0.0019128354947958314
6907.150086068692,0.003870473061114619,0.001897993079946831
6907.151085840907,0.003884851309065523,0.0018818838071896532
6907.152085613122,0.003898585954068429,0.001864878611829565
6907.153085385337,0.003911393807263344,0.0018473818365804598
6907.154085157553,0.003923027165099353,0.0018298211409457255
6907.155084929768,0.003933279641230112,0.0018126368694292789
6907.156084701983,0.003941990359054127,0.0017962711370442558
6907.157084474198,0.003949046418234813,0.0017811568704639254
6907.158084246414,0.003954383562444814,0.0017677070180139177
6907.159084018629,0.003957984998182838,0.001756304122200173
6907.1600837908445,0.003959878410829343,0.0017472904417124542
6907.16108356306,0.003960131398730829,0.0017409588136940316
6907.162083335275,0.003958845730002001,0.0017375444552663725
6907.16308310749,0.0039561509309592345,0.0017372179126134485
6907.164082879705,0.003952197699212844,0.001740079373307535
6907.165082651921,0.0039471515330078335,0.0017461545522331106
6907.166082424136,0.003941186856209912,0.0017553923306028996
6907.167082196351,0.0039344818449269965,0.0017676642712197922
6907.168081968566,0.003927214118689186,0.0017827660633590481
6907.169081740782,0.00391955741013516,0.0018004208764268255
6907.170081512997,0.003911679251461821,0.001820284526361529
6907.1710812852125,0.0039037396147701196,0.0018419522911681345
6907.172081057428,0.00389589033352847,0.0018649671649964364
6907.1730808296425,0.0038882750463718786,0.001888829317252638
6907.174080601858,0.0038810293742386655,0.0019130065137937205
6907.175080374073,0.003874281066744468,0.001936945246690525
6907.176080146289,0.0038681498966608697,0.0019600823007595064
6907.177079918504,0.003862747106973609,0.001981856469153456
6907.178079690719,0.0038581742306450883,0.0020017201384564965
6907.179079462934,0.003854521154869537,0.0020191505047219382
6907.18007923515,0.003851863424426903,0.0020336602378079474
6907.181079007365,0.0038502589554549466,0.0020448074565448606
6907.1820787795805,0.0038497444979683363,0.00205220490093841
6907.183078551796,0.003850332277157842,0.002055528192141078
6907.18407832401,0.0038520072362062665,0.0020545230603631285
6907.185078096226,0.0038547252201987232,0.002049011401923427
6907.186077868441,0.0038584123196605193,0.0020388960155165573
6907.187077640657,0.0038629654620725884,0.002024163882118796
6907.188077412872,0.0038682542236591357,0.0020048878912500004
6907.189077185087,0.003874123751153335,0.0019812269559692
6907.190076957302,0.0038803986348268722,0.0019534244820642753
6907.191076729518,0.0038868875411138815,0.0019218051714250915
6907.192076501733,0.00389338838545612,0.0018867701691635758
6907.1930762739485,0.0038996938200901417,0.001848790618313973
6907.194076046164,0.003905596841447874,0.0018083997503999252
6907.195075818378,0.003910896360111505,0.0017661836963057597
6907.196075590594,0.003915402573310855,0.0017227712424789726
6907.197075362809,0.003918941922329994,0.0016788227803712138
6907.198075135025,0.003921361347079462,0.0016350187023078605
6907.19907490724,0.0039225315318275255,0.0015920474917745368
6907.200074679455,0.0039223489088207495,0.0015505937507141357
6907.20107445167,0.003920736338769703,0.001511326405444764
6907.202074223886,0.003917642568404875,0.0014748873314548968
6907.203073996101,0.003913040715852062,0.0014418806253252386
6907.204073768316,0.003906926112695029,0.0014128627241367989
6907.205073540532,0.0038993138358637144,0.0013883335354541303
6907.206073312746,0.0038902362270178004,0.0013687287053701259
6907.207073084962,0.0038797406481015165,0.0013544131230005397
6907.208072857177,0.003867887651797406,0.0013456757357991566
6907.209072629393,0.0038547496454634953,0.0013427257277874077
6907.210072401608,0.0038404100206013998,0.0013456900873792374
6907.211072173823,0.003824962645688201,0.0013546125598711534
6907.212071946038,0.0038085115920832636,0.0013694539453281236
6907.213071718254,0.0037911709648338074,0.0013900936719953355
6907.214071490469,0.003773064726029338,0.001416332553396803
6907.215071262684,0.003754326424244813,0.0014478966270038364
6907.2160710349,0.0037350987672012397,0.001484441971549817
6907.217070807114,0.003715532968462543,0.0015255604013590172
6907.21807057933,0.0036957877592274303,0.00157078593709023
6907.219070351545,0.0036760279228493036,0.0016196019575168182
6907.220070123761,0.0036564222237521664,0.0016714489450138342
6907.221069895975,0.0036371406731601883,0.0017257327377539515
6907.222069668191,0.003618351191708751,0.0017818331872990019
6907.223069440406,0.0036002158671654557,0.0018391130956362744
6907.2240692126215,0.003582887110122139,0.0018969272792960503
6907.225068984837,0.0035665040329947387,0.0019546315859900573
6907.226068757052,0.003551189324942166,0.002011591678127573
6907.227068529268,0.0035370468168072415,0.0020671914056531494
6907.228068301482,0.003524159856758723,0.002120840615978034
6907.229068073698,0.003512590540000898,0.0021719822768724436
6907.230067845913,0.0035023797421516486,0.0022200988087002524
6907.231067618129,0.0034935478103744456,0.0022647175426123356
6907.232067390343,0.0034860957035533135,0.0023054152568282205
6907.233067162559,0.0034800063709950666,0.0023418217952382203
6907.234066934774,0.003475246212755161,0.0023736228193299304
6907.2350667069895,0.0034717665266628672,0.002400561757940416
6907.236066479205,0.003469504865650968,0.002422440991581592
6907.23706625142,0.003468386197609301,0.002439122260364436
6907.238066023635,0.0034683237237915616,0.002450526254316167
6907.23906579585,0.0034692192271909665,0.0024566313619636764
6907.240065568066,0.003470962912035855,0.0024574716175346147
6907.241065340281,0.003473432832933502,0.0024531339619411024
6907.242065112497,0.0034764941418214653,0.002443754967566776
6907.243064884711,0.00347999845674066,0.0024295171546561507
6907.244064656927,0.0034837836650707197,0.002410644982381546
6907.245064429142,0.003487674430608012,0.00238740057827028
6907.2460642013575,0.0034914836055664855,0.002360079286121057
6907.247063973573,0.00349501467680169,0.0023290051349767553
6907.248063745788,0.0034980653068929298,0.0022945263301069074
6907.249063518003,0.0035004319587994687,0.0022570108416123517
6907.250063290218,0.0035019155080709195,0.0022168421388665247
6907.251063062434,0.0035023276479877866,0.0021744151068056627
6907.252062834649,0.003501497800101881,0.002130132186223165
6907.253062606865,0.003499280190998155,0.002084399797914542
6907.254062379079,0.00349556076319196,0.0020376251265991656
6907.255062151295,0.003490263626747222,0.0019902133400775883
6907.25606192351,0.003483356778293063,0.0019425652909574307
6907.2570616957255,0.0034748567907534876,0.0018950756882769656
6907.258061467941,0.0034648321377280917,0.0018481316427161076
6907.259061240156,0.0034534048234918877,0.001802111407054806
6907.260061012371,0.0034407500891550816,0.0017573830851328497
6907.261060784586,0.0034270941464880716,0.0017143030872875714
6907.262060556802,0.003412710089760433,0.0016732141675596549
6907.263060329017,0.0033979122762704426,0.0016344429720375894
6907.264060101233,0.0033830495055537763,0.001598297132122961
6907.265059873447,0.003368497284696283,0.0015650620222185504
6907.266059645663,0.0033546494034937275,0.0015349973515359227
6907.267059417878,0.0033419090081528474,0.0015083337777026334
6907.2680591900935,0.0033306793668586515,0.0014852697303303726
6907.269058962309,0.0033213545491066875,0.0014659686249644584
6907.270058734524,0.0033143102683538565,0.0014505566288866027
6907.271058506739,0.0033098951412959313,0.0014391211037807527
6907.272058278954,0.003308422589241234,0.00143170979683991
6907.27305805117,0.0033101635633593692,0.0014283307892992087
6907.274057823385,0.0033153402414196494,0.0014289531505104346
6907.275057595601,0.00332412082567885,0.0014335081968756627
6907.276057367815,0.0033366155492736606,0.0014418912251740487
6907.277057140031,0.0033528739489459792,0.0014539635811710884
6907.278056912246,0.0033728833879525205,0.0014695549346734303
6907.2790566844615,0.003396568743705651,0.001488465657544048
6907.280056456677,0.0034237931422705778,0.0015104692398393484
6907.281056228892,0.0034543596376710884,0.0015353147296700944
6907.282056001107,0.0034880137835538064,0.001562729234826772
6907.283055773322,0.0035244471010423754,0.0015924205595094132
6907.284055545538,0.0035633014841427984,0.0016240800553697216
6907.285055317753,0.0036041745860783494,0.0016573857499707517
6907.286055089968,0.0036466261961755776,0.0016920057917881454
6907.287054862183,0.003690185569147293,0.0017276022195720907
6907.288054634399,0.0037343596338709913,0.0017638350181529694
6907.289054406614,0.0037786419871838734,0.0018003663699027058
6907.290054178829,0.003822522539154519,0.001836864974707114
6907.291053951045,0.0038654975977383487,0.0018730103093672695
6907.29205372326,0.003907080083392538,0.001908496724776301
6907.293053495475,0.003946809498026477,0.0019430373131132397
6907.29405326769,0.003984261275353769,0.0019763674968081343
6907.295053039906,0.00401905520364958,0.0020082482921000345
6907.296052812121,0.004050862682182891,0.002038469189649552
6907.297052584336,0.004079412593631562,0.0020668505770821133
6907.298052356551,0.004104495549834769,0.0020932456078336797
6907.299052128767,0.004125966257983824,0.0021175414128967633
6907.300051900982,0.004143743816733557,0.0021396595737048414
6907.301051673197,0.004157809898306129,0.0021595558192219456
6907.302051445413,0.004168204971618193,0.0021772189514926775
6907.303051217627,0.004175022914063437,0.0021926690271233053
6907.304050989843,0.004178404480821405,0.0022059548449542576
6907.305050762058,0.0041785301206074404,0.0022171508362781875
6907.306050534274,0.004175612578924555,0.0022263535142876484
6907.307050306489,0.004169889672783988,0.002233677676980113
6907.308050078704,0.004161617573581987,0.0022392525502804425
6907.309049850919,0.004151064869307079,0.002243218018103289
6907.310049623135,0.0041385075655869215,0.0022457210402613914
6907.31104939535,0.004124225035247564,0.002246912324681345
6907.312049167565,0.0041084967809658516,0.002246943298897355
6907.313048939781,0.004091599786769373,0.002245963409258916
6907.314048711995,0.004073806226298196,0.0022441177574499854
6907.315048484211,0.004055381348794767,0.0022415450638231774
6907.316048256426,0.004036581426614256,0.0022383759305651236
6907.317048028642,0.00401765167392673,0.0022347313645490214
6907.318047800857,0.00399882403036205,0.0022307215108809423
6907.319047573072,0.0039803146928913905,0.002226444555684028
6907.320047345287,0.00396232133464414,0.002221985787899049
6907.321047117503,0.003945020083290962,0.002217416846845805
6907.322046889718,0.003928562491759969,0.0022127951991396887
6907.323046661933,0.0039130728475340205,0.0022081638837101107
6907.324046434149,0.0038986461910052415,0.0022035515536980178
6907.325046206363,0.003885347351545744,0.002198972834294131
6907.326045978579,0.003873211197960851,0.0021944289984055583
6907.327045750794,0.00386224417790406,0.0021899089366566697
6907.32804552301,0.00385242710995891,0.0021853903746990727
6907.329045295225,0.0038437190957959187,0.002180841277730042
6907.33004506744,0.0038360623337616506,0.0021762213791874326
6907.331044839655,0.003829387534599453,0.0021714837675911153
6907.332044611871,0.003823619574472869,0.002166576450152511
6907.333044384086,0.003818683002345615,0.0021614437896749954
6907.334044156301,0.0038145070708380945,0.0021560277115188083
6907.335043928517,0.0038110300535686183,0.002150268624864045
6907.336043700731,0.003808202683627245,0.0021441060883822787
6907.337043472947,0.003805990559261046,0.0021374793375566413
6907.338043245162,0.0038043753392385414,0.0021303278452283955
6907.339043017378,0.0038033545589344028,0.0021225920988302057
6907.340042789593,0.003802939990608339,0.0021142147543614436
6907.341042561808,0.00380315464088918,0.002105142276257383
6907.342042334023,0.0038040286697464264,0.002095327100187751
6907.343042106239,0.0038055946630624867,0.0020847302711916485
6907.344041878454,0.003807882747624847,0.00207332442201614
6907.345041650669,0.0038109159914396927,0.0020610968760496153
6907.346041422885,0.0038147064186780993,0.002048052599817077
6907.347041195099,0.003819251846297046,0.002034216710401025
6907.348040967315,0.0038245336591825395,0.002019636278786801
6907.34904073953,0.003830515584212264,0.0020043812563480764
6907.350040511746,0.0038371434752911466,0.0019885444555343508
6907.35104028396,0.0038443460579914066,0.001972240597296552
6907.352040056176,0.003852036507454133,0.001955604482136821
6907.353039828391,0.003860114673920525,0.0019387883624900908
6907.354039600607,0.0038684697535017365,0.001921958611530087
6907.355039372822,0.003876983228464329,0.0019052918097309244
6907.356039145037,0.0038855319344685475,0.0018889704069245006
6907.357038917253,0.0038939911022707187,0.0018731781541824575
6907.358038689467,0.0039022371610686122,0.0018580955206892852
6907.359038461683,0.003910150035983624,0.001843895301586208
6907.360038233898,0.003917614695486521,0.0018307385771314333
6907.361038006114,0.003924521829686485,0.0018187711100450725
6907.362037778328,0.003930767725299499,0.0018081201919483143
6907.363037550544,0.003936253575235437,0.001798891902602729
6907.364037322759,0.003940884563429694,0.0017911687443207425
6907.365037094975,0.003944569081085692,0.001785007645872895
6907.36603686719,0.003947218374928867,0.001780438361849642
6907.367036639405,0.003948746832027264,0.0017774623016229877
6907.36803641162,0.003949072995529312,0.0017760518140961872
6907.369036183835,0.003948121294029762,0.0017761499530936293
6907.370035956051,0.003945824359338203,0.001777670762027861
6907.371035728266,0.003942125713578144,0.0017805001300935164
6907.372035500482,0.003936982547041839,0.0017844972653702428
6907.373035272696,0.003930368304902783,0.0017894968001053938
6907.374035044912,0.003922274858117508,0.0017953115058897396
6907.375034817127,0.0039127141227339735,0.0018017355682162738
6907.376034589342,0.00390171906153729,0.0018085483542970074
6907.377034361558,0.003889344018618169,0.001815518597453524
6907.378034133773,0.0038756643158327233,0.0018224089107890143
6907.379033905988,0.0038607750321606182,0.0018289805351088867
6907.380033678203,0.0038447889345712633,0.0018349982258849826
6907.381033450419,0.003827833632172925,0.0018402351901530439
6907.382033222634,0.0038100481508424695,0.0018444779854551424
6907.38303299485,0.0037915792283869433,0.001847531275070754
6907.384032767064,0.003772577672123059,0.001849222295997885
6907.38503253928,0.0037531950894493103,0.0018494048554424213
6907.386032311495,0.003733581217548259,0.001847962650709424
6907.38703208371,0.0037138819741751763,0.0018448117249106328
6907.388031855926,0.003694238256385868,0.0018399019309271898
6907.389031628141,0.0036747854433505536,0.001833217357552662
6907.390031400356,0.003655653505247164,0.0018247757436233572
6907.391031172571,0.0036369675621449314,0.0018146269583652948
6907.392030944787,0.003618848671726541,0.001802850668661114
6907.393030717002,0.0036014145721812323,0.001789553345667467
6907.394030489218,0.003584780089710185,0.0017748647702670285
6907.395030261432,0.0035690569524195583,0.001758934178209057
6907.396030033648,0.003554352824807714,0.0017419261591047903
6907.397029805863,0.0035407694583402347,0.0017240164037768523
6907.398029578078,0.0035283999273168143,0.0017053873861552853
6907.399029350294,0.0035173250047783214,0.0016862240726017406
6907.400029122509,0.0035076088515635967,0.0016667097744057582
6907.401028894724,0.0034992943284740626,0.001647022285706144
6907.402028666939,0.0034923983523603027,0.001627330457948114
6907.403028439155,0.0034869077603350606,0.0016077913420513828
6907.40402821137,0.0034827761145242563,0.001588547989120452
6907.405027983586,0.003479921797798365,0.0015697279560882354
6907.4060277558,0.003478227646356316,0.0015514425212432574
6907.407027528016,0.003477542248855924,0.001533786574532444
6907.408027300231,0.0034776829159476417,0.0015168391104888506
6907.409027072446,0.003478440193953071,0.001500664223294749
6907.410026844662,0.0034795836742919656,0.0014853124866348298
6907.411026616877,0.0034808687526515737,0.001470822594606396
6907.412026389092,0.0034820439379769468,0.0014572231403442643
6907.413026161307,0.0034828583207403294,0.0014445344115168156
6907.414025933523,0.003483068882331531,0.0014327700876407864
6907.415025705738,0.003482447417435623,0.0014219387416952987
6907.416025477954,0.0034807868848417433,0.0014120450831451128
6907.417025250168,0.0034779069830224237,0.0014030909252441919
6907.418025022384,0.0034736587117602086,0.0013950759010575228
6907.419024794599,0.0034679276881116384,0.0013879979734383301
6907.420024566814,0.0034606360611713505,0.0013818537789028037
6907.42102433903,0.003451743003723978,0.0013766388277860154
6907.422024111245,0.00344124390271725,0.001372347574371688
6907.42302388346,0.0034291684688100925,0.0013689733763389586
6907.424023655675,0.003415578020673889,0.0013665083691164
6907.425023427891,0.0034005622020875747,0.0013649432750449924
6907.426023200106,0.0033842353933915136,0.0013642671517185207
6907.427022972321,0.003366733086822791,0.0013644670686817168
6907.428022744536,0.003348208485927222,0.001365527697265544
6907.429022516752,0.0033288295408410054,0.0013674308098804715
6907.430022288967,0.0033087765410022125,0.0013701547039112634
6907.431022061182,0.003288240273276678,0.0013736735751496661
6907.432021833398,0.0032674206443651954,0.0013779568638865908
6907.433021605612,0.0032465255912390426,0.0013829685968675257
6907.434021377828,0.0032257700852421664,0.0013886667594786468
6907.435021150043,0.0032053750660556643,0.0013950027495730772
6907.436020922259,0.003185566175734252,0.0014019209742154042
6907.437020694474,0.003166572163898709,0.0014093586411446939
6907.438020466689,0.0031486228189906507,0.0014172457680007085
6907.439020238904,0.0031319462981802128,0.0014255054029072157
6907.44002001112,0.0031167658102508352,0.001434054040481393
6907.441019783335,0.0031032957340603284,0.0014428022262138857
6907.44201955555,0.0030917373835525003,0.0014516553498088798
6907.443019327766,0.0030822747127345297,0.0014605146247436596
6907.44401909998,0.00307507026572276,0.0014692782445982285
6907.445018872196,0.003070261628809822,0.0014778427003078324
6907.446018644411,0.0030679585710878627,0.0014861042307690146
6907.447018416627,0.003068240996268321,0.0014939603670245222
6907.448018188842,0.0030711577717087634,0.0015013115327722063
6907.449017961057,0.003076726439579234,0.0015080626798340093
6907.450017733272,0.0030849337428559124,0.0015141249425689716
6907.451017505488,0.0030957368208030054,0.00151941727401604
6907.452017277703,0.0031090648698046926,0.0015238679955419333
6907.453017049918,0.0031248210574071665,0.0015274161839713694
6907.454016822134,0.0031428845226961033,0.0015300128472406096
6907.455016594348,0.0031631123618795155,0.0015316218823786087
6907.456016366564,0.003185341550207661,0.0015322208448061575
6907.457016138779,0.003209390778152769,0.0015318015780030228
6907.458015910995,0.0032350621862486362,0.0015303707576901425
6907.45901568321,0.003262142981677477,0.0015279503920745557
6907.460015455425,0.003290406924056112,0.0015245782887092132
6907.46101522764,0.0033196156881413644,0.0015203084596830444
6907.462014999856,0.003349520149791433,0.0015152114100223902
6907.463014772071,0.003379861688125292,0.0015093742536012986
6907.464014544286,0.0034103736357636093,0.0015029006209446387
6907.465014316502,0.003440783030841853,0.0014959103433036785
6907.466014088716,0.003470812819270619,0.0014885389040769112
6907.467013860932,0.003500184611717665,0.001480936648528962
6907.468013633147,0.003528622024906735,0.0014732677451519112
6907.469013405363,0.003555854559459708,0.0014657088907639921
6907.470013177578,0.0035816219014005047,0.001458447736945481
6907.471012949793,0.003605678472697656,0.0014516809966575739
6907.472012722008,0.0036277979995885607,0.0014456121879022534
6907.473012494223,0.0036477778451442866,0.0014404489917260116
6907.474012266439,0.003665442888452208,0.0014364002277594897
6907.475012038654,0.003680648810302187,0.0014336724658107192
6907.47601181087,0.003693284713803625,0.001432466301736228
6907.477011583084,0.00370327502338568,0.0014329723444474402
6907.4780113553,0.003710580568048674,0.0014353669897783198
6907.479011127515,0.003715198714624448,0.0014398080842987176
6907.480010899731,0.00371716243539994,0.0014464306018417913
6907.481010671946,0.0037165382956612226,0.0014553424731308423
6907.482010444161,0.0037134234950893146,0.0014666207283941307
6907.483010216376,0.0037079422247764775,0.0014803081241845913
6907.484009988591,0.0037002416643137272,0.001496410411716214
6907.485009760807,0.003690487941444071,0.001514894360730579
6907.486009533022,0.003678862330201133,0.0015356865967710498
6907.487009305238,0.0036655578880574963,0.0015586732647966221
6907.488009077452,0.0036507766395614937,0.0015837005105562487
6907.489008849668,0.0036347273135599345,0.001610575766055672
6907.490008621883,0.003617623544405511,0.0016390698224180032
6907.491008394099,0.003599682367165914,0.0016689196666797579
6907.492008166313,0.003581122786226478,0.0016998320504987548
6907.4930079385285,0.0035621641903320123,0.0017314877502134518
6907.494007710744,0.003543024433290267,0.001763546471200433
6907.495007482959,0.0035239174817344094,0.0017956523450380808
6907.496007255175,0.003505050606279347,0.0018274399575346767
6907.49700702739,0.0034866211232246207,0.0018585408196994603
6907.498006799605,0.0034688126909862547,0.0018885901535756753
6907.49900657182,0.0034517911852628455,0.0019172338197674798
6907.500006344036,0.0034357002643614575,0.0019441351705454823
6907.501006116251,0.0034206568707818097,0.0019689815777572863
6907.502005888467,0.003406747031884666,0.0019914903695973114
6907.503005660681,0.0033940223731365247,0.0020114139283510728
6907.5040054328965,0.003382497736087414,0.002028543758348078
6907.505005205112,0.003372150216774916,0.002042713417683106
6907.506004977327,0.003362919826135239,0.002053800291772765
6907.507004749543,0.0033547118367826248,0.00206172624512052
6907.508004521758,0.003347400741181022,0.0020664572102263626
6907.509004293973,0.0033408356317769445,0.00206800177146231
6907.510004066188,0.003334846734879965,0.0020664087998176514
6907.511003838404,0.0033292527687527208,0.0020617642091259104
6907.512003610619,0.0033238687339471763,0.00205418694061608
6907.5130033828345,0.0033185136975137936,0.002043824331897558
6907.514003155049,0.0033130181400596063,0.0020308470703815137
6907.5150029272645,0.0033072305031781085,0.0020154439544513097
6907.51600269948,0.003301022666032699,0.001997816685051724
6907.517002471695,0.0032942941500146,0.00197817488911954
6907.518002243911,0.0032869748940255183,0.001956731542460848
6907.519002016126,0.0032790264910067435,0.0019336989284456467
6907.520001788341,0.0032704418590604276,0.0019092852504293887
6907.521001560556,0.003261243438308693,0.001883691998428383
6907.522001332772,0.003251480130240763,0.0018571121304835003
6907.523001104987,0.003241223298454277,0.0018297290594363554
6907.5240008772025,0.003230562210594543,0.001801716355733711
6907.525000649417,0.003219599314245173,0.0017732380154699713
6907.5260004216325,0.003208445705825817,0.0017444491196556024
6907.527000193848,0.003197217084488693,0.0017154967244783822
6907.527999966063,0.0031860303996086316,0.001686520855331824
6907.528999738279,0.0031750013065466754,0.0016576555116864801
6907.529999510494,0.003164242440635524,0.0016290296170638307
6907.530999282709,0.003153862417024623,0.0016007678677815217
6907.531999054924,0.003143965393823158,0.0015729914502786329
6907.53299882714,0.0031346510179533385,0.001545818615834175
6907.533998599355,0.0031260145937384407,0.0015193651260099557
6907.5349983715705,0.003118147342919217,0.0014937446080687106
6907.535998143785,0.0031111366443283424,0.0014690688744852123
6907.5369979160005,0.003105066144997267,0.0014454482518898755
6907.537997688216,0.0031000156177543375,0.0014229919362204616
6907.538997460431,0.003096060420720235,0.0014018083626616347
6907.539997232647,0.0030932704308192422,0.001382005566297439
6907.540997004862,0.003091708401297363,0.001363691508480964
6907.541996777077,0.003091427820469902,0.0013469743407310893
6907.542996549292,0.0030924704871156277,0.0013319625668679978
6907.543996321508,0.0030948641203906004,0.0013187650549295207
6907.544996093723,0.0030986203551304084,0.0013074908557415708
6907.5459958659385,0.0031037334337695893,0.001298248803549964
6907.546995638153,0.003110179817941413,0.0012911468920095307
6907.5479954103685,0.003117918835309172,0.0012862914258846866
6907.548995182584,0.003126894362689503,0.0012837859464424214
6907.549994954799,0.0031370374228272394,0.0012837299216509313
6907.550994727015,0.0031482694470025686,0.0012862171842651432
6907.55199449923,0.0031605058567380157,0.0012913341007988266
6907.552994271445,0.0031736595762649963,0.0012991574758709718
6907.55399404366,0.0031876441182986585,0.0013097522379780316
6907.554993815876,0.0032023759740236577,0.001323168991032414
6907.555993588091,0.003217776137328962,0.0013394415287527185
6907.556993360306,0.0032337706607573234,0.0013585843944678307
6907.557993132521,0.0032502901795872564,0.0013805905400075243
6907.558992904736,0.003267268387468429,0.001405429111157778
6907.559992676952,0.003284639528596439,0.001433043380719546
6907.560992449167,0.0033023350857483893,0.0014633488708406868
6907.561992221383,0.0033202799639633677,0.001496231741756883
6907.562991993597,0.0033383885566694383,0.0015315475508338354
6907.563991765813,0.003356561107178043,0.0015691204898060295
6907.564991538028,0.003374680746987038,0.0016087431932887211
6907.565991310244,0.0033926115275703106,0.0016501771886637557
6907.566991082459,0.0034101976853130322,0.001693154032186019
6907.567990854674,0.0034272642958936986,0.0017373771515357488
6907.568990626889,0.0034436193817846336,0.0017825243952518904
6907.569990399104,0.0034590574313021136,0.0018282512763933478
6907.57099017132,0.003473364169617419,0.0018741948886077287
6907.571989943535,0.0034863223027851195,0.0019199784648503708
6907.572989715751,0.0034977178674114044,0.0019652165398426147
6907.573989487965,0.00350734679942794,0.0020095206587542173
6907.574989260181,0.003515021387922041,0.0020525055350955976
6907.575989032396,0.003520576350761037,0.002093795497184892
6907.576988804612,0.003523874297367475,0.0021330309865214667
6907.577988576827,0.0035248103317692386,0.002169874808497165
6907.5789883490415,0.0035233155568172654,0.0022040178174972157
6907.579988121257,0.003519359319155526,0.002235183763097824
6907.580987893472,0.003512950176958758,0.002263133117010164
6907.581987665688,0.0035041357274839782,0.002287665797421563
6907.582987437903,0.003493001545438577,0.0023086227716677633
6907.583987210119,0.003479669528422037,0.002325886554134505
6907.584986982333,0.003464295924364905,0.0023393806569507953
6907.585986754549,0.0034470692476053035,0.0023490681151895065
6907.586986526764,0.0034282081990742157,0.0023549492808805418
6907.58798629898,0.003407959613160594,0.0023570591314873933
6907.588986071195,0.0033865963770047356,0.0023554643511894302
6907.5899858434095,0.003364415219666827,0.002350260418655531
6907.590985615625,0.003341734245394121,0.0023415688845328155
6907.59198538784,0.0033188900739510247,0.0023295349609372008
6907.592985160056,0.003296234457370429,0.002314325487151709
6907.593984932271,0.0032741302859861264,0.002296127284288137
6907.594984704487,0.003252946965654361,0.0022751458617289023
6907.595984476701,0.0032330551970315745,0.002251604385315181
6907.596984248917,0.0032148211913150832,0.0022257427667827247
6907.597984021132,0.0031986003388897333,0.002197816701936341
6907.598983793348,0.003184730355723917,0.002168096486846334
6907.599983565563,0.003173524005771532,0.0021368654790970905
6907.6009833377775,0.003165261638143721,0.002104418137788073
6907.601983109993,0.003160183931049634,0.002071057662814171
6907.602982882208,0.003158485318069294,0.002037093343223661
6907.603982654424,0.0031603085445616437,0.0020028377865030397
6907.604982426639,0.0031657406903143714,0.00196860421124754
6907.605982198855,0.003174810857682377,0.0019347039437088345
6907.606981971069,0.003187489605208713,0.0019014441854117508
6907.607981743285,0.00320369011269651,0.0018691260438261405
6907.6089815155,0.003223270978103256,0.0018380427625510828
6907.609981287716,0.003246040459588196,0.0018084780582453101
6907.610981059931,0.0032717619029863543,0.00178070446613479
6907.6119808321455,0.003300160059892205,0.0017549816104442508
6907.612980604361,0.003330928010979546,0.0017315543442565225
6907.613980376576,0.003363734446051144,0.0017106507358147665
6907.614980148792,0.0033982310907533842,0.0016924799096847193
6907.615979921007,0.0034340600925016817,0.0016772297819419206
6907.616979693223,0.003470861175957388,0.0016650647584412603
6907.617979465437,0.0035082783498047443,0.0016561234904156797
6907.618979237653,0.003545965911002069,0.00165051679856447
6907.619979009868,0.003583593487214329,0.0016483258845948576
6907.620978782084,0.003620849908737442,0.0016496009453551613
6907.621978554298,0.003657445808501816,0.001654360282371483
6907.6229783265135,0.0036931149943489157,0.001662589957949441
6907.623978098729,0.0037276147871911367,0.0016742440033959227
6907.624977870944,0.0037607256289969994,0.0016892451560085954
6907.62597764316,0.003792250308368557,0.0017074860938843881
6907.626977415375,0.003822013132809,0.0017288311353924096
6907.62797718759,0.0038498593188832017,0.001753118354968043
6907.628976959805,0.0038756547903494192,0.0017801620384596919
6907.629976732021,0.0038992864701246216,0.0018097553772262848
6907.630976504236,0.003920663030243654,0.0018416732947097987
6907.631976276452,0.0039397159551535785,0.0018756753080757134
6907.632976048666,0.003956400716205451,0.0019115083381598134
6907.6339758208815,0.003970697860615954,0.0019489093882626627
6907.634975593097,0.003982613859736027,0.001987608019151772
6907.635975365312,0.003992181594856418,0.002027328559475751
6907.636975137528,0.003999460356737142,0.002067792013953815
6907.637974909743,0.0040045352148180575,0.0021087176676504436
6907.638974681958,0.004007515623428905,0.0021498244233729966
6907.639974454173,0.004008533203685668,0.002190831934360983
6907.640974226389,0.0040077387487672,0.0022314615982543537
6907.641973998604,0.004005298607507268,0.0022714374704899737
6907.64297377082,0.0040013906865587175,0.0023104871537075874
6907.643973543034,0.003996200366714346,0.002348342730568086
6907.644973315249,0.003989916645785718,0.0023847418170751624
6907.645973087465,0.0039827287952209625,0.0024194288045983393
6907.64697285968,0.003974823754477,0.0024521563291688897
6907.647972631896,0.003966384397462373,0.0024826869694480054
6907.648972404111,0.003957588707925473,0.0025107951415477966
6907.649972176326,0.00394860981003093,0.0025362691258592543
6907.650971948541,0.003939616717156182,0.00255891311988536
6907.651971720757,0.003930775586281732,0.0025785491745142085
6907.652971492972,0.0039222512161292186,0.0025950188730642365
6907.653971265188,0.0039142085292157335,0.002608184669562751
6907.654971037402,0.003906813820969015,0.002617930885321475
6907.655970809617,0.003900235593496739,0.0026241644212397115
6907.656970581833,0.0038946447874815865,0.0026268152586190166
6907.657970354048,0.003890214214373323,0.0026258368112246086
6907.658970126264,0.003887117029080889,0.0026212061765239275
6907.659969898479,0.003885524190613655,0.0026129243254011244
6907.660969670694,0.003885601005780132,0.002601016278884203
6907.661969442909,0.0038875029946040893,0.0025855313549735157
6907.662969215125,0.003891371419173132,0.002566543611877709
6907.66396898734,0.003897328854565224,0.0025441526280899794
6907.664968759555,0.003905475146153653,0.0025184847195900955
6907.66596853177,0.003915884015778096,0.002489694609010265
6907.666968303985,0.003928600482610968,0.0024579674587507628
6907.667968076201,0.003943639168107827,0.002423521082622695
6907.668967848416,0.003960983460650657,0.0023866080694102112
6907.669967620632,0.003980585434185235,0.0023475174954759705
6907.670967392847,0.004002366361495935,0.002306575892400249
6907.671967165062,0.004026217642606079,0.002264147189604205
6907.672966937277,0.004052001979995686,0.0022206314551141294
6907.673966709493,0.004079554673443292,0.002176462355999378
6907.674966481708,0.004108684968881319,0.0021321033130081244
6907.675966253923,0.00413917744680286,0.0020880423482636
6907.676966026138,0.004170793443385559,0.002044785671748611
6907.677965798353,0.0042032724656676694,0.0020028501423291416
6907.678965570569,0.004236333533783051,0.00196275483747347
6907.679965342784,0.004269676403127819,0.0019250120283098532
6907.680965115,0.00430298270718605,0.0018901178744438838
6907.681964887215,0.004335917203793436,0.0018585431401933075
6907.68296465943,0.0043681294505640445,0.0018307242008620455
6907.683964431645,0.004399256304144397,0.0018070545625692885
6907.6849642038605,0.004428925587771653,0.001787877073362298
6907.685963976076,0.004456761120478358,0.0017734769627892597
6907.6869637482905,0.004482389103418767,0.00176407581266912
6907.687963520506,0.0045054456576712025,0.0017598265418814288
6907.688963292721,0.0045255851299290896,0.001760809493589993
6907.689963064937,0.004542488654201664,0.0017670297350968467
6907.690962837152,0.004555872403616414,0.0017784156898577412
6907.691962609368,0.004565494999964252,0.0017948192004816961
6907.692962381582,0.0045711636671055475,0.001816017076967819
6907.693962153798,0.004572738883242938,0.0018417141278776045
6907.694961926013,0.0045701374384715275,0.0018715476082080556
6907.6959616982285,0.00456333388284607,0.0019050929515455827
6907.696961470444,0.004552360360171012,0.0019418706008724293
6907.6979612426585,0.004537304814753681,0.00198135373108404
6907.698961014874,0.00451830758471068,0.002022976670874681
6907.699960787089,0.00449555647673515,0.002066143864303279
6907.700960559305,0.004469280536588327,0.002110239239705907
6907.70196033152,0.004439742849605106,0.0021546358625446804
6907.702960103736,0.004407232792686174,0.00219870573428791
6907.70395987595,0.004372058194420865,0.002241829564543533
6907.704959648166,0.004334537836531374,0.0022834063062194014
6907.705959420381,0.0042949946540606675,0.0023228622273289735
6907.7069591925965,0.004253749882812662,0.002359659310824937
6907.707958964812,0.004211118284955466,0.0023933028222180297
6907.7089587370265,0.004167404478061354,0.002423347947320238
6907.709958509242,0.0041229003088664,0.0024494054574458204
6907.710958281457,0.004077883148626171,0.0024711463943435296
6907.711958053673,0.0040326149416237776,0.0024883057838337667
6907.712957825888,0.003987341820785905,0.0025006853926679397
6907.713957598104,0.00394229411440427,0.002508155543503695
6907.714957370318,0.0038976865848573904,0.002510656001381763
6907.715957142534,0.0038537187429810212,0.002508195941257708
6907.716956914749,0.0038105750740502135,0.002500853002242154
6907.7179566869645,0.003768425019891519,0.0024887714428243487
6907.71895645918,0.0037274226092091564,0.00247215944370207
6907.7199562313945,0.0036877057087043932,0.002451285648471304
6907.72095600361,0.003649394953870485,0.002426475055179809
6907.721955775825,0.0036125924899742872,0.0023981043536245726
6907.722955548041,0.0035773807049619194,0.0023665967563749808
6907.723955320256,0.003543821165710572,0.002332416327502248
6907.724955092472,0.0035119539763610735,0.0022960617957992675
6907.725954864686,0.0034817977615835853,0.0022580598504227467
6907.726954636902,0.0034533504333445378,0.002218957944296639
6907.727954409117,0.0034265908199903015,0.0021793166648903127
6907.7289541813325,0.0034014811261152875,0.0021397017708654916
6907.729953953548,0.0033779700734301163,0.0021006760327036147
6907.730953725762,0.0033559964767231917,0.0020627910417021812
6907.731953497978,0.0033354929606183386,0.0020265791477936087
6907.732953270193,0.003316389534245135,0.0019925456525400316
6907.733953042409,0.0032986168017550715,0.0019611613433718348
6907.734952814624,0.003282108668203075,0.001932855439232144
6907.73595258684,0.003266804472670115,0.0019080090379492644
6907.736952359054,0.0032526505253375844,0.0018869491957630745
6907.73795213127,0.0032396010466205537,0.0018699438020528976
6907.738951903485,0.003227618531155367,0.0018571974206318892
6907.7399516757005,0.0032166736060265494,0.0018488482500119835
6907.740951447916,0.0032067445041806353,0.0018449663119711873
6907.74195122013,0.0031978163023098577,0.001845552919246989
6907.742950992346,0.0031898800757363356,0.0018505414132687491
6907.743950764561,0.0031829321174661725,0.0018597991122834394
6907.744950536777,0.003176973358262092,0.0018731303707887137
6907.745950308992,0.0031720090946946783,0.001890280621129607
6907.746950081208,0.0031680490714365074,0.0019109412487060536
6907.747949853422,0.003165107883435569,0.00193475514581077
6907.748949625638,0.003163205589191935,0.00196132279327386
6907.749949397853,0.003162368375745849,0.001990208727965567
6907.750949170068,0.0031626290895866768,0.0020209482693359913
6907.751948942283,0.0031640274468859365,0.0020530544100668545
6907.752948714498,0.003166609775715917,0.0020860248227040487
6907.753948486714,0.0031704282262182957,0.0021193489695677534
6907.754948258929,0.0031755394781010815,0.0021525153022095072
6907.755948031145,0.0031820030250242714,0.0021850185021861468
6907.75694780336,0.0031898790971910743,0.002216366671355495
6907.757947575575,0.00319922622085361,0.0022460883516149384
6907.75894734779,0.0032100983594908145,0.0022737392493625847
6907.759947120006,0.003222541584479973,0.0022989085481271952
6907.760946892221,0.003236590302095449,0.002321224698756529
6907.761946664436,0.0032522631939694885,0.0023403605750639666
6907.762946436651,0.0032695591502096178,0.002356037878422387
6907.763946208866,0.0032884535338905197,0.002368030683818934
6907.764945981082,0.0033088950997254064,0.002376168064468336
6907.765945753297,0.0033308038259818092,0.0023803358093698267
6907.766945525513,0.0033540698476492788,0.00238047731866792
6907.767945297728,0.003378553620719652,0.0023765937872922637
6907.768945069943,0.0034040873888265505,0.0023687437672588268
6907.769944842158,0.0034304779424648695,0.0023570421584050813
6907.770944614374,0.0034575105616107176,0.0023416586397343943
6907.771944386589,0.0034849539450222556,0.002322815533438527
6907.772944158804,0.003512565879327389,0.002300785098499122
6907.773943931019,0.00354009938620869,0.002275886273616169
6907.774943703234,0.0035673090846770916,0.0022484809066433014
6907.77594347545,0.0035939574970559342,0.0022189695008856688
6907.776943247665,0.003619821006315697,0.0021877864853389697
6907.777943019881,0.0036446951527105914,0.0021553949993986985
6907.778942792096,0.0036683989660696707,0.002122281182596164
6907.779942564311,0.0036907780874187502,0.0020889479710720616
6907.780942336526,0.003711706539628457,0.0020559084221399983
6907.7819421087415,0.0037310871409863295,0.0020236786170280364
6907.782941880957,0.0037488506852301697,0.0019927702252061173
6907.783941653172,0.003764954101048479,0.0019636828488605153
6907.784941425387,0.003779377834196737,0.0019368963056211217
6907.785941197602,0.0037921226825689876,0.0019128630455131721
6907.786940969818,0.0038032062973269837,0.0018920009153681433
6907.787940742033,0.0038126595615705114,0.0018746864679200625
6907.788940514249,0.003820523055098183,0.0018612489709887597
6907.789940286464,0.0038268437812518743,0.0018519652226635758
6907.790940058679,0.003831672265822864,0.0018470552353196828
6907.791939830894,0.003835060065047355,0.0018466788205676991
6907.7929396031095,0.0038370576729251865,0.0018509330906684783
6907.793939375325,0.0038377128104843993,0.0018598508897282057
6907.79493914754,0.0038370690924323463,0.001873400173242052
6907.795938919755,0.0038351650629564653,0.0018914843514351801
6907.79693869197,0.003832033554898643,0.0019139435908626062
6907.797938464186,0.003827701278625292,0.001940557040743555
6907.798938236401,0.003822188526600764,0.0019710459366098086
6907.799938008617,0.0038155089063602586,0.0020050775439970103
6907.800937780832,0.0038076690875723665,0.002042269927327654
6907.801937553047,0.003798668648767968,0.0020821975361572215
6907.802937325262,0.003788500193346233,0.0021243975704586353
6907.8039370974775,0.00377714992969476,0.002168377023373482
6907.804936869693,0.003764598870049178,0.002213620233341791
6907.805936641908,0.0037508247278063033,0.002259596741312888
6907.806936414123,0.003735804519210613,0.002305769261408636
6907.807936186338,0.0037195178166536166,0.00235160162613803
6907.808935958554,0.0037019505466482244,0.0023965666278297965
6907.809935730769,0.0036830991576269055,0.002440153715659953
6907.810935502985,0.0036629748994683776,0.0024818765112228393
6907.8119352752,0.0036416078871412028,0.002521280077612677
6907.812935047415,0.00361905061034863,0.0025579478243735274
6907.81393481963,0.003595380618761659,0.0025915078641567998
6907.8149345918455,0.0035707022208659304,0.0026216385760115734
6907.815934364061,0.003545147116248874,0.002648073103834192
6907.816934136275,0.0035188739033094637,0.0026706025507126046
6907.817933908491,0.0034920663962735993,0.002689077722669051
6907.818933680706,0.0034649307038622556,0.00270340940501422
6907.819933452922,0.0034376911014276177,0.0027135672790223947
6907.820933225137,0.0034105848603448027,0.002719577663024756
6907.821932997353,0.003383856340173118,0.002721520275804812
6907.822932769567,0.003357750748197389,0.0027195241977427944
6907.823932541783,0.0033325079942471744,0.0027137631867548526
6907.824932313998,0.003308357018774721,0.0027044505081621124
6907.8259320862135,0.003285510879147922,0.0026918334506800127
6907.826931858429,0.0032641627773345194,0.0026761877142418467
6907.827931630643,0.0032444831255014545,0.002657811862411445
6907.828931402859,0.0032266176817224504,0.0026370220176214643
6907.829931175074,0.0032106867304454454,0.002614146933308129
6907.83093094729,0.0031967852089962376,0.002589523522805257
6907.831930719505,0.0031849835993693902,0.0025634928847133513
6907.832930491721,0.0031753293536199707,0.002536396833577433
6907.833930263935,0.003167848626065508,0.0025085749042117506
6907.834930036151,0.0031625481235388136,0.002480361748249871
6907.835929808366,0.003159416912653972,0.0024520847991194683
6907.836929580581,0.0031584280229895157,0.0024240620602966815
6907.837929352797,0.0031595396793212475,0.002396599883619723
6907.838929125011,0.003162696023118915,0.002369990661102861
6907.839928897227,0.003167827265402411,0.0023445104421459797
6907.840928669442,0.0031748493360325156,0.002320416561666828
6907.841928441658,0.0031836632164623066,0.002297945381698876
6907.842928213873,0.003194154219210007,0.0022773102115339794
6907.843927986089,0.0032061914861127964,0.0022586994128189143
6907.844927758303,0.0032196279314647804,0.0022422746488854985
6907.845927530519,0.003234300790982486,0.0022281692275323006
6907.846927302734,0.0032500328822357137,0.002216486525168138
6907.847927074949,0.0032666346399669987,0.002207298545647496
6907.848926847165,0.003283906946721681,0.0022006447131143543
6907.849926619379,0.003301644725733548,0.00219653099702291
6907.850926391595,0.0033196412045570782,0.0021949294314683922
6907.85192616381,0.0033376927080049994,0.002195778053206426
6907.852925936026,0.003355603803719245,0.002198981268035397
6907.853925708241,0.0033731925973101646,0.002204410665031635
6907.854925480457,0.003390295943606134,0.0022119063148481445
6907.855925252671,0.0034067742903536626,0.0022212785919595813
6907.856925024887,0.0034225157985693475,0.0022323105432422202
6907.857924797102,0.0034374393299085085,0.0022447607926072487
6907.858924569317,0.0034514959282794335,0.0022583669389508467
6907.859924341533,0.0034646685865576147,0.002272849389398397
6907.860924113747,0.0034769703260388815,0.00228791557760822
6907.861923885963,0.003488440817433567,0.0023032645361474795
6907.862923658178,0.0034991418630034915,0.0023185918050671887
6907.863923430394,0.0035091520512097667,0.002333594655691374
6907.864923202609,0.003518560859906407,0.002347977583958822
6907.865922974825,0.003527462485011823,0.002361457976903279
6907.866922747039,0.0035359497121402227,0.0023737717865273313
6907.867922519255,0.0035441081809219634,0.0023846789859665466
6907.86892229147,0.003552011368799669,0.002393968565208842
6907.869922063685,0.00355971653497456,0.0024014628516575783
6907.870921835901,0.0035672617425256555,0.0024070209913531794
6907.871921608115,0.0035746639583223716,0.0024105414812065585
6907.872921380331,0.0035819181540873465,0.002411963695232296
6907.873921152546,0.0035889973103826233,0.0024112683877868858
6907.874920924762,0.0035958532291182916,0.002408477175868527
6907.875920696977,0.003602418039066517,0.0024036510135561945
6907.876920469193,0.003608606209439217,0.0023968876951441995
6907.877920241407,0.003614316799489158,0.002388318462473746
6907.878920013623,0.0036194356336308616,0.002378103835478235
6907.879919785838,0.003623837155476733,0.002366428823438149
6907.880919558053,0.0036273858760121126,0.0023534976970787415
6907.881919330268,0.003629937522769253,0.0023395284939983635
6907.882919102483,0.0036313401328019797,0.002324747390910328
6907.883918874699,0.0036314353684060753,0.0023093830279709597
6907.884918646914,0.0036300602879979506,0.0022936608431976084
6907.88591841913,0.0036270497248733925,0.002277797487630068
6907.886918191345,0.0036222393515961343,0.0022619954406442413
6907.88791796356,0.0036154694437720244,0.002246438000870926
6907.888917735775,0.0036065892897403267,0.002231284857863307
6907.889917507991,0.00359546210918202,0.0022166684426288947
6907.890917280206,0.0035819702485463917,0.0022026912248727794
6907.891917052421,0.00356602034148961,0.0021894240858182086
6907.892916824636,0.00354754809296231,0.00217690585052829
6907.893916596851,0.0035265223823201185,0.0021651440107843547
6907.894916369067,0.003502948463490465,0.0021541166107867894
6907.895916141282,0.0034768701206336133,0.0021437752077773527
6907.896915913498,0.0034483706748108358,0.002134048764912053
6907.897915685713,0.0034175727333124344,0.0021248482959311536
6907.898915457928,0.0033846365790525267,0.002116072067935995
6907.899915230143,0.0033497571702279113,0.002107611173921414
6907.900915002359,0.003313159867790348,0.0020993552995254797
6907.901914774574,0.0032750951776447986,0.0020911985229019434
6907.902914546789,0.003235832922049718,0.002083044998265373
6907.903914319004,0.0031956563089238547,0.002074814375789041
6907.904914091219,0.0031548563471116885,0.002066446800793803
6907.905913863435,0.0031137269719759783,0.0020579073203189024
6907.90691363565,0.0030725611205837835,0.002049189516564427
6907.907913407866,0.0030316478579929273,0.0020403181937380904
6907.908913180081,0.0029912705314709947,0.0020313509706330057
6907.909912952296,0.0029517058307401874,0.0020223786709367476
6907.910912724511,0.002913223557003595,0.0020135244482076885
6907.911912496727,0.0028760868456813157,0.002004941626307803
6907.912912268942,0.0028405525581301364,0.0019968102766966225
6907.913912041157,0.002806871576079419,0.001989332595715573
6907.914911813372,0.002775288791632706,0.0019827271996746255
6907.915911585587,0.002746042646092267,0.001977222530340402
6907.916911357803,0.002719364105790092,0.001973049642563168
6907.917911130018,0.002695474984398922,0.001970434695011265
6907.918910902234,0.0026745855578996624,0.0019695914621668253
6907.919910674449,0.0026568914889035893,0.001970714139926264
6907.920910446664,0.002642570177289273,0.0019739706546388768
6907.921910218879,0.0026317767575479867,0.0019794966287761916
6907.922909991095,0.0026246400343118317,0.0019873901180880115
6907.92390976331,0.0026212586625749324,0.001997707216820237
6907.924909535525,0.0026216978390823185,0.0020104586220254144
6907.92590930774,0.002625986699116917,0.0020256072475914387
6907.926909079955,0.00263411653887739,0.002043066981594288
6907.927908852171,0.002646039929717364,0.0020627026846753377
6907.928908624386,0.002661670758006197,0.0020843315225297218
6907.929908396602,0.0026808851931651263,0.0021077257010786643
6907.930908168817,0.0027035235348674366,0.0021326166255865174
6907.931907941032,0.0027293928220569197,0.002158700438585031
6907.932907713247,0.0027582700319479314,0.0021856448125193084
6907.933907485462,0.002789905682395548,0.0022130967952703104
6907.934907257678,0.0028240276650382855,0.0022406914481570687
6907.935907029893,0.0028603451422211075,0.0022680609827163416
6907.936906802108,0.002898552322412039,0.002294844084805504
6907.937906574323,0.0029383319185783316,0.002320695104212464
6907.938906346539,0.002979358136613807,0.002345292787058878
6907.939906118754,0.003021299140196761,0.0023683482383442937
6907.94090589097,0.0030638190528453346,0.0023896118198078868
6907.941905663185,0.0031065796462863876,0.0024088787186089594
6907.9429054354,0.003149241915029436,0.0024259929820838817
6907.943905207615,0.003191467752729671,0.00244084991316476
6907.94490497983,0.0032329219257360283,0.0024533968444946305
6907.945904752046,0.0032732744858757685,0.0024636324225943674
6907.94690452426,0.0033122036903273757,0.002471604606077736
6907.947904296476,0.0033493994162461654,0.002477407603504784
6907.948904068691,0.003384566984340421,0.002481177958997159
6907.949903840907,0.003417431248466226,0.00248308996026586
6907.950903613122,0.0034477407698016594,0.0024833505132898464
6907.951903385338,0.003475271871697511,0.0024821936096071184
6907.952903157552,0.0034998323711380157,0.002479874509515376
6907.953902929768,0.003521264820460366,0.002476663777515938
6907.954902701983,0.0035394491661259776,0.002472841324828194
6907.955902474198,0.0035543048008730873,0.0024686906171408245
6907.956902246414,0.0035657920057360795,0.0024644931797331167
6907.957902018628,0.0035739127445106275,0.00246052348095745
6907.958901790844,0.0035787107232847053,0.002457044213622554
6907.959901563059,0.0035802705990706633,0.0024543019357846875
6907.960901335275,0.0035787162274551923,0.002452522990934472
6907.96190110749,0.0035742078855498273,0.00245190961760945
6907.962900879706,0.003566938499358704,0.002452636187113497
6907.96390065192,0.0035571290226786545,0.002454845561434641
6907.964900424136,0.003545023201969307,0.002458645614100282
6907.965900196351,0.0035308819774040284,0.0024641059886735123
6907.966899968566,0.0035149777351641946,0.0024712551912318497
6907.967899740782,0.0034975885945451196,0.002480078140398686
6907.968899512996,0.003478992906243573,0.002490514331052256
6907.969899285212,0.003459464126489515,0.0025024567900458635
6907.970899057427,0.0034392661875059,0.0025157520028211582
6907.971898829643,0.0034186494192972473,0.0025302009675785084
6907.972898601858,0.0033978470248229894,0.0025455614882770364
6907.9738983740735,0.0033770720943116397,0.002561551751843765
6907.974898146288,0.003356515161993602,0.002577855162066331
6907.975897918504,0.0033363423274228683,0.002594126334573577
6907.976897690719,0.003316693949069012,0.002609998090335705
6907.977897462934,0.0032976838765895566,0.0026250892154550745
6907.97889723515,0.003279399163342848,0.002639012699942456
6907.979897007364,0.003261900218872015,0.0026513841514550877
6907.98089677958,0.0032452214095387297,0.002661830098842659
6907.981896551795,0.0032293721683901875,0.0026699959262196245
6907.982896324011,0.003214338714158408,0.0026755531941624095
6907.983896096226,0.0032000864907966694,0.002678206126491498
6907.9848958684415,0.003186563416175814,0.0026776970963516677
6907.985895640656,0.0031737039742857354,0.0026738110400161023
6907.986895412872,0.003161434106767846,0.0026663788364905336
6907.987895185087,0.0031496767648055615,0.0026552797773310697
6907.988894957302,0.003138357883472765,0.0026404432881536517
6907.989894729518,0.003127412454550985,0.0026218500496501956
6907.990894501732,0.003116790319880123,0.0025995326147245823
6907.991894273948,0.003106461303712415,0.002573575543745369
6907.992894046163,0.003096419354143701,0.00254411499628836
6907.993893818379,0.0030866854510346086,0.0025113376447450228
6907.994893590594,0.003077309129413259,0.002475478736036854
6907.9958933628095,0.003068368540159217,0.0024368191420817966
6907.996893135024,0.0030599690136516988,0.002395681312035241
6907.99789290724,0.0030522401155758704,0.0023524241467456465
6907.998892679455,0.003045331222971977,0.0023074369168031425
6907.99989245167,0.0030394057388584586,0.002261132412254997
6908.000892223886,0.0030346341975006526,0.0022139395479055003
6908.0018919961,0.003031186640766814,0.0021662956685123817
6908.002891768316,0.0030292247232238264,0.0021186388059624825
6908.003891540531,0.0030288940139757054,0.0020714001278594454
6908.004891312747,0.003030316916959699,0.002024996783925045
6908.005891084962,0.00303358655328374,0.0019798253167357845
6908.0068908571775,0.003038761866013777,0.0019362557689775821
6908.007890629392,0.0030458641314513486,0.0018946265899841925
6908.008890401608,0.0030548749820994096,0.001855240413600549
6908.009890173823,0.0030657359508276427,0.0018183607456972739
6908.010889946038,0.0030783494371377836,0.0017842095636589127
6908.011889718253,0.00309258090293558,0.0017529657919401914
6908.012889490468,0.0031082620576359473,0.0017247645811432413
6908.013889262684,0.0031251947940534345,0.0016996972932664773
6908.014889034899,0.003143155655810817,0.0016778120928156266
6908.015888807115,0.0031619006137264226,0.0016591150602748178
6908.01688857933,0.0031811698920139416,0.0016435717650717181
6908.017888351545,0.0032006925493041983,0.0016311092448426149
6908.01888812376,0.0032201905377447124,0.0016216183364063175
6908.019887895975,0.0032393820621010386,0.0016149563026159977
6908.020887668191,0.0032579842171114246,0.0016109497081243757
6908.021887440406,0.00327571503912366,0.0016093975138727027
6908.022887212621,0.0032922952114611127,0.001610074371656629
6908.023886984836,0.0033074496894350183,0.0016127340982137726
6908.024886757052,0.003320909482848587,0.0016171132973627313
6908.025886529267,0.003332413793910608,0.0016229350856946517
6908.026886301483,0.0033417126785977368,0.001629912868585973
6908.027886073698,0.0033485703646687452,0.0016377541204247645
6908.028885845913,0.0033527692908608664,0.0016461641504895257
6908.029885618128,0.0033541148210559243,0.001654849865533618
6908.030885390343,0.0033524404588718597,0.0016635235451270345
6908.031885162559,0.003347613287256359,0.0016719066205579916
6908.032884934774,0.0033395393254504226,0.0016797334132033386
6908.033884706989,0.0033281685367486462,0.0016867547699782506
6908.034884479204,0.0033134992856209584,0.0016927415413093994
6908.03588425142,0.003295582061665285,0.0016974878690979311
6908.036884023635,0.003274522232603785,0.0017008142711762496
6908.037883795851,0.0032504815035645494,0.0017025705177103143
6908.038883568066,0.0032236777304392315,0.001702638291699692
6908.0398833402805,0.0031943828269830384,0.0017009336058237958
6908.040883112496,0.003162918717966004,0.0016974089145572356
6908.041882884711,0.0031296515474360746,0.0016920548305154783
6908.042882656927,0.003094984542587833,0.0016849013423402665
6908.043882429142,0.0030593499941643366,0.0016760184372893072
6908.044882201357,0.0030232007620707552,0.0016655160474980972
6908.045881973572,0.002987001619129359,0.0016535432637204076
6908.046881745788,0.002951220667883524,0.0016402867961802948
6908.047881518003,0.00291632102877687,0.0016259687029939165
6908.048881290219,0.002882752989940759,0.0016108434378700755
6908.049881062434,0.0028509467960075897,0.0015951942773955018
6908.0508808346485,0.0028213062115359975,0.0015793291742942776
6908.051880606864,0.0027942029352331288,0.0015635760618144066
6908.052880379079,0.002769971902062942,0.0015482776249705803
6908.053880151295,0.0027489075088402777,0.00153378556794522
6908.05487992351,0.0027312608049021967,0.0015204544422681573
6908.055879695725,0.002717237659256271,0.001508635144680775
6908.05687946794,0.0027069978430077925,0.0014986682317842846
6908.057879240156,0.0027006548872572744,0.0014908772250059237
6908.058879012371,0.0026982765352399846,0.00148556209393801
6908.0598787845865,0.002699885624786683,0.0014829931036084171
6908.060878556802,0.002705461310380218,0.0014834051877174858
6908.0618783290165,0.002714940641014498,0.0014869929731282387
