Time,Filtered_ECG
6868.734838469204,-0.01478344397053501
6868.735838241419,-0.014619506392195334
6868.736838013634,-0.01445558855341162
6868.7378377858495,-0.014291714625922264
6868.738837558065,-0.0141279087238837
6868.73983733028,-0.01396419489318811
6868.740837102496,-0.013800597100750203
6868.74183687471,-0.01363713922377077
6868.742836646926,-0.013473845038984989
6868.743836419141,-0.013310738211903879
6868.744836191357,-0.013147842286057577
6868.745835963572,-0.012985180672249292
6868.746835735787,-0.012822776637828935
6868.747835508002,-0.012660653295995507
6868.7488352802175,-0.012498833595137206
6868.749835052433,-0.012337340308218063
6868.750834824648,-0.012176196022219513
6868.751834596864,-0.012015423127644986
6868.752834369078,-0.011855043808095102
6868.753834141294,-0.011695080029920816
6868.754833913509,-0.011535553531961529
6868.755833685725,-0.011376485815375162
6868.756833457939,-0.011217898133567234
6868.757833230155,-0.011059811482226081
6868.75883300237,-0.010902246589471627
6868.759832774585,-0.010745223906125308
6868.760832546801,-0.010588763596108917
6868.761832319016,-0.010432885526980306
6868.762832091232,-0.010277609260614013
6868.763831863446,-0.010122954044034845
6868.764831635662,-0.00996893880041243
6868.765831407877,-0.009815582120224622
6868.766831180093,-0.009662902252597473
6868.767830952307,-0.009510917096829144
6868.768830724523,-0.00935964419410479
6868.769830496738,-0.009209100719408947
6868.770830268953,-0.009059303473641407
6868.771830041169,-0.00891026887594193
6868.772829813384,-0.008762012956228596
6868.773829585599,-0.008614551347953997
6868.774829357814,-0.008467899281083168
6868.77582913003,-0.008322071575296738
6868.776828902245,-0.008177082633422787
6868.777828674461,-0.008032946435100797
6868.778828446675,-0.007889676530681265
6868.7798282188905,-0.00774728603536467
6868.780827991106,-0.0076057876235837065
6868.781827763321,-0.007465193523632791
6868.782827535537,-0.007325515512549046
6868.783827307752,-0.007186764911248905
6868.784827079967,-0.0070489525799245795
6868.785826852182,-0.006912088913704457
6868.786826624398,-0.006776183838581426
6868.787826396613,-0.00664124680761288
6868.788826168829,-0.006507286797395865
6868.789825941043,-0.006374312304820393
6868.7908257132585,-0.0062423313441034335
6868.791825485474,-0.006111351444105475
6868.792825257689,-0.005981379645931
6868.793825029905,-0.005852422500813623
6868.79482480212,-0.0057244860682862265
6868.795824574335,-0.005597575914636152
6868.79682434655,-0.005471697111645328
6868.797824118766,-0.005346854235615245
6868.798823890981,-0.005223051366676782
6868.799823663197,-0.005100292088385039
6868.800823435411,-0.004978579487599491
6868.8018232076265,-0.004857916154649931
6868.802822979842,-0.004738304183788709
6868.803822752057,-0.004619745173929774
6868.804822524273,-0.004502240229675017
6868.805822296488,-0.004385789962628211
6868.806822068703,-0.004270394492996659
6868.807821840918,-0.00415605345148035
6868.808821613134,-0.0040427659814479796
6868.809821385349,-0.003930530741398717
6868.8108211575645,-0.0038193459077079557
6868.811820929779,-0.0037092091776546373
6868.8128207019945,-0.0036001177727271686
6868.81382047421,-0.0034920684422043765
6868.814820246425,-0.003385057467007623
6868.815820018641,-0.003279080663819974
6868.816819790856,-0.0031741333894682805
6868.817819563071,-0.003070210545564062
6868.818819335286,-0.0029673065833991956
6868.819819107502,-0.0028654155090925277
6868.820818879717,-0.0027645308889836127
6868.821818651932,-0.002664645855269785
6868.822818424147,-0.0025657531118827553
6868.8238181963625,-0.0024678449406008575
6868.824817968578,-0.002370913207392988
6868.825817740793,-0.0022749493689902204
6868.826817513009,-0.002179944479681011
6868.827817285224,-0.0020858891983258285
6868.828817057439,-0.001992773795586906
6868.829816829654,-0.0019005881613686072
6868.83081660187,-0.0018093218124635919
6868.831816374085,-0.001718963900399606
6868.8328161463,-0.0016295032194813405
6868.833815918515,-0.0015409282150214514
6868.8348156907305,-0.001453226991754586
6868.835815462946,-0.001366387322428127
6868.836815235161,-0.0012803966565633554
6868.837815007377,-0.0011952421293808053
6868.838814779591,-0.001110910570883746
6868.839814551807,-0.001027388515093903
6868.840814324022,-0.0009446622094337421
6868.841814096238,-0.0008627176242498367
6868.842813868453,-0.0007815404624719908
6868.843813640668,-0.0007011161694028995
6868.844813412883,-0.0006214299426331777
6868.845813185098,-0.0005424667420765963
6868.846812957314,-0.00046421130012033474
6868.847812729529,-0.00038664813188499085
6868.848812501745,-0.00030976154558895523
6868.849812273959,-0.00023353565301154582
6868.850812046175,-0.00015795438004899482
6868.85181181839,-8.300147735702229e-05
6868.852811590606,-8.660531073363554e-06
6868.853811362821,6.508502638670398e-05
6868.854811135036,0.0001382519054690231
6868.855810907251,0.0002108569485607134
6868.856810679466,0.00028291711901911514
6868.857810451682,0.00035444949015667193
6868.858810223897,0.00042547123418865384
6868.859809996113,0.0004959996111502986
6868.860809768327,0.0005660519577896059
6868.861809540543,0.0006356456764417015
6868.862809312758,0.0007047982238904352
6868.863809084974,0.000773527100222705
6868.864808857189,0.0008418498376808921
6868.865808629404,0.0009097839895187486
6868.866808401619,0.0009773471188660593
6868.867808173834,0.0010445567876074292
6868.86880794605,0.0011114305452806332
6868.869807718265,0.0011779859180001341
6868.870807490481,0.0012442403974116305
6868.871807262695,0.001310211429683815
6868.872807034911,0.0013759164045438709
6868.873806807126,0.0014413726443635627
6868.874806579342,0.0015065973933030225
6868.875806351557,0.0015716078065194567
6868.876806123772,0.0016364209394479669
6868.877805895987,0.00170105373716147
6868.878805668202,0.0017655230238163842
6868.879805440418,0.0018298454921903383
6868.880805212633,0.0018940376933177666
6868.881804984849,0.0019581160262288574
6868.882804757063,0.002022096727797027
6868.883804529279,0.0020859958626998384
6868.884804301494,0.0021498293134981023
6868.88580407371,0.002213612770837773
6868.886803845925,0.0022773617237791697
6868.88780361814,0.002341091450258051
6868.888803390355,0.002404817007683147
6868.88980316257,0.002468553223674928
6868.890802934786,0.0025323146869506716
6868.891802707001,0.002596115738361234
6868.892802479217,0.0026599704620852726
6868.893802251431,0.00272389267698695
6868.894802023647,0.0027878959281433194
6868.895801795862,0.002851993478547594
6868.8968015680775,0.002916198300994361
6868.897801340292,0.0029805230701525254
6868.898801112508,0.0030449801548313666
6868.899800884723,0.0031095816104446594
6868.900800656938,0.0031743391716773264
6868.901800429154,0.003239264245358649
6868.902800201369,0.003304367903545653
6868.903799973584,0.0033696608768199717
6868.904799745799,0.0034351535478012404
6868.905799518015,0.0035008559448799323
6868.90679929023,0.003566777736172487
6868.9077990624455,0.0036329282237016467
6868.90879883466,0.003699316337805098
6868.909798606876,0.0037659506317757898
6868.910798379091,0.0038328392767376933
6868.911798151306,0.003899990056761154
6868.912797923522,0.00396741036422234
6868.913797695737,0.004035107195411527
6868.914797467952,0.004103087146394982
6868.915797240167,0.004171356409135103
6868.916797012383,0.004239920767873149
6868.917796784598,0.004308785595778503
6868.9187965568135,0.0043779558518678464
6868.919796329028,0.004447436078197123
6868.920796101244,0.004517230397328559
6868.921795873459,0.004587342510074493
6868.922795645674,0.004657775693519311
6868.92379541789,0.004728532799320335
6868.924795190105,0.0047996162522882385
6868.92579496232,0.004871028049247217
6868.926794734535,0.004942769758174957
6868.927794506751,0.0050148425176222595
6868.928794278966,0.0050872470364120865
6868.9297940511815,0.005159983593617799
6868.930793823396,0.005233052038820412
6868.931793595611,0.005306451792644788
6868.932793367827,0.005380181847574707
6868.933793140042,0.005454240769046734
6868.934792912258,0.005528626696822551
6868.935792684473,0.0056033373466391435
6868.936792456688,0.005678370012135793
6868.937792228903,0.005753721567056287
6868.938792001119,0.005829388467724194
6868.939791773334,0.0059053667557884505
6868.9407915455495,0.005981652061235937
6868.941791317764,0.006058239605667125
6868.942791089979,0.006135124205830419
6868.943790862195,0.006212300277410324
6868.94479063441,0.006289761839064176
6868.945790406626,0.006367502516701815
6868.946790178841,0.0064455155480023
6868.947789951056,0.006523793787161569
6868.948789723271,0.0066023297098648384
6868.949789495487,0.006681115418477585
6868.950789267702,0.006760142647449065
6868.9517890399175,0.006839402768922509
6868.952788812132,0.0069188867985462855
6868.953788584347,0.006998585401480564
6868.954788356563,0.0070784888985939405
6868.955788128778,0.00715858727284448
6868.956787900994,0.007238870175839396
6868.957787673209,0.007319326934567277
6868.958787445424,0.007399946558296436
6868.959787217639,0.007480717745632594
6868.960786989855,0.007561628891728873
6868.96178676207,0.007642668095640869
6868.9627865342845,0.007723823167819496
6868.9637863065,0.007805081637734294
6868.964786078715,0.007886430761619974
6868.965785850931,0.00796785753033898
6868.966785623146,0.008049348677353012
6868.967785395362,0.008130890686796488
6868.968785167576,0.008212469801645098
6868.969784939792,0.008294072031972835
6868.970784712007,0.008375683163291141
6868.971784484223,0.00845728876496413
6868.972784256438,0.00853887419869421
6868.9737840286525,0.008620424627072645
6868.974783800868,0.008701925022189786
6868.975783573083,0.008783360174299721
6868.976783345299,0.00886471470053402
6868.977783117514,0.008945973053659087
6868.97878288973,0.009027119530871444
6868.979782661944,0.009108138282625125
6868.98078243416,0.009189013321485168
6868.981782206375,0.009269728531001175
6868.982781978591,0.009350267674594842
6868.983781750806,0.009430614404455456
6868.9847815230205,0.009510752270437366
6868.985781295236,0.009590664728953589
6868.986781067451,0.009670335151859784
6868.987780839667,0.009749746835322974
6868.988780611882,0.009828883008669591
6868.989780384098,0.009907726843207721
6868.990780156312,0.009986261461018865
6868.991779928528,0.010064469943714972
6868.992779700743,0.010142335341157004
6868.993779472959,0.010219840680131789
6868.994779245174,0.01029696897298429
6868.9957790173885,0.010373703226202699
6868.996778789604,0.010450026448953851
6868.997778561819,0.010525921661566516
6868.998778334035,0.010601371903959917
6868.99977810625,0.010676360244014627
6869.000777878466,0.010750869785882692
6869.00177765068,0.01082488367823362
6869.002777422896,0.01089838512243254
6869.003777195111,0.010971357380646621
6869.004776967327,0.011043783783875705
6869.005776739542,0.011115647739903
6869.0067765117565,0.011186932741161762
6869.007776283972,0.011257622372513987
6869.008776056187,0.011327700318937397
6869.009775828403,0.01139715037311739
6869.010775600618,0.011465956442941069
6869.011775372834,0.011534102558890934
6869.012775145048,0.011601572881336375
6869.013774917264,0.011668351707721406
6869.014774689479,0.011734423479647439
6869.015774461695,0.011799772789849955
6869.01677423391,0.011864384389067974
6869.0177740061245,0.011928243192805155
6869.01877377834,0.011991334287981088
6869.019773550555,0.012053642939471178
6869.020773322771,0.012115154596533173
6869.021773094986,0.012175854899118212
6869.022772867202,0.012235729684064
6869.023772639416,0.012294764991167663
6869.024772411632,0.012352947069135718
6869.025772183847,0.012410262381408705
6869.026771956063,0.012466697611858103
6869.027771728277,0.012522239670353446
6869.028771500492,0.012576875698197876
6869.029771272708,0.012630593073430868
6869.030771044923,0.012683379415997257
6869.031770817139,0.012735222592782284
6869.032770589354,0.012786110722512728
6869.033770361569,0.012836032180524511
6869.034770133784,0.01288497560339726
6869.035769906,0.012932929893456308
6869.036769678215,0.012979884223142562
6869.037769450431,0.01302582803925027
6869.038769222645,0.013070751067032609
6869.03976899486,0.01311464331417463
6869.040768767076,0.013157495074632758
6869.041768539291,0.01319929693233991
6869.042768311507,0.013240039764775016
6869.043768083722,0.013279714746395721
6869.044767855937,0.013318313351932854
6869.045767628152,0.013355827359545337
6869.046767400368,0.01339224885383412
6869.047767172583,0.013427570228713869
6869.048766944798,0.013461784190141214
6869.049766717013,0.013494883758698705
6869.050766489228,0.013526862272033867
6869.051766261444,0.013557713387153206
6869.052766033659,0.013587431082571372
6869.053765805875,0.013616009660316036
6869.05476557809,0.013643443747789355
6869.055765350305,0.013669728299486896
6869.05676512252,0.013694858598574989
6869.057764894736,0.01371883025832722
6869.058764666951,0.013741639223420686
6869.059764439166,0.013763281771092335
6869.060764211381,0.013783754512155558
6869.061763983596,0.01380305439187703
6869.062763755812,0.013821178690713615
6869.063763528027,0.013838125024909186
6869.064763300243,0.013853891346951055
6869.065763072458,0.013868475945885762
6869.066762844673,0.013881877447493899
6869.067762616888,0.013894094814323694
6869.068762389104,0.013905127345583189
6869.069762161319,0.013914974676890944
6869.070761933534,0.013923636779885519
6869.071761705749,0.013931113961694235
6869.072761477964,0.013937406864262177
6869.07376125018,0.013942516463542654
6869.074761022395,0.01394644406855062
6869.075760794611,0.013949191320280715
6869.076760566826,0.01395076019049157
6869.077760339041,0.013951152980357963
6869.078760111256,0.013950372318992182
6869.079759883472,0.013948421161835738
6869.080759655687,0.013945302788922491
6869.081759427902,0.01394102080301417
6869.082759200117,0.01393557912760915
6869.083758972332,0.013928982004825525
6869.084758744548,0.013921233993159456
6869.085758516763,0.01391233996511997
6869.086758288979,0.013902305104741334
6869.087758061194,0.013891134904974333
6869.088757833409,0.013878835164957845
6869.089757605624,0.01386541198717234
6869.09075737784,0.013850871774477197
6869.091757150055,0.013835221227033996
6869.0927569222695,0.013818467339118167
6869.093756694485,0.013800617395821625
6869.0947564667,0.013781678969649174
6869.095756238916,0.013761659917011424
6869.096756011131,0.013740568374616928
6869.097755783347,0.013718412755766098
6869.098755555561,0.01369520174654924
6869.099755327777,0.013670944301950858
6869.100755099992,0.01364564964186222
6869.101754872208,0.013619327247003921
6869.102754644423,0.013591986854760034
6869.1037544166375,0.013563638454925324
6869.104754188853,0.013534292285366867
6869.105753961068,0.013503958827601348
6869.106753733284,0.013472648802289225
6869.107753505499,0.01344037316464686
6869.108753277715,0.01340714309977769
6869.109753049929,0.013372970017923503
6869.110752822145,0.013337865549637033
6869.11175259436,0.01330184154087723
6869.112752366576,0.013264910048028844
6869.113752138791,0.01322708333284811
6869.114751911005,0.013188373857336564
6869.115751683221,0.013148794278544972
6869.116751455436,0.013108357443309408
6869.117751227652,0.0130670763829213
6869.118750999867,0.013024964307733108
6869.119750772083,0.012982034601701043
6869.120750544297,0.01293830081686601
6869.121750316513,0.012893776667773818
6869.122750088728,0.012848476025835517
6869.123749860944,0.012802412913628727
6869.124749633159,0.0127556014991407
6869.125749405373,0.012708056089953857
6869.126749177589,0.012659791127374599
6869.127748949804,0.012610821180506165
6869.12874872202,0.012561160940266432
6869.129748494235,0.012510825213351702
6869.130748266451,0.012459828916147811
6869.131748038665,0.012408187068590216
6869.132747810881,0.012355914787975071
6869.133747583096,0.0123030272827237
6869.134747355311,0.012249539846103146
6869.135747127527,0.012195467849905772
6869.136746899741,0.012140826738091005
6869.137746671957,0.012085632020392437
6869.138746444172,0.012029899265893476
6869.139746216388,0.011973644096574766
6869.140745988603,0.011916882180836514
6869.141745760819,0.011859629226998857
6869.142745533033,0.011801900976783438
6869.143745305249,0.011743713198779409
6869.144745077464,0.01168508168189712
6869.145744849679,0.011626022228812831
6869.146744621895,0.011566550649407838
6869.147744394109,0.01150668275420555
6869.148744166325,0.011446434347810158
6869.14974393854,0.01138582122235076
6869.150743710756,0.011324859150935042
6869.151743482971,0.011263563881116948
6869.152743255187,0.01120195112838299
6869.153743027401,0.011140036569662025
6869.1547427996165,0.011077835836863498
6869.155742571832,0.011015364510449082
6869.156742344047,0.010952638113042595
6869.157742116262,0.010889672103082828
6869.158741888477,0.010826481868523679
6869.159741660693,0.010763082720585678
6869.160741432908,0.01069948988756279
6869.161741205124,0.010635718508688087
6869.162740977339,0.010571783628061795
6869.163740749554,0.010507700188645079
6869.164740521769,0.01044348302632282
6869.1657402939845,0.01037914686403856
6869.1667400662,0.010314706306004706
6869.167739838415,0.010250175831991075
6869.16873961063,0.010185569791694807
6869.169739382845,0.010120902399194855
6869.170739155061,0.01005618772749447
6869.171738927276,0.009991439703155346
6869.172738699492,0.00992667210102742
6869.173738471707,0.009861898539078569
6869.174738243922,0.009797132473328637
6869.175738016137,0.009732387192892197
6869.1767377883525,0.009667675815134376
6869.177737560568,0.009603011280943666
6869.178737332783,0.009538406350125324
6869.179737104998,0.009473873596918404
6869.180736877213,0.009409425405639006
6869.181736649429,0.00934507396645181
6869.182736421644,0.009280831271271618
6869.18373619386,0.009216709109796325
6869.184735966075,0.009152719065672579
6869.18573573829,0.009088872512795207
6869.186735510505,0.0090251806117414
6869.1877352827205,0.008961654306340532
6869.188735054936,0.00889830432038042
6869.189734827151,0.0088351411544508
6869.190734599366,0.008772175082924896
6869.191734371581,0.008709416151079927
6869.192734143797,0.00864687417235759
6869.193733916012,0.008584558725765518
6869.194733688228,0.008522479153420689
6869.195733460443,0.008460644558235675
6869.196733232658,0.00839906380174832
6869.197733004873,0.008337745502095152
6869.1987327770885,0.00827669803212848
6869.199732549304,0.008215929517676815
6869.200732321519,0.008155447835947982
6869.201732093734,0.008095260614074005
6869.202731865949,0.008035375227796716
6869.203731638165,0.00797579880029285
6869.20473141038,0.007916538201137227
6869.205731182596,0.007857600045402535
6869.206730954811,0.007798990692894082
6869.207730727026,0.007740716247517868
6869.208730499241,0.007682782556780361
6869.2097302714565,0.007625195211418469
6869.210730043672,0.007567959545158483
6869.211729815887,0.007511080634603059
6869.212729588102,0.007454563299245599
6869.213729360317,0.0073984121016116376
6869.214729132533,0.007342631347527011
6869.215728904748,0.00728722508651257
6869.216728676964,0.007232197112305073
6869.217728449179,0.007177550963503668
6869.218728221394,0.00712328992434103
6869.219727993609,0.007069417025577888
6869.220727765824,0.007015935045519299
6869.22172753804,0.006962846511150709
6869.222727310254,0.006910153699391536
6869.22372708247,0.006857858638463815
6869.224726854685,0.006805963109373302
6869.225726626901,0.006754468647500245
6869.226726399116,0.00670337654429705
6869.227726171332,0.006652687849090028
6869.228725943546,0.0066024033709824815
6869.229725715762,0.006552523680856489
6869.230725487977,0.006503049113471021
6869.231725260192,0.006453979769654189
6869.232725032408,0.00640531551858769
6869.233724804622,0.006357056000181751
6869.234724576838,0.006309200627538908
6869.235724349053,0.006261748589505049
6869.236724121269,0.006214698853306076
6869.237723893484,0.006168050167268454
6869.2387236657,0.0061218010636218375
6869.239723437914,0.0060759498613818935
6869.2407232101295,0.006030494669311416
6869.241722982345,0.005985433388957861
6869.24272275456,0.0059407637177654295
6869.243722526776,0.005896483152259882
6869.24472229899,0.005852588991304265
6869.245722071206,0.00580907833942384
6869.246721843421,0.005765948110198525
6869.247721615637,0.005723195029721277
6869.248721387852,0.0056808156401209455
6869.249721160068,0.005638806303148272
6869.250720932282,0.00559716320382398
6869.2517207044975,0.005555882354148178
6869.252720476713,0.00551495959687068
6869.253720248928,0.005474390609322169
6869.254720021144,0.00543417090730634
6869.255719793358,0.005394295849053425
6869.256719565574,0.005354760639235459
6869.257719337789,0.0053155603330435975
6869.258719110005,0.005276689840327667
6869.25971888222,0.0052381439297979095
6869.260718654436,0.005199917233288693
6869.26171842665,0.00516200425008378
6869.2627181988655,0.00512439935130258
6869.263717971081,0.005087096784346718
6869.264717743296,0.005050090677406115
6869.265717515512,0.005013375044023746
6869.266717287726,0.004976943787718188
6869.267717059942,0.004940790706663088
6869.268716832157,0.004904909498422752
6869.269716604373,0.004869293764743168
6869.270716376588,0.004833937016397989
6869.271716148804,0.004798832678089243
6869.272715921018,0.004763974093402776
6869.2737156932335,0.004729354529818576
6869.274715465449,0.004694967183776284
6869.275715237664,0.004660805185796145
6869.27671500988,0.0046268616056555755
6869.277714782094,0.004593129457621302
6869.27871455431,0.004559601705736823
6869.279714326525,0.004526271269164732
6869.280714098741,0.0044931310275832205
6869.281713870956,0.004460173826635974
6869.282713643172,0.004427392483434548
6869.283713415386,0.004394779792112282
6869.2847131876015,0.0043623285294287426
6869.285712959817,0.00433003146042366
6869.286712732032,0.004297881344119266
6869.287712504247,0.004265870939269911
6869.288712276462,0.004233993010157774
6869.289712048678,0.0042022403324334595
6869.290711820893,0.004170605699000261
6869.291711593109,0.004139081925940848
6869.292711365324,0.004107661858485089
6869.293711137539,0.004076338377017668
6869.294710909754,0.004045104403123995
6869.2957106819695,0.00401395290567276
6869.296710454185,0.00398287690693316
6869.2977102264,0.003951869488724519
6869.298709998615,0.003920923798595596
6869.29970977083,0.003890033056030451
6869.300709543046,0.0038591905586773624
6869.301709315261,0.003828389688596879
6869.302709087477,0.0037976239185248265
6869.303708859692,0.0037668868181458207
6869.304708631907,0.003736172060372659
6869.305708404122,0.003705473427626841
6869.306708176337,0.0036747848181153927
6869.307707948553,0.0036441002520991393
6869.308707720768,0.003613413878147613
6869.309707492983,0.003582719979375891
6869.310707265198,0.0035520129796588404
6869.311707037414,0.0035212874498184803
6869.312706809629,0.0034905381137804218
6869.313706581845,0.0034597598546955246
6869.31470635406,0.003428947721023031
6869.315706126275,0.0033980969325714473
6869.31670589849,0.0033672028864933498
6869.317705670705,0.0033362611632301213
6869.318705442921,0.0033052675324023732
6869.319705215136,0.003274217958641536
6869.320704987351,0.0032431086073578213
6869.321704759566,0.003211935850439546
6869.322704531782,0.0031806962718785915
6869.323704303997,0.003149386673316662
6869.324704076213,0.003118004079506897
6869.325703848428,0.0030865457436853624
6869.326703620643,0.0030550091528469604
6869.327703392858,0.003023392032920331
6869.328703165073,0.00299169235383641
6869.329702937289,0.0029599083344854825
6869.330702709504,0.002928038447557773
6869.331702481719,0.002896081424262859
6869.332702253934,0.002864036258923465
6869.33370202615,0.0028319022134394136
6869.334701798365,0.0027996788216177143
6869.335701570581,0.0027673658933649167
6869.336701342796,0.002734963518737861
6869.3377011150105,0.0027024720718489543
6869.338700887226,0.0026698922146219527
6869.339700659441,0.002637224900394043
6869.340700431657,0.002604471377359808
6869.341700203872,0.0025716331918524435
6869.342699976087,0.002538712191457382
6869.343699748302,0.0025057105279533295
6869.344699520518,0.0024726306600755775
6869.345699292733,0.0024394753560963655
6869.346699064949,0.0024062476962170517
6869.347698837164,0.002372951074766929
6869.3486986093785,0.002339589202203712
6869.349698381594,0.0023061661069110322
6869.350698153809,0.002272686136788685
6869.351697926025,0.0022391539606318157
6869.352697698239,0.002205574569295669
6869.353697470455,0.0021719532766429077
6869.35469724267,0.002138295720270814
6869.355697014886,0.0021046078620158767
6869.356696787101,0.002070895988233367
6869.3576965593165,0.0020371667098495025
6869.358696331531,0.0020034269621837545
6869.3596961037465,0.001969684004538819
6869.360695875962,0.001935945419555743
6869.361695648177,0.0019022191123317662
6869.362695420393,0.0018685133092985575
6869.363695192607,0.0018348365568587016
6869.364694964823,0.0018011977197785298
6869.365694737038,0.0017676059793356393
6869.366694509254,0.001734070831219714
6869.367694281469,0.0017006020831855692
6869.3686940536845,0.0016672098524577058
6869.369693825899,0.001633904562886122
6869.3706935981145,0.0016006969418536482
6869.37169337033,0.001567598016935641
6869.372693142545,0.0015346191123134288
6869.373692914761,0.001501771844943416
6869.374692686975,0.0014690681204841806
6869.375692459191,0.0014365201289842464
6869.376692231406,0.0014041403403334258
6869.377692003622,0.0013719414994807376
6869.378691775837,0.0013399366214219353
6869.3796915480525,0.0013081389859596576
6869.380691320267,0.0012765621322391718
6869.3816910924825,0.0012452198530626736
6869.382690864698,0.0012141261889851034
6869.383690636913,0.0011832954221944584
6869.384690409129,0.0011527420701796158
6869.385690181343,0.001122480879188757
6869.386689953559,0.0010925268174816012
6869.387689725774,0.0010628950683788272
6869.38868949799,0.0010336010231123233
6869.389689270205,0.0010046602734802075
6869.3906890424205,0.0009760886043109455
6869.391688814635,0.0009479019857412963
6869.39268858685,0.0009201165653132199
6869.393688359066,0.0008927486598952184
6869.394688131281,0.000865814747433809
6869.395687903497,0.0008393314585409076
6869.396687675711,0.0008133155679228441
6869.397687447927,0.0007877839856565499
6869.398687220142,0.0007627537483182054
6869.399686992358,0.0007382420099693414
6869.400686764573,0.0007142660330051166
6869.4016865367885,0.0006908431788692532
6869.402686309003,0.0006679908986399257
6869.403686081218,0.0006457267234907676
6869.404685853434,0.0006240682550310662
6869.405685625649,0.0006030331555291782
6869.406685397865,0.0005826391380231951
6869.407685170079,0.0005629039563229391
6869.408684942295,0.0005438453949074848
6869.40968471451,0.0005254812587225941
6869.410684486726,0.0005078293628827023
6869.411684258941,0.0004909075222823875
6869.4126840311565,0.0004747335411225443
6869.413683803371,0.0004593252023567254
6869.414683575586,0.0004447002570632736
6869.415683347802,0.00043087641374891627
6869.416683120017,0.00041787132758944775
6869.417682892232,0.0004057025896129964
6869.418682664447,0.0003943877158311963
6869.419682436663,0.0003839441363233894
6869.420682208878,0.00037438918427880807
6869.421681981094,0.0003657400850015248
6869.422681753309,0.0003580139448828324
6869.423681525524,0.00035122774034562006
6869.424681297739,0.0003453983067652509
6869.425681069954,0.0003405423273714148
6869.42668084217,0.0003366763221354082
6869.427680614385,0.0003338166366472945
6869.4286803866,0.000331979430987434
6869.429680158815,0.00033118066859695795
6869.430679931031,0.0003314361051519099
6869.431679703246,0.00033276127744595813
6869.432679475462,0.00033517149228676376
6869.433679247677,0.00033868181541121567
6869.434679019892,0.00034330706042478155
6869.435678792107,0.00034906177777015846
6869.436678564322,0.00035596024373022833
6869.437678336538,0.0003640164494700586
6869.438678108753,0.0003732440901223575
6869.439677880968,0.00038365655392043357
6869.440677653183,0.0003952669113823584
6869.441677425399,0.0004080879045497218
6869.442677197614,0.00042213193628411975
6869.4436769698295,0.0004374110596243316
6869.444676742045,0.00045393696720702205
6869.44567651426,0.0004717209807537356
6869.446676286475,0.0004907740406269402
6869.44767605869,0.0005111066954579275
6869.448675830906,0.0005327290918495123
6869.449675603121,0.0005556509641566957
6869.450675375336,0.0005798816243487577
6869.451675147551,0.0006054299519565946
6869.452674919767,0.0006323043841094532
6869.453674691982,0.0006605129056655017
6869.4546744641975,0.0006900630394408576
6869.455674236413,0.0007209618365417439
6869.456674008628,0.0007532158668043582
6869.457673780843,0.0007868312093468339
6869.458673553058,0.0008218134432373845
6869.459673325274,0.0008581676382824195
6869.460673097489,0.000895898345938143
6869.461672869704,0.0009350095903489362
6869.462672641919,0.0009755048595156667
6869.463672414135,0.001017387096596966
6869.46467218635,0.0010606586913464407
6869.4656719585655,0.00110532147168874
6869.466671730781,0.001151376695437369
6869.467671502996,0.0011988250421571614
6869.468671275211,0.00124766660517439
6869.469671047426,0.0012979008837376515
6869.470670819642,0.0013495267753329142
6869.471670591857,0.001402542568156453
6869.472670364072,0.0014569459337497688
6869.473670136287,0.0015127339198009635
6869.474669908503,0.0015699029431173457
6869.475669680718,0.0016284487827742322
6869.4766694529335,0.0016883665734449393
6869.477669225149,0.0017496507989168586
6869.478668997364,0.0018122952857983177
6869.479668769579,0.0018762931974206911
6869.480668541794,0.001941637027940007
6869.48166831401,0.002008318596642122
6869.482668086224,0.0020763290424553986
6869.48366785844,0.002145658818674724
6869.484667630655,0.0022162976879006205
6869.485667402871,0.002288234717197158
6869.486667175086,0.0023614582734723336
6869.4876669473015,0.0024359560190846292
6869.488666719516,0.002511714907679525
6869.489666491731,0.0025887211802599016
6869.490666263947,0.002666960361494474
6869.491666036162,0.0027464172562686115
6869.492665808378,0.002827075946482127
6869.493665580592,0.002908919788098747
6869.494665352808,0.00299193140845203
6869.495665125023,0.003076092703812453
6869.496664897239,0.0031613848372202226
6869.497664669454,0.003247788236588155
6869.4986644416695,0.003335282593078741
6869.499664213884,0.0034238468597592646
6869.500663986099,0.0035134592505386697
6869.501663758315,0.003604097239389732
6869.50266353053,0.003695737559860051
6869.503663302746,0.0037883562048753204
6869.50466307496,0.0038819284268383778
6869.505662847176,0.003976428738027478
6869.506662619391,0.004071830911297258
6869.507662391607,0.004168107981085815
6869.508662163822,0.004265232244731338
6869.509661936037,0.00436317526410179
6869.510661708252,0.004461907867541272
6869.511661480467,0.004561400152136855
6869.512661252683,0.004661621486309831
6869.513661024898,0.004762540512735454
6869.514660797114,0.004864125151595339
6869.515660569328,0.004966342604166607
6869.516660341544,0.005069159356751725
6869.517660113759,0.005172541184952787
6869.518659885975,0.005276453158293666
6869.51965965819,0.00538085964519319
6869.520659430405,0.005485724318292234
6869.52165920262,0.005591010160137393
6869.522658974835,0.0056966794692237255
6869.523658747051,0.005802693866398904
6869.524658519266,0.005909014301630991
6869.525658291482,0.006015601061141923
6869.526658063696,0.006122413774908703
6869.527657835912,0.00622941142453426
6869.528657608127,0.006336552351489998
6869.529657380343,0.006443794265732172
6869.530657152558,0.00655109425469444
6869.531656924773,0.006658408792659207
6869.532656696988,0.006765693750510545
6869.533656469203,0.006872904405871716
6869.534656241419,0.006979995453630278
6869.535656013634,0.007086921016853759
6869.53665578585,0.007193634658098646
6869.537655558064,0.007300089391115213
6869.53865533028,0.007406237692950407
6869.539655102495,0.007512031516450659
6869.540654874711,0.007617422303166264
6869.541654646926,0.007722360996658665
6869.542654419141,0.007826798056211769
6869.543654191356,0.007930683470948167
6869.544653963571,0.008033966774350868
6869.545653735787,0.008136597059191009
6869.546653508002,0.008238522992861718
6869.547653280217,0.008339692833118239
6869.548653052432,0.008440054444224248
6869.549652824648,0.008539555313504388
6869.550652596863,0.008638142568303081
6869.551652369079,0.008735762993349924
6869.552652141294,0.008832363048532134
6869.5536519135085,0.008927888887074723
6869.554651685724,0.009022286374129138
6869.555651457939,0.009115501105771105
6869.556651230155,0.009207478428408312
6869.55765100237,0.009298163458598352
6869.558650774585,0.009387501103277036
6869.5596505468,0.009475436080396932
6869.560650319016,0.009561912939975645
6869.561650091231,0.009646876085552996
6869.562649863447,0.009730269796056089
6869.563649635662,0.009812038248070866
6869.5646494078765,0.009892125538518575
6869.565649180092,0.009970475707735333
6869.566648952307,0.010047032762952827
6869.567648724523,0.01012174070217799
6869.568648496738,0.01019454353846946
6869.569648268953,0.01026538532460849
6869.570648041168,0.010334210178162028
6869.571647813384,0.010400962306935643
6869.572647585599,0.010465586034813882
6869.573647357815,0.010528025827985526
6869.57464713003,0.01058822632155086
6869.575646902244,0.010646132346507634
6869.57664667446,0.010701688957111875
6869.577646446675,0.010754841458609051
6869.578646218891,0.010805535435330409
6869.579645991106,0.010853716779148646
6869.580645763321,0.010899331718286316
6869.581645535536,0.010942326846469775
6869.582645307752,0.010982649152420799
6869.583645079967,0.01102024604967736
6869.584644852183,0.011055065406734432
6869.585644624398,0.011087055577495017
6869.586644396612,0.01111616543202088
6869.587644168828,0.011142344387571602
6869.588643941043,0.011165542439919822
6869.589643713259,0.011185710194929463
6869.590643485474,0.011202798900382737
6869.591643257689,0.011216760478040561
6869.592643029904,0.0112275475559198
6869.59364280212,0.011235113500769195
6869.594642574335,0.011239412450724172
6869.59564234655,0.011240399348118844
6869.596642118766,0.011238029972431214
6869.59764189098,0.011232260973335224
6869.598641663196,0.01122304990383054
6869.599641435411,0.011210355253418151
6869.600641207627,0.011194136481287012
6869.601640979842,0.011174354049474061
6869.602640752057,0.011150969455957118
6869.603640524272,0.011123945267637374
6869.604640296488,0.011093245153165529
6869.605640068703,0.011058833915563
6869.606639840918,0.011020677524587174
6869.607639613134,0.010978743148787372
6869.608639385348,0.01093299918719609
6869.609639157564,0.010883415300598191
6869.610638929779,0.010829962442319187
6869.611638701995,0.010772612888472442
6869.612638474209,0.01071134026760412
6869.613638246425,0.010646119589673986
6869.61463801864,0.010576927274309847
6869.615637790856,0.01050374117827318
6869.616637563071,0.010426540622073883
6869.617637335286,0.010345306415672712
6869.618637107502,0.010260020883211107
6869.619636879716,0.010170667886709799
6869.620636651932,0.010077232848679615
6869.621636424147,0.009979702773590378
6869.622636196363,0.00987806626814653
6869.623635968577,0.009772313560321046
6869.624635740793,0.009662436517102338
6869.625635513008,0.00954842866091222
6869.626635285224,0.009430285184656629
6869.627635057439,0.00930800296537475
6869.628634829654,0.009181580576456438
6869.629634601869,0.009051018298402231
6869.630634374084,0.008916318128104922
6869.6316341463,0.008777483786636309
6869.632633918515,0.008634520725527365
6869.633633690731,0.008487436131534602
6869.634633462945,0.008336238929889642
6869.635633235161,0.008180939786032968
6869.636633007376,0.008021551105836494
6869.637632779592,0.007858087034323145
6869.638632551807,0.007690563452894925
6869.639632324022,0.007518997975084265
6869.640632096237,0.007343409940846589
6869.641631868452,0.0071638204094153024
6869.642631640668,0.0069802521507435385
6869.643631412883,0.006792729635559983
6869.644631185099,0.0066012790240688535
6869.645630957313,0.006405928153326605
6869.646630729529,0.00620670652332999
6869.647630501744,0.006003645281851959
6869.64863027396,0.005796777208063409
6869.649630046175,0.005586136694980081
6869.65062981839,0.005371759730774974
6869.651629590605,0.005153683878997546
6869.65262936282,0.0049319482577415644
6869.653629135036,0.004706593517803883
6869.654628907251,0.004477661819876645
6869.655628679467,0.0042451968108153755
6869.656628451681,0.004009243599025235
6869.657628223897,0.003769848729007245
6869.658627996112,0.00352706015510576
6869.659627768328,0.003280927214497718
6869.660627540543,0.0030315005994634428
6869.661627312758,0.0027788323289779458
6869.662627084973,0.0025229757196608728
6869.663626857188,0.002263985356122455
6869.664626629404,0.0020019170607420687
6869.665626401619,0.0017368278629152824
6869.666626173835,0.0014687759678045941
6869.667625946049,0.0011978207246284415
6869.668625718265,0.0009240225945225407
6869.66962549048,0.0006474431180071838
6869.670625262696,0.0003681448820937576
6869.671625034911,8.619148706345602e-05
6869.672624807126,-0.0001983524870491504
6869.673624579341,-0.00048542151423537513
6869.674624351556,-0.0007749491565226438
6869.675624123772,-0.0010668680981843813
6869.676623895987,-0.0013611101801189202
6869.677623668202,-0.0016576064343675682
6869.678623440417,-0.001956287118742819
6869.679623212633,-0.0022570817515386063
6869.680622984848,-0.002559919146295425
6869.681622757063,-0.0028647274465940487
6869.682622529279,-0.0031714341608524155
6869.683622301494,-0.003479966197101062
6869.684622073709,-0.003790249897713235
6869.685621845924,-0.004102211074066555
6869.68662161814,-0.004415775041113835
6869.687621390355,-0.004730866651841285
6869.68862116257,-0.005047410331592929
6869.689620934785,-0.005365330112240478
6869.690620707001,-0.005684549666178314
6869.691620479216,-0.006004992340123508
6869.692620251431,-0.006326581188701119
6869.693620023647,-0.006649239007795343
6869.694619795861,-0.006972888367647501
6869.695619568077,-0.007297451645682377
6869.696619340292,-0.007622851059045057
6869.697619112508,-0.007949008696831147
6869.698618884723,-0.008275846551994087
6869.699618656938,-0.008603286552914135
6869.700618429153,-0.008931250594614469
6869.701618201369,-0.00925966056961071
6869.702617973584,-0.009588438398380942
6869.703617745799,-0.009917506059444118
6869.704617518015,-0.010246785619035383
6869.705617290229,-0.010576199260367469
6869.706617062445,-0.010905669312467815
6869.70761683466,-0.01123511827858156
6869.708616606876,-0.011564468864130914
6869.709616379091,-0.011893644004221774
6869.710616151306,-0.012222566890688695
6869.711615923521,-0.012551160998669656
6869.7126156957365,-0.01287935011270228
6869.713615467952,-0.013207058352333507
6869.714615240167,-0.013534210197235183
6869.715615012383,-0.013860730511818482
6869.716614784597,-0.014186544569340811
6869.717614556813,-0.014511578075499444
6869.718614329028,-0.014835757191506945
6869.719614101244,-0.015159008556644206
6869.720613873459,-0.01548125931028759
6869.721613645674,-0.01580243711340751
6869.722613417889,-0.016122470169536465
6869.7236131901045,-0.016441287245205185
6869.72461296232,-0.016758817689846342
6869.725612734535,-0.01707499145516575
6869.726612506751,-0.017389739113981666
6869.727612278965,-0.01770299187853319
6869.728612051181,-0.01801468161825904
6869.729611823396,-0.018324740877048294
6869.730611595612,-0.01863310288996463
6869.731611367827,-0.018939701599445732
6869.732611140042,-0.019244471670979483
6869.733610912257,-0.019547348508258566
6869.7346106844725,-0.01984826826781529
6869.735610456688,-0.020147167873138597
6869.736610228903,-0.020443985028275543
6869.737610001119,-0.02073865823091996
6869.738609773333,-0.02103112678499146
6869.739609545549,-0.021321330812708504
6869.740609317764,-0.021609211266159684
6869.74160908998,-0.021894709938377905
6869.742608862194,-0.022177769473922443
6869.74360863441,-0.022458333378974293
6869.744608406625,-0.022736346030950417
6869.7456081788405,-0.02301175268764261
6869.746607951056,-0.023284499495886755
6869.747607723271,-0.023554533499768212
6869.748607495487,-0.02382180264836904
6869.749607267701,-0.024086255803062492
6869.750607039917,-0.024347842744360044
6869.751606812132,-0.024606514178315966
6869.752606584348,-0.024862221742494223
6869.753606356562,-0.025114918011502275
6869.754606128778,-0.02536455650209644
6869.755605900993,-0.025611091677863303
6869.7566056732085,-0.025854478953482044
6869.757605445424,-0.02609467469857271
6869.758605217639,-0.026331636241135926
6869.759604989854,-0.026565321870589804
6869.760604762069,-0.026795690840410176
6869.761604534285,-0.02702270337038066
6869.7626043065,-0.02724632064845932
6869.763604078716,-0.02746650483226887
6869.76460385093,-0.027683219050217617
6869.765603623146,-0.027896427402258415
6869.766603395361,-0.02810609496029309
6869.767603167576,-0.028312187768229673
6869.768602939792,-0.02851467284169988
6869.769602712007,-0.02871351816744408
6869.770602484222,-0.028908692702370765
6869.771602256437,-0.029100166372297388
6869.772602028653,-0.029287910070379237
6869.773601800868,-0.029471895655232845
6869.774601573084,-0.029652095948760362
6869.775601345298,-0.029828484733681392
6869.776601117514,-0.030001036750778767
6869.777600889729,-0.030169727695865064
6869.778600661944,-0.030334534216476895
6869.77960043416,-0.030495433908304257
6869.780600206375,-0.030652405311362464
6869.78159997859,-0.030805427905914597
6869.782599750805,-0.030954482108152465
6869.783599523021,-0.031099549265644337
6869.784599295236,-0.03124061165255763
6869.785599067452,-0.03137765246466493
6869.786598839666,-0.0315106558141417
6869.787598611882,-0.0316396067241638
6869.788598384097,-0.03176449112331311
6869.789598156312,-0.031885295839799
6869.790597928528,-0.03200200859550349
6869.791597700743,-0.03211461799985718
6869.792597472958,-0.03222311354355315
6869.793597245173,-0.03232748559210526
6869.794597017389,-0.03242772537925726
6869.795596789604,-0.0325238250002491
6869.79659656182,-0.03261577740494641
6869.797596334034,-0.032703576390839526
6869.7985961062495,-0.03278721659591807
6869.799595878465,-0.032866693491427595
6869.80059565068,-0.03294200337451447
6869.801595422896,-0.03301314336076555
6869.802595195111,-0.033080111376649096
6869.803594967326,-0.03314290615186348
6869.804594739541,-0.03320152721160011
6869.805594511757,-0.033255974868726966
6869.806594283972,-0.03330625021589902
6869.807594056187,-0.033352355117601526
6869.808593828402,-0.03339429220213195
6869.8095936006175,-0.03343206485352604
6869.810593372833,-0.03346567720343294
6869.811593145048,-0.03349513412294409
6869.812592917264,-0.033520441214379894
6869.813592689479,-0.03354160480303828
6869.814592461694,-0.03355863192890848
6869.815592233909,-0.03357153033835371
6869.816592006125,-0.033580308475765895
6869.81759177834,-0.03358497547519615
6869.818591550555,-0.03358554115196422
6869.81959132277,-0.033582015994250716
6869.8205910949855,-0.03357441115467579
6869.821590867201,-0.03356273844186805
6869.822590639416,-0.03354701031202743
6869.823590411632,-0.033527239860485857
6869.824590183846,-0.03350344081326935
6869.825589956062,-0.0334756275186651
6869.826589728277,-0.0334438149387972
6869.827589500493,-0.033408018641214406
6869.828589272708,-0.03336825479049318
6869.829589044923,-0.033324540139859145
6869.830588817138,-0.03327689202282972
6869.8315885893535,-0.033225328344880366
6869.832588361569,-0.033169867575136736
6869.833588133784,-0.03311052873809455
6869.834587906,-0.033047331405369036
6869.835587678214,-0.03298029568747539
6869.83658745043,-0.03290944222564206
6869.837587222645,-0.03283479218365838
6869.838586994861,-0.03275636723975853
6869.839586767076,-0.03267418957854363
6869.840586539291,-0.03258828188294429
6869.841586311506,-0.0324986673262256
6869.8425860837215,-0.03240536956403679
6869.843585855937,-0.032308412726507876
6869.844585628152,-0.032207821410395236
6869.845585400368,-0.03210362067127835
6869.846585172582,-0.03199583601580964
6869.847584944798,-0.031884493394019324
6869.848584717013,-0.03176961919167722
6869.849584489229,-0.031651240222712936
6869.850584261444,-0.03152938372169591
6869.851584033659,-0.03140407733637638
6869.852583805874,-0.03127534912028786
6869.8535835780895,-0.03114322752541181
6869.854583350305,-0.03100774139490469
6869.85558312252,-0.030868919955887645
6869.856582894736,-0.030726792812299134
6869.85758266695,-0.030581389937810788
6869.858582439166,-0.03043274166880693
6869.859582211381,-0.03028087869742826
6869.860581983597,-0.030125832064680346
6869.861581755812,-0.0299676331536076
6869.862581528027,-0.029806313682533385
6869.863581300242,-0.02964190569836703
6869.864581072457,-0.02947444156997832
6869.865580844673,-0.029303953981640127
6869.866580616888,-0.0291304759265397
6869.867580389104,-0.028954040700358966
6869.868580161318,-0.028774681894923992
6869.869579933534,-0.02859243339192336
6869.870579705749,-0.028407329356694714
6869.871579477965,-0.028219404232078367
6869.872579250179,-0.02802869273233629
6869.873579022395,-0.027835229837134427
6869.87457879461,-0.027639050785586112
6869.875578566825,-0.027440191070354218
6869.876578339041,-0.027238686431809808
6869.877578111256,-0.02703457285224523
6869.878577883472,-0.02682788655013983
6869.879577655686,-0.02661866397447673
6869.880577427902,-0.026406941799109344
6869.881577200117,-0.026192756917176475
6869.882576972333,-0.02597614643556483
6869.883576744547,-0.02575714766941802
6869.8845765167625,-0.02553579813669092
6869.885576288978,-0.0253121355527483
6869.886576061193,-0.025086197825006547
6869.887575833409,-0.024858023047617292
6869.888575605624,-0.02462764949619157
6869.889575377839,-0.02439511562256293
6869.890575150054,-0.024160460049587572
6869.89157492227,-0.023923721565979276
6869.892574694485,-0.02368493912117648
6869.893574466701,-0.023444151820238405
6869.894574238915,-0.023201398918767
6869.8955740111305,-0.022956719817851277
6869.896573783346,-0.02271015405903048
6869.897573555561,-0.022461741319272723
6869.898573327777,-0.022211521405965672
6869.899573099992,-0.021959534251916133
6869.900572872207,-0.02170581991035528
6869.901572644422,-0.021450418549946518
6869.902572416638,-0.021193370449792845
6869.903572188853,-0.020934715994440595
6869.9045719610685,-0.020674495668876556
6869.905571733283,-0.02041275005351537
6869.9065715054985,-0.020149519819174136
6869.907571277714,-0.019884845722031197
6869.908571049929,-0.01961876859856602
6869.909570822145,-0.01935132936047701
6869.91057059436,-0.019082568989573973
6869.911570366575,-0.01881252853264179
6869.91257013879,-0.018541249096271736
6869.913569911006,-0.0182687718416568
6869.914569683221,-0.017995137979347448
6869.9155694554365,-0.01772038876396437
6869.916569227651,-0.017444565488864985
6869.9175689998665,-0.01716770948076082
6869.918568772082,-0.016889862094283205
6869.919568544297,-0.01661106470649517
6869.920568316513,-0.016331358711347818
6869.921568088728,-0.016050785514079936
6869.922567860943,-0.01576938652555992
6869.923567633158,-0.015487203156569564
6869.924567405374,-0.015204276812029682
6869.925567177589,-0.01492064888516768
6869.9265669498045,-0.01463636075162777
6869.927566722019,-0.014351453763524554
6869.9285664942345,-0.014065969243440914
6869.92956626645,-0.01377994847837121
6869.930566038665,-0.01349343271361079
6869.931565810881,-0.013206463146592708
6869.932565583096,-0.012919080920672489
6869.933565355311,-0.012631327118861812
6869.934565127526,-0.012343242757511958
6869.935564899742,-0.012054868779948005
6869.936564671957,-0.011766246050055065
6869.937564444172,-0.011477415345818205
6869.938564216387,-0.011188417352818135
6869.9395639886025,-0.010899292657685092
6869.940563760818,-0.010610081741513795
6869.941563533033,-0.010320824973242677
6869.942563305249,-0.01003156260300085
6869.943563077464,-0.009742334755426485
6869.944562849679,-0.009453181422960373
6869.945562621894,-0.00916414245911857
6869.94656239411,-0.008875257571748096
6869.947562166325,-0.008586566316269615
6869.94856193854,-0.008298108088910978
6869.949561710755,-0.008009922119935358
6869.95056148297,-0.007722047466867431
6869.951561255186,-0.007434523007720804
6869.952561027401,-0.007147387434229601
6869.953560799617,-0.0068606792450869244
6869.954560571831,-0.00657443673919279
6869.955560344047,-0.006288698008914104
6869.956560116262,-0.006003500933359343
6869.957559888478,-0.00571888317167067
6869.958559660693,-0.005434882156336401
6869.959559432908,-0.0051515350865268955
6869.960559205123,-0.004868878921457157
6869.961558977338,-0.004586950373779539
6869.962558749554,-0.0043057859030101705
6869.963558521769,-0.00402542170899281
6869.964558293985,-0.00374589372540396
6869.965558066199,-0.003467237613303155
6869.966557838415,-0.003189488754732364
6869.96755761063,-0.002912682246368414
6869.968557382846,-0.002636852893232224
6869.969557155061,-0.0023620352024584634
6869.970556927276,-0.002088263377128961
6869.971556699491,-0.001815571310172856
6869.972556471706,-0.001543992578336127
6869.973556243922,-0.0012735604362228055
6869.974556016137,-0.0010043078104099309
6869.975555788353,-0.0007362672936381495
6869.976555560567,-0.00046947113907983186
6869.977555332783,-0.00020395125468666142
6869.978555104998,6.0260802381213374e-05
6869.979554877214,0.0003231338312422107
6869.980554649429,0.0005846369926941238
6869.981554421644,0.0008447398145261648
6869.982554193859,0.0011034121967396064
6869.983553966074,0.001360624416674327
6869.98455373829,0.0016163471340385498
6869.985553510505,0.0018705513958390896
6869.986553282721,0.0021232086412094724
6869.987553054935,0.0023742907061333972
6869.988552827151,0.0026237698280611775
6869.989552599366,0.0028716186504170412
6869.9905523715815,0.0031178102269954896
6869.991552143797,0.003362318026245268
6869.992551916012,0.003605115935439851
6869.993551688227,0.0038461782647337007
6869.994551460442,0.004085479751103845
6869.995551232658,0.004322995562176529
6869.996551004873,0.004558701299938802
6869.997550777089,0.004792573004334968
6869.998550549303,0.005024587156747726
6869.999550321519,0.005254720683363768
6870.000550093734,0.005482950958423378
6870.0015498659495,0.005709255807353453
6870.002549638164,0.005933613509783122
6870.00354941038,0.006156002802440959
6870.004549182595,0.006376402881932607
6870.00554895481,0.006594793407397516
6870.006548727026,0.006811154503043369
6870.007548499241,0.007025466760556751
6870.008548271457,0.0072377112413886495
6870.009548043671,0.007447869478913533
6870.010547815887,0.007655923480460912
6870.011547588102,0.007861855729218608
6870.0125473603175,0.008065649186007186
6870.013547132532,0.008267287290925214
6870.014546904748,0.008466753964865223
6870.015546676963,0.00866403361090023
6870.016546449178,0.008859111115540665
6870.017546221394,0.009051971849861394
6870.018545993609,0.009242601670498316
6870.019545765824,0.009430986920513878
6870.020545538039,0.009617114430130597
6870.021545310255,0.009800971517331634
6870.02254508247,0.009982545988327294
6870.0235448546855,0.010161826137886357
6870.0245446269,0.010338800749531085
6870.025544399116,0.010513459095594702
6870.026544171331,0.010685790937140205
6870.027543943546,0.010855786523739364
6870.028543715762,0.011023436593110838
6870.029543487977,0.011188732370616475
6870.030543260192,0.011351665568615065
6870.031543032407,0.011512228385673045
6870.032542804623,0.011670413505631938
6870.033542576838,0.01182621409653252
6870.0345423490535,0.011979623809395814
6870.035542121268,0.012130636776861096
6870.036541893483,0.012279247611681005
6870.037541665699,0.0124254514050737
6870.038541437914,0.01256924372493187
6870.03954121013,0.012710620613888092
6870.040540982345,0.012849578587235956
6870.04154075456,0.012986114630706086
6870.042540526775,0.013120226198096196
6870.043540298991,0.013251911208754205
6870.044540071206,0.013381168044913525
6870.0455398434215,0.013507995548879687
6870.046539615636,0.01363239302006762
6870.047539387851,0.013754360211889112
6870.048539160067,0.01387389732849015
6870.049538932282,0.013991005021338227
6870.050538704498,0.014105684385659983
6870.051538476713,0.01421793695673002
6870.052538248928,0.014327764706012193
6870.053538021143,0.014435170037155087
6870.054537793359,0.01454015578184369
6870.055537565574,0.014642725195509684
6870.056537337789,0.014742881952902865
6870.057537110004,0.014840630143526361
6870.058536882219,0.014935974266938323
6870.059536654435,0.015028919227922906
6870.06053642665,0.015119470331533257
6870.061536198866,0.015207633278009376
6870.062535971081,0.015293414157573671
6870.063535743296,0.015376819445107165
6870.064535515511,0.015457855994709337
6870.065535287727,0.01553653103414477
6870.066535059942,0.015612852159179819
6870.0675348321565,0.015686827327812812
6870.068534604372,0.015758464854401463
6870.069534376587,0.015827773403691556
6870.070534148803,0.01589476198475136
6870.071533921018,0.01595943994481659
6870.072533693234,0.016021816963051203
6870.073533465449,0.016081903044229705
6870.074533237664,0.016139708512346834
6870.075533009879,0.016195244004160805
6870.076532782095,0.01624852046267632
6870.07753255431,0.01629954913057355
6870.0785323265245,0.016348341543589273
6870.07953209874,0.016394909523856218
6870.080531870955,0.016439265173206537
6870.081531643171,0.016481420866445252
6870.082531415386,0.0165213892445994
6870.083531187602,0.01655918320814849
6870.084530959816,0.016594815910241787
6870.085530732032,0.016628300749907683
6870.086530504247,0.016659651365260306
6870.087530276463,0.01668888162670831
6870.088530048678,0.016716005630170682
6870.0895298208925,0.01674103769030433
6870.090529593108,0.016763992333748336
6870.091529365323,0.016784884292389817
6870.092529137539,0.0168037284966565
6870.093528909754,0.01682054006884121
6870.09452868197,0.016835334316463536
6870.095528454184,0.016848126725673887
6870.0965282264,0.01685893295470489
6870.097527998615,0.016867768827374823
6870.098527770831,0.01687465032664743
6870.099527543046,0.01687959358825204
6870.1005273152605,0.01688261489436747
6870.101527087476,0.016883730667372945
6870.102526859691,0.016882957463668767
6870.103526631907,0.01688031196756938
6870.104526404122,0.016875810985271102
6870.105526176338,0.016869471438896645
6870.106525948552,0.0168613103606184
6870.107525720768,0.01685134488686243
6870.108525492983,0.016839592252595112
6870.109525265199,0.016826069785694366
6870.110525037414,0.01681079490140777
6870.1115248096285,0.01679378509689968
6870.112524581844,0.016775057945890008
6870.113524354059,0.01675463109338714
6870.114524126275,0.016732522250517697
6870.11552389849,0.016708749189455613
6870.116523670706,0.016683329738452976
6870.11752344292,0.01665628177697481
6870.118523215136,0.01662762323093977
6870.119522987351,0.0165973720680684
6870.120522759567,0.016565546293340477
6870.121522531782,0.016532163944562667
6870.122522303996,0.016497243088047613
6870.123522076212,0.016460801814405308
6870.124521848427,0.016422858234447606
6870.125521620643,0.016383430475206545
6870.126521392858,0.01634253667606698
6870.127521165074,0.01630019498501409
6870.128520937288,0.016256423554996263
6870.129520709504,0.016211240540403935
6870.130520481719,0.016164664093665196
6870.131520253935,0.016116712361959166
6870.132520026149,0.016067403484048424
6870.133519798364,0.016016755587231913
6870.13451957058,0.015964786784419784
6870.135519342795,0.015911515171331582
6870.136519115011,0.015856958823819132
6870.137518887226,0.015801135795315103
6870.138518659442,0.015744064114408075
6870.139518431656,0.01568576178254448
6870.140518203872,0.015626246771857467
6870.141517976087,0.015565537023122477
6870.142517748302,0.015503650443838867
6870.143517520517,0.015440604906436766
6870.144517292732,0.015376418246608108
6870.145517064948,0.015311108261760655
6870.146516837163,0.015244692709593733
6870.147516609379,0.015177189306794448
6870.148516381594,0.015108615727853164
6870.149516153809,0.015038989603997252
6870.150515926024,0.014968328522242308
6870.15151569824,0.0148966500245602
6870.152515470455,0.014823971607163589
6870.15351524267,0.014750310719906583
6870.154515014885,0.014675684765801274
6870.1555147871,0.014600111100649711
6870.156514559316,0.014523607032790663
6870.157514331531,0.014446189822960167
6870.158514103747,0.014367876684264468
6870.159513875962,0.014288684782263607
6870.160513648177,0.014208631235163562
6870.161513420392,0.014127733114114551
6870.162513192608,0.01404600744361291
6870.163512964823,0.013963471202003756
6870.164512737038,0.013880141322081626
6870.165512509253,0.013796034691786186
6870.166512281468,0.013711168154990164
6870.167512053684,0.013625558512376694
6870.168511825899,0.013539222522403322
6870.169511598115,0.013452176902350095
6870.17051137033,0.013364438329449311
6870.171511142545,0.013276023442094678
6870.17251091476,0.01318694884112787
6870.173510686976,0.013097231091200506
6870.174510459191,0.013006886722209768
6870.175510231406,0.012915932230805635
6870.176510003621,0.012824384081967769
6870.177509775836,0.012732258710649686
6870.178509548052,0.012639572523487684
6870.179509320267,0.01254634190057169
6870.180509092483,0.012452583197274976
6870.181508864698,0.012358312746139483
6870.182508636913,0.01226354685881335
6870.183508409128,0.012168301828037157
6870.184508181344,0.012072593929675354
6870.185507953559,0.01197643942478934
6870.186507725774,0.011879854561748624
6870.187507497989,0.01178285557837656
6870.188507270204,0.011685458704127261
6870.18950704242,0.011587680162290392
6870.190506814635,0.011489536172220736
6870.191506586851,0.011391042951589561
6870.192506359066,0.01129221671865496
6870.193506131281,0.011193073694548378
6870.194505903496,0.011093630105574685
6870.195505675712,0.010993902185522927
6870.196505447927,0.010893906177984924
6870.1975052201415,0.010793658338678552
6870.198504992357,0.010693174937772427
6870.199504764572,0.010592472262208495
6870.200504536788,0.010491566618018908
6870.201504309003,0.010390474332633442
6870.202504081219,0.010289211757173632
6870.203503853434,0.010187795268729854
6870.204503625649,0.01008624127261754
6870.205503397864,0.00998456620460878
6870.20650317008,0.009882786533135587
6870.207502942295,0.009780918761461243
6870.208502714509,0.009678979429816178
6870.209502486725,0.009576985117495171
6870.21050225894,0.009474952444912858
6870.211502031156,0.009372898075614875
6870.212501803371,0.009270838718242295
6870.213501575587,0.009168791128447297
6870.214501347801,0.009066772110758166
6870.215501120017,0.00896479852039188
6870.216500892232,0.008862887265012477
6870.217500664448,0.008761055306433318
6870.218500436663,0.008659319662261201
6870.219500208877,0.008557697407480094
6870.220499981093,0.008456205675972028
6870.221499753308,0.008354861661972522
6870.222499525524,0.008253682621457741
6870.223499297739,0.00815268587346045
6870.224499069955,0.008051888801311687
6870.225498842169,0.007951308853805026
6870.226498614385,0.00785096354628009
6870.2274983866,0.007750870461622063
6870.228498158816,0.007651047251173964
6870.229497931031,0.007551511635558668
6870.230497703245,0.007452281405407992
6870.231497475461,0.0073533744219965525
6870.232497247676,0.0072548086177784835
6870.233497019892,0.007156601996825474
6870.234496792107,0.007058772635164819
6870.235496564323,0.006961338681016258
6870.236496336537,0.006864318354926407
6870.237496108753,0.006767729949799449
6870.238495880968,0.006671591830822631
6870.239495653183,0.00657592243528492
6870.240495425399,0.006480740272287027
6870.241495197613,0.006386063922340858
6870.242494969829,0.006291912036856301
6870.243494742044,0.006198303337513166
6870.24449451426,0.006105256615515991
6870.245494286475,0.006012790730729381
6870.246494058691,0.005920924610691553
6870.247493830905,0.0058296772495037815
6870.248493603121,0.005739067706593533
6870.249493375336,0.005649115105349296
6870.250493147551,0.0055598386316253225
6870.251492919767,0.0054712575321148715
6870.252492691981,0.005383391112590883
6870.253492464197,0.0052962587360133595
6870.254492236412,0.005209879820502987
6870.255492008628,0.005124273837180698
6870.256491780843,0.005039460307872886
6870.257491553059,0.004955458802681991
6870.258491325273,0.004872288937422085
6870.2594910974885,0.004789970370918993
6870.260490869704,0.004708522802174412
6870.261490641919,0.004627965967393491
6870.262490414134,0.004548319636875325
6870.263490186349,0.004469603611765904
6870.264489958565,0.004391837720673151
6870.26548973078,0.0043150418161437935
6870.266489502996,0.004239235771001989
6870.267489275211,0.004164439474549757
6870.268489047427,0.004090672828629519
6870.269488819641,0.004017955743549336
6870.2704885918565,0.003946308133871778
6870.271488364072,0.003875749914067771
6870.272488136287,0.0038063009940371355
6870.273487908502,0.0037379812744978832
6870.274487680717,0.0036708106422465676
6870.275487452933,0.003604808965292132
6870.276487225148,0.003539996087865727
6870.277486997364,0.0034763918253088834
6870.278486769579,0.003414015958842322
6870.279486541794,0.003352888230217523
6870.280486314009,0.003293028336253085
6870.2814860862245,0.0032344559232578207
6870.28248585844,0.0031771905813425135
6870.283485630655,0.0031212518386222673
6870.28448540287,0.0030666591553113872
6870.285485175085,0.003013431917712761
6870.286484947301,0.002961589432103728
6870.287484719516,0.0029111509185205135
6870.288484491732,0.002862135504443424
6870.289484263947,0.0028145622183851885
6870.290484036162,0.002768449983385101
6870.291483808377,0.0027238176104119206
6870.2924835805925,0.0026806837916787834
6870.293483352808,0.0026390670938736343
6870.294483125023,0.0025989859513088475
6870.295482897238,0.002560458658993787
6870.296482669453,0.0025235033656340446
6870.297482441669,0.0024881380665610314
6870.298482213884,0.002454380596595486
6870.2994819861,0.002422248622848368
6870.300481758315,0.002391759637462504
6870.30148153053,0.00236293095029828
6870.302481302745,0.0023357796815666214
6870.3034810749605,0.0023103227544124744
6870.304480847176,0.0022865768874519594
6870.305480619391,0.00226455858726637
6870.306480391606,0.002244284140856161
6870.307480163821,0.002225769608058104
6870.308479936037,0.002209030813928851
6870.309479708252,0.002194083341098314
6870.310479480468,0.0021809425220965105
6870.311479252683,0.0021696234316577983
6870.312479024898,0.0021601408790067333
6870.313478797113,0.002152509400130028
6870.3144785693285,0.002146743250039276
6870.315478341544,0.0021428563950291993
6870.316478113759,0.0021408625049361635
6870.317477885974,0.0021407749454016305
6870.318477658189,0.0021426067701450493
6870.319477430405,0.0021463707132505024
6870.32047720262,0.002152079181471207
6870.321476974836,0.0021597442465557818
6870.322476747051,0.002169377637600015
6870.323476519266,0.0021809907334277207
6870.324476291481,0.002194594555004149
6870.325476063696,0.002210199757885296
6870.326475835912,0.002227816624706329
6870.327475608126,0.002247455057712263
6870.328475380342,0.0022691245713339823
6870.329475152557,0.0022928342848127243
6870.330474924773,0.0023185929148762563
6870.331474696988,0.0023464087684700566
6870.332474469204,0.002376289735546908
6870.333474241419,0.0024082432819183103
6870.334474013634,0.0024422764421710387
6870.335473785849,0.0024783958126519965
6870.336473558064,0.0025166075445242613
6870.33747333028,0.002556917336896889
6870.338473102494,0.002599330430030698
6870.33947287471,0.002643851598621906
6870.340472646925,0.0026904851451651454
6870.341472419141,0.0027392348933970847
6870.342472191356,0.0027901041818216184
6870.343471963572,0.00284309585731735
6870.344471735786,0.0028982122688279563
6870.3454715080015,0.0029554552611359077
6870.346471280217,0.003014826168719997
6870.347471052432,0.003076325809697196
6870.348470824648,0.0031399544798494904
6870.349470596862,0.0032057119467365607
6870.350470369078,0.0032735974438954265
6870.351470141293,0.003343609665128436
6870.352469913509,0.0034157467588811796
6870.353469685724,0.0034900063227120584
6870.35446945794,0.0035663853978552666
6870.355469230154,0.0036448804638789223
6870.3564690023695,0.0037254874334399354
6870.357468774585,0.003808201647137024
6870.3584685468,0.003893017868463078
6870.359468319016,0.003979930278857844
6870.36046809123,0.0040689324728617445
6870.361467863446,0.004160017453371467
6870.362467635661,0.004253177626997903
6870.363467407877,0.004348404799526861
6870.364467180092,0.004445690171482987
6870.365466952308,0.00454502433379724
6870.366466724522,0.0046463972635783
6870.3674664967375,0.0047497983199883565
6870.368466268953,0.004855216240223844
6870.369466041168,0.004962639135601908
6870.370465813384,0.0050720544877536555
6870.371465585598,0.005183449144925507
6870.372465357814,0.005296809318390212
6870.373465130029,0.005412120578969308
6870.374464902245,0.005529367853668902
6870.37546467446,0.005648535422430728
6870.376464446676,0.00576960691500035
6870.37746421889,0.005892565307914386
6870.3784639911055,0.006017392921608473
6870.379463763321,0.006144071417647657
6870.380463535536,0.006272581796080785
6870.381463307752,0.006402904392920422
6870.382463079966,0.006535018877749869
6870.383462852182,0.006668904251458805
6870.384462624397,0.006804538844109183
6870.385462396613,0.006941900312933098
6870.386462168828,0.00708096564046446
6870.387461941044,0.007221711132806495
6870.388461713258,0.007364112418037338
6870.3894614854735,0.007508144444756244
6870.390461257689,0.0076537814807733535
6870.391461029904,0.007800997111946277
6870.392460802119,0.007949764241167065
6870.393460574334,0.008100055087503501
6870.39446034655,0.00825184118549878
6870.395460118765,0.00840509338463381
6870.396459890981,0.008559781848956336
6870.397459663196,0.008715876056881055
6870.398459435412,0.008873344801164706
6870.399459207626,0.009032156189059965
6870.4004589798415,0.009192277642651814
6870.401458752057,0.00935367589937987
6870.402458524272,0.009516317012750075
6870.403458296487,0.009680166353239116
6870.404458068702,0.009845188609394916
6870.405457840918,0.010011347789136637
6870.406457613133,0.01017860722125768
6870.407457385349,0.010346929557135346
6870.408457157564,0.01051627677265094
6870.409456929779,0.01068661017032439
6870.410456701994,0.010857890381667727
6870.411456474209,0.011030077369762045
6870.412456246425,0.011203130432062773
6870.41345601864,0.011377008203438354
6870.414455790855,0.011551668659447463
6870.41545556307,0.011727069119859925
6870.416455335286,0.011903166252426439
6870.417455107501,0.012079916076902005
6870.418454879717,0.01225727396932778
6870.419454651932,0.01243519466657576
6870.420454424147,0.012613632271160526
6870.421454196362,0.01279254025632205
6870.422453968577,0.012971871471383347
6870.423453740793,0.013151578147386656
6870.424453513008,0.013331611903011855
6870.425453285223,0.013511923750780747
6870.426453057438,0.013692464103551072
6870.427452829654,0.013873182781304148
6870.428452601869,0.014054029018230411
6870.429452374085,0.014234951470117305
6870.4304521463,0.014415898222044298
6870.4314519185145,0.014596816796389944
6870.43245169073,0.014777654161156058
6870.433451462945,0.014958356738613997
6870.434451235161,0.015138870414277951
6870.435451007376,0.015319140546209831
6870.436450779591,0.015499111974660055
6870.437450551806,0.015678729032048245
6870.438450324022,0.015857935553287357
6870.439450096237,0.016036674886454487
6870.440449868453,0.016214889903811158
6870.441449640668,0.0163925230131756
6870.4424494128825,0.01656951616964932
6870.443449185098,0.016745810887699948
6870.444448957313,0.016921348253602277
6870.445448729529,0.017096068938239166
6870.446448501744,0.01726991321026397
6870.447448273959,0.017442820949626046
6870.448448046174,0.017614731661460853
6870.44944781839,0.017785584490346226
6870.450447590605,0.017955318234926368
6870.4514473628205,0.018123871362905285
6870.452447135036,0.018291182026411352
6870.4534469072505,0.018457188077734634
6870.454446679466,0.018621827085438452
6870.455446451681,0.018785036350846492
6870.456446223897,0.018946752924906295
6870.457445996111,0.01910691362542962
6870.458445768327,0.019265455054709727
6870.459445540542,0.019422313617515164
6870.460445312758,0.019577425539459292
6870.461445084973,0.01973072688574443
6870.4624448571885,0.019882153580279158
6870.463444629404,0.020031641425167113
6870.4644444016185,0.020179126120565296
6870.465444173834,0.0203245432849097
6870.466443946049,0.02046782847550589
6870.467443718265,0.020608917209481943
6870.468443490479,0.020747744985101214
6870.469443262695,0.020884247303432205
6870.47044303491,0.021018359690372912
6870.471442807126,0.021150017719027105
6870.472442579341,0.02127915703243001
6870.4734423515565,0.02140571336662093
6870.474442123771,0.02152962257406023
6870.4754418959865,0.021650820647387974
6870.476441668202,0.02176924374352136
6870.477441440417,0.02188482820808777
6870.478441212633,0.021997510600189937
6870.479440984847,0.022107227717499366
6870.480440757063,0.02221391662167396
6870.481440529278,0.022317514664095428
6870.482440301494,0.022417959511921874
6870.483440073709,0.022515189174450768
6870.4844398459245,0.02260914202978726
6870.485439618139,0.02269975685181259
6870.4864393903545,0.022786972837446965
6870.48743916257,0.02287072963420121
6870.488438934785,0.0229509673680111
6870.489438707001,0.023027626671348236
6870.490438479215,0.023100648711601186
6870.491438251431,0.02316997521972054
6870.492438023646,0.02323554851912135
6870.493437795862,0.023297311554836216
6870.494437568077,0.02335520792291192
6870.4954373402925,0.02340918190004201
6870.496437112507,0.02345917847342734
6870.497436884722,0.023505143370855755
6870.498436656938,0.023547023090991503
6870.499436429153,0.02358476493386421
6870.500436201369,0.023618317031546255
6870.501435973583,0.023647628379006476
6870.502435745799,0.023672648865126964
6870.503435518014,0.02369332930386851
6870.50443529023,0.023709621465568827
6870.505435062445,0.02372147810835601
6870.5064348346605,0.02372885300965808
6870.507434606875,0.02373170099778754
6870.50843437909,0.023729977983577778
6870.509434151306,0.023723640992046213
6870.510433923521,0.023712648194056718
6870.511433695737,0.02369695893795154
6870.512433467951,0.0236765337811205
6870.513433240167,0.023651334521472608
6870.514433012382,0.023621324228772455
6870.515432784598,0.02358646727580097
6870.516432556813,0.023546729369297085
6870.517432329028,0.023502077580633985
6870.518432101243,0.02345248037618066
6870.519431873458,0.023397907647296688
6870.520431645674,0.023338330739905634
6870.521431417889,0.02327372248359021
6870.522431190105,0.023204057220150065
6870.523430962319,0.023129310831561598
6870.524430734535,0.02304946076727782
6870.52543050675,0.02296448607080528
6870.526430278966,0.022874367405494662
6870.527430051181,0.02277908707948146
6870.528429823396,0.022678629069713803
6870.529429595611,0.022572979045005402
6870.530429367826,0.022462124388053274
6870.531429140042,0.022346054216361995
6870.532428912257,0.02222475940201885
6870.533428684472,0.02209823259026698
6870.534428456687,0.02196646821682672
6870.535428228903,0.021829462523918236
6870.536428001118,0.02168721357494184
6870.537427773334,0.021539721267775435
6870.538427545549,0.02138698734665215
6870.539427317764,0.021229015412585008
6870.540427089979,0.021065810932309477
6870.541426862194,0.02089738124571914
6870.54242663441,0.020723735571774135
6870.543426406625,0.020544885012866727
6870.54442617884,0.020360842557632826
6870.545425951055,0.020171623082202755
6870.546425723271,0.019977243349888967
6870.547425495486,0.019777722009312566
6870.5484252677015,0.019573079590974672
6870.549425039917,0.019363338502282685
6870.550424812132,0.01914852302104556
6870.551424584347,0.018928659287456278
6870.552424356562,0.018703775294583683
6870.553424128778,0.018473900877399627
6870.554423900993,0.01823906770037125
6870.555423673208,0.017999309243651354
6870.556423445423,0.0177546607879029
6870.557423217639,0.017505159397796066
6870.558422989854,0.017250843904218473
6870.5594227620695,0.016991754885240684
6870.560422534285,0.016727934645880554
6870.5614223065,0.016459427196710886
6870.562422078715,0.016186278231355662
6870.56342185093,0.015908535102920486
6870.564421623146,0.015626246799403117
6870.565421395361,0.01533946391813
6870.566421167576,0.015048238639264501
6870.567420939791,0.014752624698432339
6870.568420712007,0.014452677358509304
6870.569420484222,0.014148453380615931
6870.5704202564375,0.013840010994363305
6870.571420028653,0.013527409867393652
6870.572419800868,0.013210711074258712
6870.573419573083,0.012889977064678296
6870.574419345298,0.012565271631220643
6870.575419117514,0.012236659876445323
6870.576418889729,0.011904208179548624
6870.577418661944,0.011567984162550341
6870.578418434159,0.0112280566560599
6870.579418206375,0.010884495664658716
6870.58041797859,0.010537372331934658
6870.5814177508055,0.010186758905203475
6870.582417523021,0.009832728699951112
6870.583417295235,0.009475356064029912
6870.584417067451,0.009114716341640808
6870.585416839666,0.008750885837132735
6870.586416611882,0.008383941778649668
6870.587416384097,0.008013962281654859
6870.588416156312,0.007641026312361108
6870.589415928527,0.007265213651095217
6870.590415700743,0.006886604855624107
6870.591415472958,0.006505281224469558
6870.5924152451735,0.006121324760237922
6870.593415017389,0.005734818132990549
6870.594414789603,0.0053458446436799876
6870.595414561819,0.0049544881876762556
6870.596414334034,0.00456083321840664
6870.59741410625,0.004164964711131579
6870.598413878464,0.00376696812687823
6870.59941365068,0.0033669293765523954
6870.600413422895,0.0029649347852485387
6870.601413195111,0.0025610710567767776
6870.602412967326,0.0021554252384249264
6870.603412739541,0.0017480846859729566
6870.604412511756,0.0013391370289765855
6870.605412283971,0.000928670136336122
6870.606412056187,0.000516772082166205
6870.607411828402,0.00010353111198164235
6870.608411600618,-0.00031096439078576383
6870.609411372832,-0.0007266259379247725
6870.610411145048,-0.0011433649692222225
6870.611410917263,-0.0015610928848663176
6870.612410689479,-0.001979721077461767
6870.613410461694,-0.002399160963643239
6870.614410233909,-0.0028193240152740834
6870.615410006124,-0.0032401217902178607
6870.616409778339,-0.0036614659626709213
6870.617409550555,-0.004083268353045026
6870.61840932277,-0.004505440957389819
6870.619409094986,-0.004927895976345824
6870.6204088672,-0.005350545843619441
6870.621408639416,-0.005773303253972264
6870.622408411631,-0.006196081190717779
6870.623408183847,-0.0066187929527191745
6870.624407956062,-0.007041352180882609
6870.625407728277,-0.007463672884140905
6870.626407500492,-0.007885669464923107
6870.627407272707,-0.008307256744105845
6870.628407044923,-0.008728349985442859
6870.629406817138,-0.009148864919469363
6870.630406589354,-0.009568717766878286
6870.631406361568,-0.009987825261365681
6870.632406133784,-0.010406104671942851
6870.633405905999,-0.01082347382471303
6870.634405678215,-0.01123985112411083
6870.63540545043,-0.01165515557360292
6870.636405222645,-0.012069306795848885
6870.63740499486,-0.012482225052321569
6870.638404767075,-0.012893831262386793
6870.639404539291,-0.013304047021842638
6870.640404311506,-0.013712794620919035
6870.641404083722,-0.014119997061738731
6870.642403855936,-0.014525578075241062
6870.643403628152,-0.014929462137570333
6870.644403400367,-0.015331574485930742
6870.645403172583,-0.01573184113391016
6870.646402944798,-0.016130188886275272
6870.647402717013,-0.01652654535324077
6870.648402489228,-0.016920838964215455
6870.649402261443,-0.017312998981028175
6870.650402033659,-0.017702955510636584
6870.651401805874,-0.018090639517321712
6870.65240157809,-0.018475982834371404
6870.653401350304,-0.018858918175255885
6870.65440112252,-0.01923937914429879
6870.655400894735,-0.019617300246847446
6870.656400666951,-0.019992616898946526
6870.657400439166,-0.020365265436519637
6870.658400211381,-0.0207351831240639
6870.659399983596,-0.02110230816286311
6870.660399755811,-0.02146657969872539
6870.661399528027,-0.02182793782925164
6870.662399300242,-0.022186323610641455
6870.663399072457,-0.02254167906404327
6870.664398844672,-0.022893947181455796
6870.665398616888,-0.02324307193118782
6870.666398389103,-0.0235889982628836
6870.667398161319,-0.02393167211212121
6870.668397933534,-0.024271040404590997
6870.669397705748,-0.02460705105986148
6870.670397477964,-0.024939652994739624
6870.671397250179,-0.025268796126232316
6870.672397022395,-0.025594431374115788
6870.67339679461,-0.025916510663119292
6870.674396566825,-0.026234986924729458
6870.67539633904,-0.02654981409862172
6870.676396111256,-0.026860947133725444
6870.677395883471,-0.027168341988929597
6870.678395655687,-0.02747195563343625
6870.679395427902,-0.027771746046769512
6870.680395200116,-0.028067672218447873
6870.681394972332,-0.02835969414732836
6870.682394744547,-0.02864777284063101
6870.683394516763,-0.028931870312652628
6870.684394288978,-0.02921194958317886
6870.685394061193,-0.02948797467560382
6870.686393833408,-0.029759910614766433
6870.687393605624,-0.030027723424512924
6870.688393377839,-0.030291380124994546
6870.689393150055,-0.030550848729709604
6870.69039292227,-0.030806098242298626
6870.691392694484,-0.031057098653101075
6870.6923924667,-0.03130382093548182
6870.693392238915,-0.03154623704193513
6870.694392011131,-0.031784319899973885
6870.695391783346,-0.03201804340781139
6870.696391555561,-0.03224738242984324
6870.697391327776,-0.03247231279193678
6870.698391099992,-0.032692811276535644
6870.699390872207,-0.0329088556175871
6870.700390644422,-0.03312042449530001
6870.701390416638,-0.03332749753074127
6870.702390188852,-0.03353005528027854
6870.703389961068,-0.033728079229877105
6870.704389733283,-0.033921551789258625
6870.705389505499,-0.03411045628592917
6870.706389277714,-0.03429477695908396
6870.707389049929,-0.034474498953396056
6870.708388822144,-0.03464960831269581
6870.70938859436,-0.034820091973547844
6870.710388366575,-0.034985937758731774
6870.71138813879,-0.03514713437063285
6870.712387911006,-0.0353036713845481
6870.71338768322,-0.03545553924191344
6870.714387455436,-0.0356027292434569
6870.715387227651,-0.03574523354228306
6870.716386999867,-0.03588304513689372
6870.717386772082,-0.03601615786414989
6870.718386544297,-0.03614456639218017
6870.719386316512,-0.036268266213240835
6870.720386088728,-0.036387253636532814
6870.721385860943,-0.03650152578098098
6870.722385633158,-0.03661108056798091
6870.723385405374,-0.03671591671411831
6870.724385177588,-0.036816033723866166
6870.725384949804,-0.03691143188226455
6870.726384722019,-0.03700211224758757
6870.727384494235,-0.037088076644002266
6870.728384266449,-0.03716932765422319
6870.729384038665,-0.03724586861216675
6870.73038381088,-0.03731770359560842
6870.731383583096,-0.037384837418845844
6870.732383355311,-0.03744727562537034
6870.733383127526,-0.03750502448054902
6870.734382899741,-0.03755809096431981
6870.735382671956,-0.03760648276390117
6870.736382444172,-0.03765020826651881
6870.737382216387,-0.037689276552151374
6870.738381988603,-0.037723697386297425
6870.739381760817,-0.03775348121276605
6870.740381533033,-0.03777863914649333
6870.741381305248,-0.03779918296638711
6870.742381077464,-0.03781512510820234
6870.743380849679,-0.03782647865744898
6870.744380621894,-0.03783325734233454
6870.745380394109,-0.03783547552674307
6870.746380166324,-0.037833148203252294
6870.74737993854,-0.03782629098619017
6870.748379710755,-0.037814920104732454
6870.749379482971,-0.03779905239604205
6870.750379255185,-0.03777870529845115
6870.751379027401,-0.037753896844686385
6870.752378799616,-0.0377246456551372
6870.753378571832,-0.037690970931167016
6870.754378344047,-0.03765289244846681
6870.755378116262,-0.03761043055045041
6870.756377888477,-0.037563606141690485
6870.757377660692,-0.037512440681394595
6870.758377432908,-0.037456956176920346
6870.759377205123,-0.03739717517732895
6870.760376977339,-0.03733312076697643
6870.761376749553,-0.03726481655914202
6870.762376521769,-0.03719228668969321
6870.763376293984,-0.03711555581078724
6870.7643760662,-0.03703464908460859
6870.765375838415,-0.036949592177142374
6870.76637561063,-0.03686041125198333
6870.767375382845,-0.036767132964180015
6870.76837515506,-0.0366697844541139
6870.769374927276,-0.03656839334141263
6870.770374699491,-0.03646298771889639
6870.771374471707,-0.03635359614655627
6870.772374243921,-0.03624024764556281
6870.773374016137,-0.03612297169230289
6870.774373788352,-0.03600179821244288
6870.775373560568,-0.035876757575015794
6870.776373332783,-0.03574788058653046
6870.777373104998,-0.0356151984851005
6870.778372877213,-0.03547874293459172
6870.779372649428,-0.0353385460187861
6870.780372421644,-0.03519464023556129
6870.781372193859,-0.03504705849108419
6870.782371966075,-0.034895834094017746
6870.783371738289,-0.03474100074973958
6870.784371510505,-0.03458259255457152
6870.78537128272,-0.03442064399001882
6870.786371054935,-0.03425518991701777
6870.787370827151,-0.03408626557019072
6870.788370599366,-0.03391390655210672
6870.789370371581,-0.03373814882754662
6870.790370143796,-0.033559028717770605
6870.791369916012,-0.033376582894786344
6870.792369688227,-0.03319084837561547
6870.793369460442,-0.03300186251655618
6870.794369232657,-0.03280966300743958
6870.795369004873,-0.03261428786587747
6870.796368777088,-0.03241577543149925
6870.797368549303,-0.032214164360175775
6870.798368321519,-0.0320094936182283
6870.799368093733,-0.031801802476620455
6870.800367865949,-0.03159113050513168
6870.801367638164,-0.031377517566510506
6870.80236741038,-0.031161003810606113
6870.803367182595,-0.03094162966847688
6870.80436695481,-0.030719435846474415
6870.805366727025,-0.03049446332030172
6870.8063664992405,-0.030266753329044105
6870.807366271456,-0.030036347369171382
6870.808366043671,-0.029803287188509713
6870.809365815887,-0.029567614780181276
6870.810365588101,-0.029329372376509785
6870.811365360317,-0.029088602442889487
6870.812365132532,-0.02884534767161532
6870.813364904748,-0.028599650975671596
6870.814364676963,-0.02835155548247658
6870.815364449178,-0.028101104527580387
6870.816364221393,-0.027848341648313638
6870.8173639936085,-0.027593310577384348
6870.818363765824,-0.02733605523642085
6870.819363538039,-0.027076619729458674
6870.820363310255,-0.026815048336369454
6870.821363082469,-0.026551385506230287
6870.822362854685,-0.02628567585063204
6870.8233626269,-0.026017964136925642
6870.824362399116,-0.025748295281405514
6870.825362171331,-0.025476714342429558
6870.826361943546,-0.02520326651347548
6870.827361715761,-0.024927997116133364
6870.8283614879765,-0.02465095159303453
6870.829361260192,-0.02437217550071672
6870.830361032407,-0.024091714502425737
6870.831360804623,-0.02380961436085356
6870.832360576837,-0.02352592093081304
6870.833360349053,-0.023240680151849522
6870.834360121268,-0.022953938040789757
6870.835359893484,-0.02266574068422901
6870.836359665699,-0.02237613423095755
6870.837359437914,-0.022085164884328105
6870.838359210129,-0.021792878894566416
6870.8393589823445,-0.021499322551027475
6870.84035875456,-0.021204542174400383
6870.841358526775,-0.020908584108865175
6870.842358298991,-0.020611494714205328
6870.843358071205,-0.02031332035787983
6870.844357843421,-0.020014107407058834
6870.845357615636,-0.01971390222062723
6870.846357387852,-0.01941275114116041
6870.847357160067,-0.019110700486876606
6870.848356932282,-0.01880779654357022
6870.849356704497,-0.018504085556530325
6870.8503564767125,-0.01819961372244847
6870.851356248928,-0.017894427181319693
6870.852356021143,-0.017588572008340443
6870.853355793359,-0.01728209420580694
6870.854355565573,-0.016975039695017485
6870.855355337789,-0.01666745430818228
6870.856355110004,-0.01635938378034433
6870.85735488222,-0.016050873741315252
6870.858354654434,-0.01574196970762993
6870.85935442665,-0.015432717074524156
6870.860354198865,-0.015123161107939652
6870.8613539710805,-0.014813346936560714
6870.862353743296,-0.014503319543887058
6870.863353515511,-0.014193123760347157
6870.864353287726,-0.013882804255456503
6870.865353059941,-0.013572405530025106
6870.866352832157,-0.013261971908418428
6870.867352604372,-0.012951547530875844
6870.868352376588,-0.012641176345890608
6870.869352148802,-0.012330902102655009
6870.870351921018,-0.012020768343574113
6870.871351693233,-0.011710818396851144
6870.872351465448,-0.011401095369147227
6870.873351237664,-0.011091642138317905
6870.874351009879,-0.010782501346228594
6870.875350782094,-0.010473715391650994
6870.876350554309,-0.010165326423242395
6870.877350326525,-0.009857376332609852
6870.87835009874,-0.009549906747461215
6870.879349870956,-0.00924295902484504
6870.88034964317,-0.008936574244481563
6870.881349415386,-0.008630793202186906
6870.882349187601,-0.008325656403392718
6870.883348959816,-0.0080212040567634
6870.884348732032,-0.0077174760679129695
6870.885348504247,-0.007414512033223463
6870.886348276462,-0.007112351233766578
6870.887348048677,-0.006811032629330002
6870.888347820893,-0.006510594852549558
6870.889347593108,-0.006211076203147947
6870.890347365324,-0.005912514642280444
6870.891347137538,-0.00561494778698757
6870.8923469097535,-0.005318412904754444
6870.893346681969,-0.005022946908176264
6870.894346454184,-0.004728586349729259
6870.8953462264,-0.004435367416646426
6870.896345998615,-0.004143325925897361
6870.89734577083,-0.003852497319271677
6870.898345543045,-0.0035629166585655534
6870.899345315261,-0.003274618620871165
6870.900345087476,-0.002987637493968794
6870.901344859692,-0.0027020071718215576
6870.902344631906,-0.002417761150172747
6870.9033444041215,-0.00213493252224585
6870.904344176337,-0.0018535539745473716
6870.905343948552,-0.001573657782772633
6870.906343720768,-0.0012952758078147314
6870.907343492983,-0.0010184394918768683
6870.908343265198,-0.0007431798546881809
6870.909343037413,-0.0004695274898230976
6870.910342809629,-0.00019751256112405472
6870.911342581844,7.283520077280257e-05
6870.91234235406,0.0003414865018095096
6870.913342126274,0.0006084124877764836
6870.9143418984895,0.0008735847474818227
6870.915341670705,0.0011369753158204598
6870.91634144292,0.0013985566767438346
6870.917341215136,0.0016583017661306201
6870.918340987351,0.0019161839745589183
6870.919340759566,0.0021721771499802465
6870.920340531781,0.002426255600295571
6870.921340303997,0.0026783940958336095
6870.922340076212,0.0029285678717315914
6870.923339848427,0.0031767526302186313
6870.924339620642,0.003422924542801817
6870.9253393928575,0.0036670602523550563
6870.926339165073,0.003909136875110693
6870.927338937288,0.0041491320025539135
6870.928338709504,0.004387023703220099
6870.929338481718,0.004622790524395431
6870.930338253934,0.004856411493721373
6870.931338026149,0.0050878661207038895
6870.932337798365,0.005317134398128524
6870.93333757058,0.0055441968033826195
6870.934337342795,0.005769034299685924
6870.93533711501,0.005991628337230717
6870.9363368872255,0.0062119608542323046
6870.937336659441,0.006430014277890352
6870.938336431656,0.006645771525261139
6870.939336203872,0.006859216004040397
6870.940335976086,0.007070331613255969
6870.941335748302,0.007279102743869228
6870.942335520517,0.007485514279283906
6870.943335292733,0.007689551595760737
6870.944335064948,0.007891200562736218
6870.945334837163,0.008090447543043625
6870.946334609378,0.008287279393034338
6870.9473343815935,0.00848168346259754
6870.948334153809,0.008673647595076377
6870.949333926024,0.00886316012707886
6870.95033369824,0.009050209888181981
6870.951333470454,0.009234786200527808
6870.95233324267,0.009416878878310681
6870.953333014885,0.009596478227154898
6870.954332787101,0.009773575043382506
6870.955332559316,0.009948160613170928
6870.956332331531,0.01012022671160013
6870.957332103746,0.010289765601588934
6870.958331875961,0.010456770032720003
6870.959331648177,0.010621233239952824
6870.960331420392,0.010783148942223956
6870.961331192608,0.010942511340933731
6870.962330964822,0.011099315118318633
6870.963330737038,0.011253555435708641
6870.964330509253,0.011405227931668977
6870.965330281469,0.011554328720025731
6870.966330053684,0.011700854387775114
6870.967329825899,0.011844801992876144
6870.968329598114,0.011986169061926824
6870.969329370329,0.012124953587724212
6870.970329142545,0.012261154026709058
6870.97132891476,0.012394769296296158
6870.972328686976,0.01252579877209195
6870.97332845919,0.012654242285001319
6870.974328231406,0.012780100118225779
6870.975328003621,0.012903373004155566
6870.976327775837,0.013024062121158194
6870.977327548052,0.013142169090266118
6870.9783273202665,0.013257695971766154
6870.979327092482,0.013370645261693247
6870.980326864697,0.013481019888231095
6870.981326636913,0.013588823208022037
6870.982326409128,0.013694059002388674
6870.983326181344,0.013796731473469439
6870.984325953558,0.013896845240270472
6870.985325725774,0.013994405334636029
6870.986325497989,0.01408941719713971
6870.987325270205,0.01418188667289875
6870.988325042419,0.014271820007313727
6870.9893248146345,0.014359223841736287
6870.99032458685,0.014444105209067677
6870.991324359065,0.014526471529291232
6870.992324131281,0.014606330604942326
6870.993323903496,0.014683690616519434
6870.994323675711,0.014758560117840118
6870.995323447926,0.01483094803134577
6870.996323220142,0.014900863643358771
6870.997322992357,0.014968316599295603
6870.998322764573,0.015033316898839123
6870.999322536787,0.015095874891072978
6871.0003223090025,0.01515600126958087
6871.001322081218,0.015213707067513115
6871.002321853433,0.015269003652622721
6871.003321625649,0.015321902722273099
6871.004321397864,0.015372416298419385
6871.005321170079,0.015420556722565286
6871.006320942294,0.015466336650697372
6871.00732071451,0.015509769048198665
6871.008320486725,0.015550867184743522
6871.0093202589405,0.0155896446291758
6871.010320031155,0.01562611524437258
6871.0113198033705,0.015660293182095785
6871.012319575586,0.015692192877834226
6871.013319347801,0.015721829045638784
6871.014319120017,0.01574921667295337
6871.015318892232,0.015774371015444415
6871.016318664447,0.015797307591831518
6871.017318436662,0.015818042178721792
6871.018318208878,0.015836590805450336
6871.019317981093,0.015852969748929153
6871.0203177533085,0.01586719552850676
6871.021317525523,0.015879284900840684
6871.0223172977385,0.015889254854784887
6871.023317069954,0.01589712260629402
6871.024316842169,0.015902905593346357
6871.025316614385,0.01590662147088689
6871.0263163866,0.015908288105792145
6871.027316158815,0.01590792357185811
6871.02831593103,0.015905546144812818
6871.029315703246,0.015901174297355245
6871.030315475461,0.015894826694222444
6871.0313152476765,0.01588652218728708
6871.032315019891,0.01587627981068775
6871.0333147921065,0.01586411877599464
6871.034314564322,0.01585005846741302
6871.035314336537,0.015834118437027162
6871.036314108753,0.01581631840008692
6871.037313880968,0.015796678230339072
6871.038313653183,0.01577521795540508
6871.039313425398,0.015751957752206655
6871.040313197614,0.015726917942440053
6871.041312969829,0.015700118988099632
6871.0423127420445,0.015671581487050897
6871.043312514259,0.015641326168652867
6871.044312286474,0.01560937388942937
6871.04531205869,0.015575745628788598
6871.046311830905,0.015540462484790104
6871.047311603121,0.015503545669958315
6871.048311375336,0.015465016507141608
6871.049311147551,0.015424896425416107
6871.050310919766,0.015383206956033521
6871.051310691982,0.01533996972841263
6871.052310464197,0.015295206466174192
6871.053310236412,0.015248938983219273
6871.054310008627,0.015201189179851174
6871.055309780842,0.015151979038941095
6871.056309553058,0.015101330622137645
6871.057309325273,0.015049266066120203
6871.058309097489,0.014995807578895883
6871.059308869703,0.01494097743613978
6871.060308641919,0.014884797977578076
6871.061308414134,0.014827291603413444
6871.06230818635,0.014768480770792288
6871.063307958565,0.014708387990313291
6871.06430773078,0.014647035822576817
6871.065307502995,0.014584446874774651
6871.06630727521,0.014520643797319568
6871.067307047426,0.014455649280514182
6871.068306819641,0.014389486051258537
6871.069306591857,0.014322176869795887
6871.070306364071,0.014253744526496347
6871.071306136287,0.014184211838678223
6871.072305908502,0.014113601647467078
6871.073305680718,0.01404193681469288
6871.074305452933,0.01396924021982568
6871.075305225148,0.013895534756950436
6871.076304997363,0.013820843331781593
6871.077304769578,0.013745188858717833
6871.078304541794,0.013668594257937277
6871.079304314009,0.013591082452533085
6871.080304086225,0.013512676365689138
6871.081303858439,0.013433398917895132
6871.082303630655,0.013353273024200262
6871.08330340287,0.013272321591504394
6871.084303175086,0.013190567515885585
6871.085302947301,0.01310803367996271
6871.086302719516,0.013024742950292005
6871.087302491731,0.012940718174796403
6871.088302263946,0.01285598218022676
6871.089302036162,0.012770557769654238
6871.090301808377,0.01268446771999339
6871.091301580593,0.012597734779555817
6871.092301352807,0.012510381665634512
6871.093301125023,0.012422431062119174
6871.094300897238,0.012333905617142945
6871.0953006694535,0.012244827940760997
6871.096300441669,0.012155220602661259
6871.097300213884,0.01206510612990752
6871.098299986099,0.011974507004714799
6871.099299758314,0.01188344566225674
6871.10029953053,0.011791944488504512
6871.101299302745,0.011700025818096541
6871.102299074961,0.011607711932238321
6871.103298847175,0.011515025056631358
6871.104298619391,0.011421987359430315
6871.105298391606,0.011328620949227331
6871.1062981638215,0.011234947873062524
6871.107297936037,0.011140990114459714
6871.108297708252,0.01104676959148651
6871.109297480467,0.01095230815483806
6871.110297252682,0.010857627585944222
6871.111297024898,0.010762749595100145
6871.112296797113,0.010667695819620649
6871.113296569329,0.010572487822019097
6871.114296341543,0.01047714708821168
6871.115296113759,0.01038169502574812
6871.116295885974,0.010286152962069762
6871.1172956581895,0.010190542142795826
6871.118295430404,0.010094883730038404
6871.11929520262,0.009999198800746548
6871.120294974835,0.009903508345079508
6871.12129474705,0.009807833264809019
6871.122294519266,0.009712194371750336
6871.123294291481,0.009616612386221583
6871.124294063696,0.009521107935530812
6871.125293835911,0.009425701552490099
6871.126293608127,0.009330413673955875
6871.127293380342,0.009235264639394702
6871.1282931525575,0.009140274689473735
6871.129292924772,0.009045463964675336
6871.130292696987,0.008950852503935527
6871.131292469203,0.008856460243306333
6871.132292241418,0.008762307014642347
6871.133292013634,0.008668412544312111
6871.134291785849,0.008574796451934957
6871.135291558064,0.008481478249143892
6871.136291330279,0.008388477338374986
6871.137291102495,0.008295813011683483
6871.13829087471,0.0082035044495866
6871.1392906469255,0.008111570719932723
6871.14029041914,0.008020030776796567
6871.141290191355,0.007928903459399637
6871.142289963571,0.00783820749105526
6871.143289735786,0.0077479614781373815
6871.144289508002,0.007658183909072299
6871.145289280217,0.007568893153352497
6871.146289052432,0.00748010746057176
6871.147288824647,0.007391844959480875
6871.148288596863,0.007304123657063417
6871.149288369078,0.007216961437631385
6871.1502881412935,0.007130376061940796
6871.151287913508,0.007044385166327755
6871.152287685723,0.006959006261865862
6871.153287457939,0.006874256733546153
6871.154287230154,0.006790153839480958
6871.15528700237,0.006706714710133161
6871.156286774585,0.006623956347572244
6871.1572865468,0.006541895624758305
6871.158286319015,0.006460549284855031
6871.159286091231,0.006379933940572267
6871.160285863446,0.006300066073538527
6871.161285635661,0.006220962033703514
6871.162285407876,0.006142638038770347
6871.163285180091,0.0060651101736569285
6871.164284952307,0.005988394389985585
6871.165284724522,0.0059125065055998715
6871.166284496738,0.005837462204107268
6871.167284268953,0.005763277034446385
6871.168284041168,0.005689966410477269
6871.169283813383,0.005617545610593485
6871.170283585599,0.0055460297773547015
6871.171283357814,0.005475433917138651
6871.172283130029,0.005405772899811444
6871.173282902244,0.00533706145841518
6871.174282674459,0.005269314188871733
6871.175282446675,0.005202545549701423
6871.17628221889,0.005136769861755023
6871.177281991106,0.0050720013079573285
6871.178281763321,0.005008253933060213
6871.179281535536,0.0049455416434029086
6871.180281307751,0.004883878206677077
6871.181281079967,0.004823277251694122
6871.182280852182,0.004763752268152121
6871.1832806243965,0.0047053166063997275
6871.184280396612,0.004647983477194373
6871.185280168827,0.004591765951452043
6871.186279941043,0.004536676959985863
6871.187279713258,0.004482729293230694
6871.188279485474,0.004429935600950984
6871.189279257688,0.004378308391929272
6871.190279029904,0.00432786003363296
6871.191278802119,0.004278602751857259
6871.192278574335,0.004230548630342509
6871.19327834655,0.004183709610364301
6871.1942781187645,0.004138097490294984
6871.19527789098,0.004093723925135248
6871.196277663195,0.00405060042601446
6871.197277435411,0.004008738359658329
6871.198277207626,0.003968148947822422
6871.199276979842,0.003928843266689926
6871.200276752056,0.003890832246232007
6871.201276524272,0.003854126669529102
6871.202276296487,0.003818737172051515
6871.203276068703,0.0037846742408976872
6871.204275840918,0.003751948213988574
6871.2052756131325,0.0037205692792165804
6871.206275385348,0.0036905474735476045
6871.207275157563,0.003661892682074852
6871.208274929779,0.0036346146370232805
6871.209274701994,0.0036087229167038
6871.21027447421,0.0035842269444166237
6871.211274246424,0.0035611359873034838
6871.21227401864,0.003539459155148678
6871.213273790855,0.003519205399129104
6871.214273563071,0.003500383510513571
6871.215273335286,0.0034830021193117053
6871.2162731075005,0.0034670696928726687
6871.217272879716,0.003452594534433757
6871.218272651931,0.0034395847816187123
6871.219272424147,0.003428048404885366
6871.220272196362,0.003417993205922064
6871.221271968578,0.003409426815992189
6871.222271740792,0.00340235669422605
6871.223271513008,0.003396790125859389
6871.224271285223,0.0033927342204177957
6871.225271057439,0.003390195909846361
6871.226270829654,0.003389181946583981
6871.227270601868,0.0033896989015818352
6871.228270374084,0.0033917531622657347
6871.229270146299,0.0033953509304423066
6871.230269918515,0.003400498220149302
6871.23126969073,0.0034072008554506747
6871.232269462946,0.003415464468177413
6871.23326923516,0.0034252944956154087
6871.234269007376,0.003436696178141822
6871.235268779591,0.0034496745568114956
6871.236268551807,0.003464234470894933
6871.237268324022,0.003480380555369242
6871.238268096236,0.003498117238363276
6871.239267868452,0.0035174487385580713
6871.240267640667,0.003538379062543575
6871.241267412883,0.0035609120021326164
6871.242267185098,0.003585051131633111
6871.243266957314,0.0036107998050795252
6871.244266729528,0.0036381611534246875
6871.245266501744,0.0036671380816930273
6871.246266273959,0.003697733266096345
6871.247266046174,0.003729949151113241
6871.248265818389,0.0037637879465334295
6871.249265590604,0.0037992516244683195
6871.25026536282,0.0038363419163295093
6871.251265135035,0.0038750603097771038
6871.252264907251,0.003915408045640009
6871.253264679466,0.003957386114810504
6871.254264451682,0.004000995255115467
6871.255264223896,0.004046235948166552
6871.256263996112,0.004093108416191493
6871.257263768327,0.0041416126188485326
6871.258263540542,0.004191748250025734
6871.259263312757,0.004243514734626821
6871.260263084972,0.00429691122534501
6871.261262857188,0.004351936599426268
6871.262262629403,0.004408589455423385
6871.263262401619,0.00446686810994224
6871.264262173834,0.0045267705943816345
6871.265261946049,0.004588294651668001
6871.266261718264,0.004651437732986244
6871.26726149048,0.004716196994507924
6871.268261262695,0.004782569294118006
6871.26926103491,0.004850551188141499
6871.270260807125,0.004920138928071396
6871.27126057934,0.004991328457299611
6871.272260351556,0.005064115407852739
6871.273260123771,0.0051384950971346535
6871.274259895987,0.005214462524678005
6871.275259668202,0.005292012368906614
6871.276259440417,0.005371138983910626
6871.277259212632,0.005451836396236049
6871.278258984848,0.005534098301690033
6871.279258757063,0.0056179180621629505
6871.280258529278,0.005703288702468141
6871.281258301493,0.005790202907199895
6871.282258073708,0.005878653017610152
6871.283257845924,0.00596863102850428
6871.284257618139,0.006060128585156179
6871.285257390355,0.006153136980243011
6871.28625716257,0.00624764715079986
6871.287256934785,0.006343649675194783
6871.288256707,0.006441134770124946
6871.289256479216,0.0065400922876348135
6871.290256251431,0.006640511712157739
6871.291256023646,0.006742382157582666
6871.292255795861,0.006845692364348054
6871.293255568076,0.006950430696565451
6871.294255340292,0.007056585139175419
6871.295255112507,0.007164143295138665
6871.296254884723,0.007273092382665283
6871.297254656938,0.007383419232484956
6871.298254429153,0.0074951102851608
6871.299254201368,0.007608151588449277
6871.300253973584,0.007722528794708362
6871.301253745799,0.007838227158355872
6871.302253518014,0.007955231533379632
6871.303253290229,0.00807352637090094
6871.304253062444,0.008193095716792572
6871.30525283466,0.008313923209352503
6871.306252606875,0.008435992077034278
6871.307252379091,0.008559285136235016
6871.308252151306,0.008683784789141984
6871.309251923521,0.008809473021638918
6871.310251695736,0.008936331401273508
6871.311251467952,0.00906434107528783
6871.312251240167,0.009193482768713915
6871.313251012381,0.009323736782536965
6871.314250784597,0.009455082991928862
6871.315250556812,0.009587500844554665
6871.316250329028,0.009720969358954626
6871.317250101243,0.009855467123004061
6871.318249873459,0.00999097229245303
6871.319249645674,0.010127462589547545
6871.320249417889,0.01026491530173371
6871.321249190104,0.01040330728044596
6871.32224896232,0.010542614939980474
6871.323248734535,0.010682814256454693
6871.324248506749,0.010823880766853873
6871.325248278965,0.010965789568165562
6871.32624805118,0.011108515316602955
6871.327247823396,0.01125203222691815
6871.328247595611,0.011396314071806487
6871.329247367827,0.011541334181403446
6871.330247140041,0.011687065442875826
6871.331246912257,0.01183348030010939
6871.332246684472,0.011980550753495451
6871.333246456687,0.012128248359819219
6871.334246228903,0.012276544232253026
6871.335246001117,0.012425409040457575
6871.336245773333,0.012574813010794385
6871.337245545548,0.0127247259266525
6871.338245317764,0.012875117128892352
6871.339245089979,0.013025955516409376
6871.340244862195,0.013177209546819777
6871.341244634409,0.013328847237270609
6871.342244406625,0.013480836165376148
6871.34324417884,0.013633143470282461
6871.344243951055,0.013785735853862011
6871.345243723271,0.013938579582040086
6871.346243495485,0.014091640486254957
6871.347243267701,0.01424488396505364
6871.348243039916,0.014398274985825377
6871.349242812132,0.014551778086675059
6871.350242584347,0.014705357378439081
6871.351242356563,0.014858976546846389
6871.352242128777,0.015012598854827844
6871.3532419009925,0.015166187144977295
6871.354241673208,0.015319703842168075
6871.355241445423,0.015473110956328754
6871.356241217639,0.015626370085382042
6871.357240989853,0.01577944241835069
6871.358240762069,0.015932288738634025
6871.359240534284,0.01608486942745864
6871.3602403065,0.01623714446750644
6871.361240078715,0.016389073446723117
6871.362239850931,0.01654061556231004
6871.363239623145,0.016691729624902354
6871.3642393953605,0.0168423740629361
6871.365239167576,0.01699250692720712
6871.366238939791,0.017142085895624503
6871.367238712007,0.01729106827816142
6871.368238484221,0.01743941102200636
6871.369238256437,0.017587070716918004
6871.370238028652,0.017734003600787338
6871.371237800868,0.01788016556541097
6871.372237573083,0.018025512162479888
6871.373237345299,0.018169998609788265
6871.374237117513,0.018313579797667193
6871.3752368897285,0.018456210295648288
6871.376236661944,0.01859784435936214
6871.377236434159,0.01873843593767647
6871.378236206374,0.018877938680078674
6871.379235978589,0.01901630594430729
6871.380235750805,0.019153490804236707
6871.38123552302,0.019289446058019348
6871.382235295236,0.01942412423648926
6871.383235067451,0.019557477611831076
6871.3842348396665,0.019689458206518046
6871.385234611881,0.019820017802522707
6871.3862343840965,0.019949107950803603
6871.387234156312,0.0200766799810714
6871.388233928527,0.02020268501183772
6871.389233700742,0.020327073960750144
6871.390233472957,0.020449797555217065
6871.391233245173,0.020570806343326267
6871.392233017388,0.02069005070506134
6871.393232789604,0.0208074808638202
6871.394232561819,0.02092304689823991
6871.395232334034,0.021036698754332034
6871.396232106249,0.021148386257932285
6871.3972318784645,0.021258059127468105
6871.39823165068,0.0213656669870473
6871.399231422895,0.02147115937987053
6871.40023119511,0.02157448578196999
6871.401230967325,0.021675595616276216
6871.402230739541,0.021774438267014733
6871.403230511756,0.021870963094433777
6871.404230283972,0.021965119449864245
6871.405230056187,0.02205685669111265
6871.406229828402,0.022146124198187716
6871.407229600617,0.022232871389361204
6871.4082293728325,0.022317047737563205
6871.409229145048,0.022398602787112393
6871.410228917263,0.02247748617078159
6871.411228689478,0.022553647627199153
6871.412228461693,0.022627037018586708
6871.413228233909,0.022697604348833875
6871.414228006124,0.022765299781910404
6871.41522777834,0.022830073660616023
6871.416227550555,0.02289187652566795
6871.41722732277,0.022950659135125496
6871.418227094985,0.023006372484150755
6871.4192268672,0.023058967825103725
6871.420226639416,0.023108396687969636
6871.421226411631,0.02315461090111575
6871.422226183846,0.023197562612374326
6871.423225956061,0.02323720431044819
6871.424225728277,0.023273488846634886
6871.425225500492,0.02330636945686507
6871.426225272708,0.023335799784050447
6871.427225044923,0.02336173390073641
6871.428224817138,0.023384126332054157
6871.429224589353,0.023402932078966963
6871.430224361568,0.023418106641805308
6871.431224133784,0.023429606044085383
6871.432223905999,0.023437386856605517
6871.433223678214,0.023441406221814887
6871.434223450429,0.023441621878448535
6871.435223222645,0.02343799218642238
6871.43622299486,0.023430476151981433
6871.437222767076,0.023419033453093745
6871.438222539291,0.02340362446508196
6871.439222311506,0.02338421028648357
6871.440222083721,0.023360752765130135
6871.441221855936,0.02333321452443494
6871.442221628152,0.02330155898987755
6871.443221400366,0.02326575041567285
6871.444221172582,0.02322575391161091
6871.445220944797,0.023181535470052958
6871.446220717013,0.023133061993067344
6871.447220489228,0.02308030131968794
6871.448220261444,0.023023222253276007
6871.449220033659,0.022961794588964923
6871.4502198058735,0.02289598914116563
6871.451219578089,0.02282577777110873
6871.452219350304,0.02275113341439726
6871.45321912252,0.022672030108542008
6871.454218894734,0.0225884430204488
6871.45521866695,0.02250034847382454
6871.456218439165,0.022407723976465836
6871.457218211381,0.022310548247391093
6871.458217983596,0.022208801243773682
6871.459217755812,0.02210246418763066
6871.460217528026,0.021991519592218504
6871.4612173002415,0.021875951288084224
6871.462217072457,0.02175574444871774
6871.463216844672,0.021630885615748975
6871.464216616888,0.021501362723630936
6871.465216389102,0.021367165123748363
6871.466216161318,0.021228283607890034
6871.467215933533,0.021084710431021902
6871.468215705749,0.020936439333297602
6871.469215477964,0.020783465561242855
6871.47021525018,0.020625785888050824
6871.471215022394,0.02046339863292653
6871.4722147946095,0.020296303679420067
6871.473214566825,0.02012450249269033
6871.47421433904,0.019947998135643553
6871.475214111256,0.019766795283893676
6871.47621388347,0.019580900239494506
6871.477213655686,0.019390320943396825
6871.478213427901,0.019195066986586736
6871.479213200117,0.018995149619864902
6871.480212972332,0.018790581762229832
6871.481212744548,0.018581378007832213
6871.482212516762,0.01836755463147125
6871.4832122889775,0.018149129592608435
6871.484212061193,0.017926122537878557
6871.485211833408,0.017698554802082517
6871.486211605624,0.017466449407651043
6871.487211377838,0.01722983106257324
6871.488211150054,0.016988726156788397
6871.489210922269,0.01674316275704437
6871.490210694485,0.01649317060023026
6871.4912104667,0.016238781085195768
6871.492210238916,0.015980027263073973
6871.49321001113,0.01571694382612853
6871.4942097833455,0.015449567095150338
6871.495209555561,0.015177935005432484
6871.496209327776,0.014902087091355917
6871.497209099992,0.014622064469621464
6871.498208872206,0.01433790982116681
6871.499208644422,0.014049667371809533
6871.500208416637,0.013757382871659568
6871.501208188853,0.01346110357334614
6871.502207961068,0.013160878209105789
6871.503207733284,0.012856756966779143
6871.504207505498,0.01254879146476497
6871.505207277713,0.012237034725980533
6871.506207049929,0.011921541150877473
6871.507206822144,0.011602366489562433
6871.508206594359,0.011279567813071564
6871.509206366574,0.010953203483847707
6871.51020613879,0.01062333312546887
6871.511205911005,0.010290017591676146
6871.512205683221,0.0099533189347488
6871.513205455436,0.009613300373273632
6871.514205227652,0.009270026259354936
6871.515204999866,0.008923562045310507
6871.516204772081,0.008573974249898081
6871.517204544297,0.008221330424115452
6871.518204316512,0.007865699116616349
6871.519204088727,0.00750714983878294
6871.520203860942,0.007145753029494652
6871.521203633158,0.006781580019631845
6871.522203405373,0.00641470299635175
6871.523203177589,0.006045194967172936
6871.524202949804,0.005673129723903527
6871.525202722019,0.005298581806447261
6871.526202494234,0.004921626466520536
6871.527202266449,0.0045423396313126465
6871.528202038665,0.004160797867120494
6871.52920181088,0.0037770783429883614
6871.530201583095,0.00339125879438264
6871.53120135531,0.003003417486930838
6871.532201127526,0.0026136331802536403
6871.533200899741,0.0022219850919182322
6871.534200671957,0.0018285528615404269
6871.535200444172,0.0014334165150623824
6871.5362002163865,0.0010366564292318091
6871.537199988602,0.0006383532963076155
6871.538199760817,0.00023858808901590633
6871.539199533033,-0.00016255797422079556
6871.540199305248,-0.0005650034637592686
6871.541199077463,-0.0009686667728954188
6871.542198849678,-0.0013734661516883414
6871.543198621894,-0.0017793197404296812
6871.544198394109,-0.002186145602740237
6871.545198166325,-0.0025938617582766314
6871.54619793854,-0.003002386215031679
6871.5471977107545,-0.0034116370012128696
6871.54819748297,-0.00382153219668408
6871.549197255185,-0.0042319899639562345
6871.550197027401,-0.004642928578713132
6871.551196799616,-0.005054266459859095
6871.552196571831,-0.005465922199075494
6871.553196344046,-0.005877814589873627
6871.554196116262,-0.0062898626561319745
6871.555195888477,-0.006701985680106499
6871.5561956606925,-0.00711410322990346
6871.557195432908,-0.00752613518640513
6871.5581952051225,-0.007938001769639776
6871.559194977338,-0.00834962356458832
6871.560194749553,-0.008760921546421054
6871.561194521769,-0.009171817105158794
6871.562194293984,-0.0095822320697537
6871.563194066199,-0.00999208873158588
6871.564193838414,-0.010401309867372564
6871.56519361063,-0.010809818761487367
6871.566193382845,-0.011217539227687688
6871.5671931550605,-0.01162439563024887
6871.568192927276,-0.012030312904504074
6871.5691926994905,-0.012435216576789235
6871.570192471706,-0.01283903278379262
6871.571192243921,-0.013241688291308729
6871.572192016137,-0.013643110512396547
6871.573191788351,-0.014043227524942286
6871.574191560567,-0.014441968088627221
6871.575191332782,-0.01483926166130161
6871.576191104998,-0.015235038414766262
6871.577190877213,-0.015629229249964034
6871.5781906494285,-0.016021765811584182
6871.579190421644,-0.01641258050208318
6871.5801901938585,-0.016801606495126298
6871.581189966074,-0.017188777748454776
6871.582189738289,-0.01757402901618403
6871.583189510505,-0.017957295860538795
6871.584189282719,-0.018338514663031536
6871.585189054935,-0.01871762263509095
6871.58618882715,-0.019094557828147573
6871.587188599366,-0.019469259143183953
6871.588188371581,-0.01984166633975692
6871.5891881437965,-0.020211720044499594
6871.590187916011,-0.02057936175911083
6871.5911876882265,-0.020944533867839697
6871.592187460442,-0.021307179644472624
6871.593187232657,-0.02166724325883087
6871.594187004873,-0.02202466978278599
6871.595186777087,-0.02237940519580121
6871.596186549303,-0.0227313963900068
6871.597186321518,-0.023080591174817953
6871.598186093734,-0.023426938281104065
6871.599185865949,-0.02377038736491856
6871.6001856381645,-0.024110889010798824
6871.601185410379,-0.024448394734646096
6871.602185182594,-0.02478285698619531
6871.60318495481,-0.025114229151084955
6871.604184727025,-0.02544246555253725
6871.605184499241,-0.02576752145265872
6871.606184271455,-0.026089353053371442
6871.607184043671,-0.02640791749698502
6871.608183815886,-0.026723172866419235
6871.609183588102,-0.027035078185087026
6871.610183360317,-0.027343593416447043
6871.6111831325325,-0.02764867946323463
6871.612182904747,-0.027950298166379475
6871.613182676962,-0.028248412303617864
6871.614182449178,-0.028542985587807053
6871.615182221393,-0.028833982664949145
6871.616181993609,-0.0291213691119318
6871.617181765823,-0.029405111433993106
6871.618181538039,-0.029685177061918144
6871.619181310254,-0.029961534348974975
6871.62018108247,-0.030234152567597983
6871.621180854685,-0.03050300190582654
6871.6221806269,-0.030768053463507142
6871.623180399115,-0.03102927924826696
6871.62418017133,-0.03128665217126675
6871.625179943546,-0.031540146042740726
6871.626179715761,-0.03178973556733085
6871.627179487977,-0.032035396339222644
6871.628179260191,-0.03227710483708938
6871.629179032407,-0.03251483841885112
6871.630178804622,-0.032748575316254774
6871.631178576838,-0.032978294629280876
6871.632178349053,-0.033203976320382474
6871.633178121268,-0.03342560120856114
6871.634177893483,-0.03364315096328486
6871.635177665698,-0.0338566080982524
6871.636177437914,-0.03406595596500865
6871.637177210129,-0.034271178746415464
6871.638176982344,-0.03447226144998267
6871.639176754559,-0.03466918990106395
6871.640176526775,-0.034861950735922465
6871.64117629899,-0.03505053139467143
6871.6421760712055,-0.03523492011409472
6871.643175843421,-0.03541510592035304
6871.644175615636,-0.03559107862158099
6871.645175387851,-0.035762828800380786
6871.646175160066,-0.03593034780621803
6871.647174932282,-0.0360936277477253
6871.648174704497,-0.0362526614849189
6871.649174476712,-0.03640744262133422
6871.650174248927,-0.03655796549608455
6871.651174021143,-0.036704225175848
6871.652173793358,-0.0368462174467866
6871.6531735655735,-0.03698393880640162
6871.654173337789,-0.03711738645532874
6871.655173110004,-0.03724655828907692
6871.656172882219,-0.037371452889714774
6871.657172654434,-0.037492069517508865
6871.65817242665,-0.037608408102518455
6871.659172198865,-0.037720469236151785
6871.66017197108,-0.03782825416268926
6871.661171743295,-0.03793176477077907
6871.662171515511,-0.03803100358491131
6871.663171287726,-0.03812597375687641
6871.6641710599415,-0.03821667905721433
6871.665170832157,-0.03830312386666052
6871.666170604372,-0.038385313167595206
6871.667170376587,-0.038463252535501945
6871.668170148802,-0.03853694813044196
6871.669169921018,-0.038606406688549914
6871.670169693233,-0.03867163551355683
6871.671169465448,-0.03873264246834529
6871.672169237663,-0.03878943596654162
6871.673169009879,-0.038842024964149485
6871.674168782094,-0.03889041895122879
6871.6751685543095,-0.03893462794362389
6871.676168326525,-0.03897466247474454
6871.67716809874,-0.03901053358740365
6871.678167870955,-0.03904225282571536
6871.67916764317,-0.039069832227057746
6871.680167415386,-0.03909328431410402
6871.681167187601,-0.03911262208692652
6871.682166959816,-0.039127859015177735
6871.683166732031,-0.03913900903035236
6871.684166504247,-0.03914608651813436
6871.685166276462,-0.03914910631083273
6871.6861660486775,-0.03914808367990947
6871.687165820893,-0.03914303432860279
6871.688165593107,-0.03913397438464851
6871.689165365323,-0.03912092039310196
6871.690165137538,-0.039103889309262514
6871.691164909754,-0.03908289849170222
6871.692164681969,-0.03905796569539951
6871.693164454184,-0.03902910906497869
6871.694164226399,-0.03899634712805553
6871.695163998615,-0.038959698788689136
6871.69616377083,-0.038919183320940166
6871.6971635430455,-0.03887482036253566
6871.698163315261,-0.03882662990864074
6871.699163087475,-0.0387746323057377
6871.700162859691,-0.03871884824561296
6871.701162631906,-0.03865929875945263
6871.702162404122,-0.038596005212047445
6871.703162176336,-0.03852898929610763
6871.704161948552,-0.038458273026688465
6871.705161720767,-0.038383878735727135
6871.706161492983,-0.03830582906669122
6871.707161265198,-0.038224146969339116
6871.708161037413,-0.03813885569459229
6871.709160809629,-0.03804997878951904
6871.710160581843,-0.03795754009242873
6871.711160354059,-0.03786156372807526
6871.712160126274,-0.03776207410296781
6871.71315989849,-0.03765909590078652
6871.714159670704,-0.037552654077900344
6871.71515944292,-0.03744277385898419
6871.716159215135,-0.037329480732732435
6871.717158987351,-0.03721280044766597
6871.718158759566,-0.03709275900802998
6871.719158531781,-0.036969382669780164
6871.720158303996,-0.0368426979366551
6871.721158076211,-0.036712731556332846
6871.722157848427,-0.03657951051666984
6871.723157620642,-0.03644306204202046
6871.724157392858,-0.03630341358963551
6871.725157165072,-0.03616059284613803
6871.726156937288,-0.036014627724074766
6871.727156709503,-0.03586554635854144
6871.728156481719,-0.03571337710388001
6871.729156253934,-0.03555814853044551
6871.730156026149,-0.03539988942143959
6871.731155798364,-0.03523862876980773
6871.732155570579,-0.0350743957751963
6871.733155342795,-0.03490721984096519
6871.73415511501,-0.03473713057125168
6871.735154887226,-0.03456415776808068
6871.73615465944,-0.03438833142851663
6871.737154431656,-0.03420968174185254
6871.738154203871,-0.0340282390868316
6871.739153976087,-0.03384403402889723
6871.740153748302,-0.0336570973174675
6871.741153520517,-0.033467459883230036
6871.742153292732,-0.03327515283545354
6871.743153064947,-0.03308020745931233
6871.744152837163,-0.03288265521322005
6871.745152609378,-0.032682527726168864
6871.746152381594,-0.032479856795070414
6871.747152153808,-0.03227467438209471
6871.748151926024,-0.03206701261200301
6871.749151698239,-0.03185690376947059
6871.750151470455,-0.0316443802963951
6871.75115124267,-0.0314294747891858
6871.752151014885,-0.03121221999602884
6871.7531507871,-0.030992648814123638
6871.754150559315,-0.030770794286885242
6871.755150331531,-0.030546689601107745
6871.756150103746,-0.030320368084084004
6871.757149875962,-0.030091863200677176
6871.758149648176,-0.029861208550339875
6871.759149420392,-0.02962843786407715
6871.760149192607,-0.02939358500134972
6871.761148964823,-0.02915668394691426
6871.762148737038,-0.028917768807597773
6871.763148509253,-0.028676873809003314
6871.764148281468,-0.02843403329214457
6871.765148053683,-0.02818928171000691
6871.766147825899,-0.02794265362403274
6871.767147598114,-0.02769418370052906
6871.768147370329,-0.027443906706995206
6871.769147142544,-0.027191857508368656
6871.77014691476,-0.02693807106318679
6871.771146686975,-0.026682582419662326
6871.772146459191,-0.026425426711670013
6871.773146231406,-0.02616663915464216
6871.774146003621,-0.02590625504137055
6871.775145775836,-0.025644309737712565
6871.776145548051,-0.025380838678199433
6871.777145320267,-0.025115877361545073
6871.778145092482,-0.024849461346054327
6871.779144864697,-0.024581626244929954
6871.780144636912,-0.024312407721478288
6871.781144409128,-0.024041841484213986
6871.782144181343,-0.023769963281864762
6871.783143953559,-0.023496808898277488
6871.784143725774,-0.02322241414722746
6871.785143497988,-0.022946814867133073
6871.786143270204,-0.022670046915678418
6871.787143042419,-0.02239214616434655
6871.788142814635,-0.022113148492866285
6871.78914258685,-0.02183308978357541
6871.790142359065,-0.021552005915702964
6871.79114213128,-0.021269932759573243
6871.792141903496,-0.020986906170733937
6871.793141675711,-0.02070296198401068
6871.794141447926,-0.02041813600749053
6871.795141220142,-0.020132464016436834
