Time,Filtered_EMG_Bicep,Filtered_EMG_Tricep
6513.058874481825,0.0023066099147973276,0.001502819380271298
6513.059874254041,0.0024529340126152976,0.0015410974375492357
6513.060874026256,0.002600409445040794,0.001579421479698224
6513.061873798471,0.002748155353263906,0.001617544778869873
6513.062873570687,0.0028952813401987225,0.0016552230846161788
6513.063873342901,0.003040897007961328,0.0016922180837492375
6513.064873115117,0.0031841210353231587,0.0017283006623985873
6513.065872887332,0.0033240897365948703,0.0017632539162010428
6513.066872659548,0.0034599650010144326,0.0017968758722480683
6513.067872431763,0.0035909414621723076,0.0018289818927458023
6513.068872203978,0.00371625275419949,0.0018594067293106217
6513.069871976193,0.0038351768050013824,0.0018880061957538114
6513.0708717484085,0.0039470402683610215,0.0019146584307512108
6513.071871520624,0.004051222333390609,0.0019392647325026798
6513.072871292839,0.004147158212478871,0.001961749964811523
6513.073871065055,0.004234342599883545,0.0019820625506834404
6513.074870837269,0.00431233335400272,0.0020001740783391194
6513.075870609485,0.004380755603791586,0.002016078550289362
6513.0768703817,0.004439306389010791,0.002029791320957757
6513.077870153916,0.004487759798053688,0.0020413477922899617
6513.078869926131,0.004525972393464728,0.002050801953472149
6513.079869698346,0.0045538885666802165,0.0020582248449310847
6513.080869470561,0.004571545383262124,0.0020637029958773755
6513.0818692427765,0.004579076486790202,0.0020673368372227862
6513.082869014992,0.004576714712769529,0.0020692390462492
6513.083868787207,0.004564793175649305,0.0020695327606427443
6513.084868559423,0.004543744663459851,0.00206834961843998
6513.085868331637,0.004514099172506868,0.002065827618976466
6513.086868103853,0.0044764793851766,0.0020621088275194436
6513.087867876068,0.004431593927619306,0.002057336951115907
6513.088867648284,0.004380228391975257,0.0020516548084294536
6513.089867420499,0.004323234334564454,0.0020452017207832716
6513.090867192714,0.004261516669787751,0.00203811087533715
6513.091866964929,0.004196019980203277,0.0020305067532535967
6513.0928667371445,0.004127714239359979,0.0020225027615022153
6513.09386650936,0.004057580352979467,0.0020141992305407887
6513.094866281575,0.0039865958342123345,0.0020056819194563843
6513.09586605379,0.003915720868252334,0.0019970211076037027
6513.096865826005,0.003845884996372639,0.0019882712774045397
6513.097865598221,0.003777974668300312,0.001979471344673502
6513.098865370436,0.0037128219630292733,0.0019706453879974437
6513.099865142652,0.003651194811174866,0.001961803851737181
6513.100864914867,0.0035937890170156302,0.001952945216574974
6513.101864687082,0.0035412222718084756,0.0019440581265294853
6513.102864459297,0.0034940302060203245,0.0019351239322391205
6513.1038642315125,0.0034526643824138756,0.0019261195726607593
6513.104864003728,0.0034174920075877276,0.001917020687483181
6513.105863775943,0.0033887970547651215,0.0019078048308133666
6513.106863548158,0.003366782460072918,0.0018984546324382645
6513.107863320373,0.0033515730825463773,0.001888960729602711
6513.108863092589,0.0033432191944341946,0.001879324292889744
6513.109862864804,0.0033417003678040623,0.0018695590137437514
6513.11086263702,0.0033469297113532994,0.0018596925009010733
6513.111862409235,0.003358758461764225,0.0018497671161727509
6513.11286218145,0.0033769809431023396,0.0018398403348485323
6513.113861953665,0.003401339883446566,0.001829984732071889
6513.1148617258805,0.003431532026506846,0.0018202876833477292
6513.115861498096,0.0034672139129689693,0.001810850843345431
6513.116861270311,0.0035080076645879928,0.0018017894481934702
6513.117861042526,0.003553506605806421,0.001793231474223979
6513.118860814741,0.0036032805815642615,0.0017853166711185424
6513.119860586957,0.0036568808292861397,0.001778195465093373
6513.120860359172,0.0037138442240395773,0.001772027705696298
6513.121860131388,0.003773696685849671,0.0017669812192638206
6513.122859903602,0.0038359555823787588,0.0017632301340294325
6513.123859675818,0.0039001310883472,0.0017609529427833582
6513.124859448033,0.003965726607279296,0.0017603302595048747
6513.1258592202485,0.004032238436680187,0.0017615422214769777
6513.126858992464,0.004099154843541896,0.0017647655134829317
6513.127858764679,0.0041659546669972946,0.0017701700458467701
6513.128858536894,0.004232105547077724,0.0017779153706496875
6513.129858309109,0.004297061923303154,0.0017881469409630907
6513.130858081325,0.004360263044720024,0.001800992312243236
6513.13185785354,0.004421131348381466,0.0018165573795955795
6513.132857625756,0.004479071646074595,0.00183492275064291
6513.13385739797,0.0045334715657640735,0.0018561403613478885
6513.134857170186,0.0045837036090840624,0.001880230442182286
6513.135856942401,0.004629129031195871,0.001907178935663489
6513.136856714616,0.004669103578103067,0.001936935454630098
6513.137856486832,0.004702984982390681,0.0019694118508258654
6513.138856259047,0.004730142036795654,0.002004481438792282
6513.139856031262,0.0047499650170810676,0.0020419789030734106
6513.140855803477,0.004761877189352812,0.00208170091285636
6513.141855575693,0.004765347096760793,0.0021234074648357466
6513.142855347908,0.00475990126183082,0.0021668239551232184
6513.143855120124,0.004745136864259034,0.0022116439407200736
6513.144854892338,0.00472073389931548,0.0022575324984850267
6513.145854664554,0.004686466347043096,0.0023041300362714014
6513.146854436769,0.004642211999115211,0.0023510563734025504
6513.147854208984,0.004587960742738768,0.0023979149066909304
6513.1488539812,0.004523821221504022,0.002444296723154548
6513.149853753415,0.004450025844984655,0.002489784590952088
6513.15085352563,0.004366934090602834,0.0025339568178889193
6513.151853297845,0.004275033953827739,0.002576390995780674
6513.152853070061,0.0041749413265774905,0.0026166676634867513
6513.153852842276,0.004067397096432473,0.0026543739341088383
6513.154852614492,0.0039532618690058694,0.002689107138845071
6513.155852386706,0.0038335083502723795,0.002720478544244752
6513.1568521589215,0.0037092115094332595,0.0027481172157203444
6513.157851931137,0.0035815366648759327,0.0027716741235914557
6513.158851703352,0.0034517256327225867,0.0027908265873056483
6513.159851475568,0.003321081082918314,0.0028052831065610213
6513.160851247782,0.003190949277134281,0.0028147885449498807
6513.161851019998,0.0030627014229467325,0.0028191295392439963
6513.162850792213,0.002937713966404604,0.0028181399293865763
6513.163850564429,0.002817348237557077,0.00281170595416879
6513.164850336644,0.002702929925913297,0.0027997709338929166
6513.16585010886,0.002595728872977953,0.0027823391536155122
6513.166849881074,0.0024969396345389905,0.0027594786654579215
6513.1678496532895,0.0024076632092257305,0.002731322752324328
6513.168849425505,0.002328890264166299,0.002698069847216261
6513.16984919772,0.002261486115884827,0.0026599817885727558
6513.170848969936,0.0022061776574060815,0.0026173804006927276
6513.17184874215,0.0021635423803908886,0.0025706424837584306
6513.172848514366,0.002133999626322139,0.00252019335839177
6513.173848286581,0.002117804192297897,0.0024664991553589558
6513.174848058797,0.0021150423929985154,0.0024100580996014266
6513.175847831012,0.002125630637786603,0.0023513911017800588
6513.176847603228,0.002149316530574224,0.0022910320142470594
6513.177847375442,0.00218568244751379,0.0022295179241893746
6513.1788471476575,0.002234151495398862,0.0021673798499648035
6513.179846919873,0.002293995702201291,0.002105134172475618
6513.180846692088,0.00236434624276669,0.0020432750631857077
6513.181846464304,0.0024442054671011816,0.001982268071886439
6513.182846236518,0.002532460491497649,0.0019225449353194957
6513.183846008734,0.002627898138285587,0.001864499591222366
6513.184845780949,0.0027292210529688715,0.0018084853479352408
6513.185845553165,0.002835064867835483,0.001754813155828008
6513.18684532538,0.002944016304530044,0.0017037509218407684
6513.187845097595,0.003054632102752936,0.0016555237856090842
6513.18884486981,0.003165458624536478,0.001610315250158611
6513.1898446420255,0.0032750519304181633,0.0015682690524735834
6513.190844414241,0.003381998082311626,0.001529491663519682
6513.191844186456,0.003484933406587565,0.0014940553022640022
6513.192843958672,0.0035825644359218397,0.001462001331660003
6513.193843730886,0.0036736872293977553,0.001433343893775142
6513.194843503102,0.0037572057542481405,0.0014080736418999016
6513.195843275317,0.003832149010947617,0.0013861614294514493
6513.196843047533,0.0038976865961434996,0.0013675618200563486
6513.197842819748,0.0039531424115684406,0.001352216304000819
6513.198842591963,0.003998006225872059,0.0013400561406159365
6513.199842364178,0.0040319427783434,0.0013310047740919117
6513.2008421363935,0.004054798094208751,0.0013249797824304215
6513.201841908609,0.004066602683400233,0.0013218943247316202
6513.202841680824,0.004067571340858684,0.0013216580627423786
6513.20384145304,0.004058099370368896,0.0013241775545851148
6513.204841225254,0.0040387552017519335,0.0013293561491963723
6513.20584099747,0.0040102695127230345,0.0013370934387452068
6513.206840769685,0.003973521046727445,0.0013472843462925745
6513.207840541901,0.003929519332589572,0.001359817940768948
6513.208840314116,0.0038793845246524825,0.0013745760852465917
6513.209840086331,0.0038243246644263425,0.0013914320369219511
6513.210839858546,0.0037656108205379115,0.0014102491293182377
6513.2118396307615,0.0037045507310024418,0.0014308796786972695
6513.212839402977,0.003642461683650322,0.0014531642569269266
6513.213839175192,0.0035806433981328736,0.0014769314508843974
6513.214838947408,0.003520351629907377,0.0015019981901086496
6513.215838719622,0.003462773140152455,0.0015281706892735732
6513.216838491838,0.0034090025949820944,0.0015552460299166067
6513.217838264053,0.003360021877517939,0.0015830143865232726
6513.218838036269,0.003316682211329103,0.0016112618698470302
6513.219837808484,0.003279689401688202,0.0016397739129205746
6513.220837580699,0.0032495924053280384,0.0016683390733787204
6513.221837352914,0.003226775348731468,0.0016967530779907441
6513.222837125129,0.0032114530397996297,0.001724822892058577
6513.223836897345,0.0032036699557844803,0.0017523705641091288
6513.22483666956,0.003203302627240314,0.0017792365987988636
6513.225836441775,0.0032100652665954135,0.001805282668263003
6513.22683621399,0.003223518417731608,0.001830393568306957
6513.227835986206,0.0032430803383319724,0.001854478414645562
6513.228835758421,0.003268040776305746,0.0018774711217929268
6513.229835530637,0.0032975767743680306,0.0018993302169599152
6513.230835302852,0.0033307701394752554,0.0019200380397825642
6513.231835075067,0.003366626243742959,0.0019395993831284673
6513.232834847282,0.0034040938710068105,0.0019580396343893735
6513.233834619497,0.0034420858723086534,0.001975402468704794
6513.234834391713,0.0034795004222590823,0.0019917471351599317
6513.235834163928,0.003515242659180899,0.002007145390098075
6513.236833936143,0.003548246442405431,0.0020216781736480797
6513.237833708358,0.0035774958816353186,0.0020354321666291174
6513.238833480574,0.003602046210282071,0.002048496374725573
6513.239833252789,0.0036210435170771337,0.0020609588686306413
6513.240833025005,0.003633742841577678,0.002072903785955456
6513.24183279722,0.0036395241951134544,0.0020844086822191248
6513.2428325694345,0.0036379061904573797,0.0020955422956900117
6513.24383234165,0.0036285571130069867,0.0021063627580244935
6513.244832113865,0.003611303370943038,0.0021169162441137066
6513.245831886081,0.0035861352727298724,0.0021272360201591905
6513.246831658296,0.003553210015374373,0.0021373418299651913
6513.247831430511,0.0035128516929704983,0.0021472395644362894
6513.248831202726,0.003465548128386555,0.0021569211873558743
6513.249830974942,0.003411944436695238,0.002166364929403713
6513.250830747157,0.0033528334167191396,0.0021755357918502565
6513.251830519373,0.0032891430404168747,0.0021843863998605227
6513.252830291587,0.0032219213983037866,0.0021928582067265597
6513.2538300638025,0.0031523194798475816,0.0022008829959152838
6513.254829836018,0.0030815721736785866,0.0022083845885358345
6513.255829608233,0.00301097788286798,0.002215280654255672
6513.256829380449,0.002941877156409876,0.0022214845435695107
6513.257829152664,0.002875630729313102,0.0022269071060699894
6513.258828924879,0.0028135973324279603,0.002231458520353511
6513.259828697094,0.0027571115831760526,0.0022350502071497164
6513.26082846931,0.002707462226649176,0.0022375969041749
6513.261828241525,0.002665870990129658,0.0022390189511082934
6513.262828013741,0.002633472338442788,0.0022392447844526036
6513.263827785955,0.0026112944415703143,0.002238213592461491
6513.2648275581705,0.002600241664664017,0.0022358780404837927
6513.265827330386,0.00260107886693002,0.00223220694827016
6513.266827102601,0.00261441776792738,0.002227187778098563
6513.267826874817,0.0026407056123145508,0.002220828775275064
6513.268826647032,0.0026802163281283557,0.0022131605976603995
6513.269826419247,0.002733044330915416,0.0022042372865485774
6513.270826191462,0.0027991010884689553,0.0021941364711620414
6513.271825963678,0.00287811453117413,0.002182958762507551
6513.272825735893,0.0029696313655366508,0.0021708263740698483
6513.2738255081085,0.0030730223199962018,0.0021578810911514236
6513.274825280323,0.0031874903142935437,0.0021442817706376345
6513.2758250525385,0.003312081484094487,0.0021302015660795556
6513.276824824754,0.0034456989180120176,0.002115825038662751
6513.277824596969,0.0035871189021295714,0.00210134525154603
6513.278824369185,0.003735009428143865,0.0020869608759083677
6513.2798241414,0.0038879506798844424,0.002072873281147165
6513.280823913615,0.004044457145257896,0.0020592835544662427
6513.28182368583,0.004203000922666667,0.002046389403806973
6513.282823458046,0.004362035740119893,0.002034381938139623
6513.283823230261,0.004520021193497947,0.002023442376175906
6513.2848230024765,0.00467544670889131,0.0020137387859969495
6513.285822774691,0.004826854700601174,0.00200542297998009
6513.2868225469065,0.004972862320956389,0.001998627675698883
6513.287822319122,0.005112181131590877,0.0019934640051294836
6513.288822091337,0.005243634059357272,0.001990019437647194
6513.289821863553,0.0053661691907882685,0.0019883561798552155
6513.290821635767,0.0054788702693487875,0.0019885101095259124
6513.291821407983,0.005580964075071941,0.0019904902802269316
6513.292821180198,0.005671825068839449,0.0019942790035226724
6513.293820952414,0.0057509777166066915,0.001999832485044594
6513.294820724629,0.005818096801323637,0.0020070819583980315
6513.2958204968445,0.005873005876493305,0.0020159352287193607
6513.296820269059,0.005915673909054713,0.002026278517821313
6513.2978200412745,0.005946210127569277,0.00203797850549563
6513.29881981349,0.00596485709036002,0.002050884486067713
6513.299819585705,0.005971981969206484,0.002064830597010607
6513.300819357921,0.00596806602674431,0.0020796381130688546
6513.301819130135,0.005953692319309958,0.0020951178212960113
6513.302818902351,0.0059295318004097585,0.0021110724973230598
6513.303818674566,0.005896328153242613,0.00212729949859989
6513.304818446782,0.005854881748237112,0.002143593480959847
6513.305818218997,0.005806033092665516,0.002159749227340572
6513.3068179912125,0.005750646076026658,0.002175564547973789
6513.307817763427,0.005689591278261669,0.0021908431756953446
6513.308817535642,0.005623729631851888,0.002205397557571108
6513.309817307858,0.00555389682407382,0.0022190514542040616
6513.310817080073,0.00548088896111879,0.0022316422959389403
6513.311816852289,0.005405450114041229,0.0022430232807984993
6513.312816624503,0.005328262352641528,0.0022530652093581873
6513.313816396719,0.005249938729907591,0.0022616580393078323
6513.314816168934,0.00517101945115619,0.0022687121196719668
6513.31581594115,0.005091971220566502,0.0022741590447945426
6513.316815713365,0.0050131895632598445,0.0022779520736061335
6513.31781548558,0.004935003791327772,0.002280066107994204
6513.318815257795,0.004857684189402969,0.002280497296464744
6513.31981503001,0.004781450900754086,0.002279262379320605
6513.320814802226,0.004706483894832129,0.0022763978946525204
6513.321814574441,0.004632933335287659,0.002271959336956436
6513.322814346657,0.004560929697483735,0.002266020326673459
6513.323814118871,0.004490593114406037,0.0022586718149294124
6513.324813891087,0.004422041604073034,0.0022500213121098107
6513.325813663302,0.004355397973905557,0.002240192098995207
6513.326813435518,0.004290795270097059,0.0022293223639834143
6513.327813207733,0.004228380664663049,0.0022175642129204707
6513.328812979948,0.004168317701641592,0.002205082515954094
6513.329812752163,0.004110786888065471,0.002192053573634962
6513.330812524378,0.004055984708187964,0.002178663582962134
6513.331812296594,0.004004121245773034,0.0021651068623054553
6513.332812068809,0.003955416712722839,0.002151583775763714
6513.333811841025,0.003910097283821013,0.0021382983070020118
6513.334811613239,0.0038683906874162287,0.0021254552677609324
6513.335811385455,0.0038305219781598694,0.0021132571601455517
6513.33681115767,0.0037967098400141664,0.002101900725398846
6513.337810929886,0.003767163664645184,0.0020915732162762575
6513.338810702101,0.003742081525909236,0.0020824484493546683
6513.339810474316,0.003721649020360257,0.0020746827352413144
6513.340810246531,0.0037060387836721042,0.002068410838001687
6513.341810018746,0.0036954103659352544,0.002063742163449175
6513.342809790962,0.003689910101202336,0.0020607573975806428
6513.343809563177,0.0036896706547591735,0.0020595057927036537
6513.344809335393,0.0036948100401628238,0.0020600032345368677
6513.345809107607,0.00370543000578139,0.0020622311461993828
6513.346808879823,0.0037216137634564464,0.0020661362210858962
6513.347808652038,0.0037434230853498284,0.0020716309404612003
6513.348808424254,0.0037708948642025688,0.0020785948285663796
6513.349808196469,0.0038040373257231235,0.002086876422808291
6513.350807968684,0.003842826167633592,0.0020962959680896074
6513.351807740899,0.0038872009375433567,0.002106648854830548
6513.352807513114,0.003937061940350086,0.002117709798211429
6513.35380728533,0.003992267907612718,0.0021292377143625695
6513.354807057545,0.004052634596421818,0.0021409812059905073
6513.35580682976,0.004117934426129076,0.0021526845316267064
6513.356806601975,0.004187897199374184,0.002164093898936115
6513.357806374191,0.00426221187884003,0.0021749638973534127
6513.358806146406,0.004340529305930481,0.002185063875116244
6513.3598059186215,0.004422465658572407,0.0021941840716637653
6513.360805690837,0.004507606353620583,0.002202141332927405
6513.361805463052,0.004595510022903645,0.0022087842576574506
6513.362805235267,0.004685712180139017,0.0022139976427214426
6513.363805007482,0.004777728279546838,0.0022177061065240707
6513.364804779698,0.004871056000826193,0.002219876767387678
6513.365804551913,0.004965176692769858,0.002220520851118268
6513.366804324128,0.0050595559307808485,0.002219694118536601
6513.367804096343,0.005153643134355784,0.0022174960378816676
6513.368803868559,0.005246870231022041,0.0022140676664880675
6513.369803640774,0.0053386494945906965,0.0022095882544173454
6513.3708034129895,0.005428370900821695,0.0022042706455192673
6513.371803185205,0.005515399549426511,0.0021983556146042494
6513.37280295742,0.005599073824420082,0.0021921053258499206
6513.373802729635,0.005678704974877606,0.0021857961295681993
6513.37480250185,0.005753578702159599,0.0021797109427140683
6513.375802274066,0.005822959172145945,0.0021741314804541102
6513.376802046281,0.005886095678040528,0.002169330608050679
6513.377801818496,0.005942231993376641,0.0021655650607091776
6513.378801590711,0.005990618283527254,0.002163068749816956
6513.379801362927,0.006030525285577254,0.0021620468543986984
6513.380801135142,0.006061260331853754,0.0021626708820456377
6513.3818009073575,0.006082184702452001,0.0021650748516871166
6513.382800679572,0.006092731751445682,0.002169352687621704
6513.383800451788,0.006092425233411752,0.002175556828875988
6513.384800224003,0.006080897217315221,0.002183697970927802
6513.385799996218,0.0060579048911665705,0.0021937457893385828
6513.386799768434,0.006023345470564126,0.0022056304655637964
6513.387799540649,0.005977268408539545,0.002219244852170735
6513.388799312864,0.0059198842059948985,0.0022344471662882055
6513.389799085079,0.005851569294356612,0.002251064161243182
6513.390798857295,0.0057728666273152525,0.0022688947709997875
6513.39179862951,0.005684481755264578,0.0022877142307978285
6513.3927984017255,0.005587274293560712,0.0023072786458451233
6513.39379817394,0.00548224486314473,0.0023273299241551126
6513.394797946155,0.005370517801213061,0.002347600939233953
6513.395797718371,0.005253320215673428,0.002367820770575123
6513.396797490586,0.005131958239263159,0.002387719891085138
6513.397797262802,0.005007791537158377,0.002407035207050119
6513.398797035017,0.004882207184438621,0.002425514876272621
6513.399796807232,0.004756593974941888,0.002442922827553099
6513.400796579447,0.004632318091373419,0.0024590428963054893
6513.401796351663,0.0045107008806023596,0.0024736824834135133
6513.402796123878,0.004392999253335173,0.0024866756299579754
6513.4037958960935,0.004280388994792936,0.0024978853819554187
6513.404795668308,0.004173951074564223,0.00250720531446091
6513.405795440523,0.0040746609041990775,0.0025145601073368632
6513.406795212739,0.00398338039813145,0.002519905116470884
6513.407794984954,0.0039008526188283807,0.0025232249592221276
6513.40879475717,0.0038276987278174986,0.0025245312266946518
6513.409794529385,0.003764416942868748,0.0025238595341615542
6513.4107943016,0.0037113832234978057,0.0025212661931254482
6513.411794073815,0.0036688534475467524,0.0025168248038202833
6513.412793846031,0.0036369668803796487,0.002510623022745612
6513.413793618246,0.0036157507790676247,0.0025027596802671428
6513.414793390461,0.0036051260263723866,0.002493342340945947
6513.415793162676,0.0036049137477151836,0.002482485338789149
6513.416792934891,0.003614842905101218,0.0024703082848798862
6513.417792707107,0.0036345588539842258,0.0024569350204535047
6513.418792479322,0.003663632774820086,0.0024424929625124917
6513.419792251538,0.003701571762325791,0.0024271127657677373
6513.420792023752,0.0037478292120129895,0.002410928208626555
6513.421791795968,0.0038018150504326906,0.0023940761954293413
6513.422791568183,0.003862905377675451,0.0023766967507584482
6513.423791340399,0.0039304512254526155,0.002358932878562301
6513.424791112614,0.0040037862896136105,0.0023409301787190827
6513.425790884829,0.004082233579803085,0.0023228361486249743
6513.426790657044,0.0041651109371882876,0.0023047991344983415
6513.427790429259,0.0042517353630699434,0.00228696692766971
6513.428790201475,0.004341426118712324,0.002269485023225995
6513.42978997369,0.004433506601670217,0.0022524945799950835
6513.430789745906,0.0045273050766423935,0.002236130150095781
6513.43178951812,0.0046221544519207385,0.002220517278931589
6513.432789290336,0.004717391427487242,0.0022057701046555816
6513.433789062551,0.004812355436142397,0.002191989110963233
6513.434788834767,0.004906387812314116,0.0021792592098447048
6513.435788606982,0.004998831574112858,0.0021676483387510813
6513.436788379197,0.00508903213428195,0.0021572067319096068
6513.437788151412,0.005176339175453454,0.002147966966427145
6513.438787923627,0.005260109822593332,0.0021399448058397057
6513.439787695843,0.0053397131287557815,0.0021331407856091137
6513.440787468058,0.0054145357951914785,0.0021275424186358812
6513.441787240274,0.005483988998599401,0.002123126847661829
6513.442787012488,0.005547516178512011,0.0021198637342948845
6513.443786784704,0.005604601605070767,0.0021177181526265947
6513.444786556919,0.005654779491284621,0.0021166532573094116
6513.445786329135,0.005697643362624704,0.002116632530851541
6513.44678610135,0.0057328553573561996,0.002117621479435382
6513.4477858735645,0.005760155065995286,0.002119588718870162
6513.44878564578,0.0057793674225660166,0.0021225064466640887
6513.449785417995,0.005790409115051268,0.0021263503231668166
6513.450785190211,0.005793293080754071,0.0021310987917971666
6513.451784962426,0.005788130890109452,0.0021367318716028687
6513.452784734642,0.005775133090594727,0.002143229476732368
6513.453784506856,0.005754607753208813,0.002150569372823549
6513.454784279072,0.005726957477871765,0.002158724958117985
6513.455784051287,0.005692675005862011,0.002167663116474157
6513.456783823503,0.005652337453409696,0.0021773423922037773
6513.457783595718,0.005606599113874709,0.0021877116805105266
6513.4587833679325,0.005556182812173808,0.002198709543681341
6513.459783140148,0.005501869909723778,0.0022102641895781253
6513.460782912363,0.005444489203510714,0.0022222941081398036
6513.461782684579,0.005384905093099084,0.0022347093523837473
6513.462782456794,0.00532400546265957,0.002247413449414344
6513.46378222901,0.0052626897111355,0.002260305909295574
6513.464782001224,0.0052018572588163605,0.0022732852626468824
6513.46578177344,0.00514239669145945,0.002286252516695514
6513.466781545655,0.005085175526098926,0.00229911488137931
6513.467781317871,0.005031030455482934,0.0023117895735432627
6513.468781090086,0.004980757895352478,0.00232420745759351
6513.4697808623005,0.004935104727328313,0.00233631624990868
6513.470780634516,0.004894759265396247,0.0023480830316957237
6513.471780406731,0.004860342621061008,0.0023594958783585266
6513.472780178947,0.004832400747030684,0.0023705644866280013
6513.473779951162,0.004811397461059502,0.002381319733534359
6513.474779723378,0.004797708685434175,0.0023918121357770663
6513.475779495592,0.004791618028092264,0.002402109213311314
6513.476779267808,0.004793313737496118,0.002412291811087532
6513.477779040023,0.004802887004535558,0.0024224495026906154
6513.478778812239,0.004820331542821894,0.002432675284312516
6513.479778584454,0.004845544347588287,0.002443059849266049
6513.480778356668,0.004878327526435675,0.0024536857875749733
6513.481778128884,0.004918391103725724,0.0024646220627480377
6513.482777901099,0.004965356688508102,0.0024759190728151008
6513.483777673315,0.005018761842914017,0.0024876045197297254
6513.48477744553,0.005078064911045852,0.002499680221559242
6513.485777217745,0.005142650010496238,0.0025121199314127297
6513.48677698996,0.005211831905692238,0.002524868182466305
6513.487776762176,0.005284860620262306,0.0025378401541170945
6513.488776534391,0.005360925891499429,0.0025509225361326476
6513.489776306607,0.005439161830776294,0.0025639753349780974
6513.490776078822,0.005518652319107862,0.0025768345159623072
6513.491775851036,0.005598437692359474,0.0025893153350882454
6513.492775623252,0.005677523183581507,0.0026012162090405405
6513.493775395467,0.005754889440859737,0.002612322982614739
6513.494775167683,0.005829505268478082,0.0026224134523474153
6513.495774939898,0.0059003425723370105,0.0026312619992242482
6513.496774712113,0.005966393338806767,0.0026386441908358795
6513.497774484328,0.006026688340593393,0.002644341233379008
6513.498774256544,0.006080317133955453,0.0026481441842782696
6513.499774028759,0.006126448771103536,0.0026498578856149983
6513.500773800975,0.006164352499062615,0.0026493046386392924
6513.50177357319,0.006193417596693608,0.002646327679699703
6513.502773345404,0.006213171486819477,0.0026407945188425333
6513.50377311762,0.006223295371181532,0.0026326001712635417
6513.504772889835,0.006223636793076198,0.0026216702643574548
6513.505772662051,0.006214218624773024,0.002607963951774011
6513.506772434266,0.006195243983000281,0.002591476523439735
6513.507772206481,0.006167096590965973,0.002572241579654191
6513.508771978696,0.006130336233667326,0.0025503326436248645
6513.509771750912,0.006085689200089073,0.002525864113507996
6513.510771523127,0.0060340338975657685,0.0024989914852749395
6513.511771295342,0.005976382093604796,0.002469910796295629
6513.512771067557,0.00591385644876596,0.00243885724704166
6513.513770839772,0.005847665111291803,0.002406102968690578
6513.514770611988,0.005779074138688353,0.0023719539287761
6513.515770384203,0.005709378451186879,0.002336746006728036
6513.516770156419,0.005639871994247759,0.002300840320301453
6513.517769928634,0.005571817826008358,0.002264617930989082
6513.518769700849,0.005506418910487059,0.0022284740904786548
6513.519769473064,0.005444790424657613,0.002192812209088766
6513.52076924528,0.00538793434017805,0.0021580377346433898
6513.521769017495,0.005336716920265931,0.002124552123429329
6513.52276878971,0.005291849615371894,0.002092747054562543
6513.523768561925,0.0052538737037674,0.002062998987216093
6513.52476833414,0.005223148935486709,0.0020356641050143258
6513.525768106356,0.005199846370409296,0.0020110736506296686
6513.526767878571,0.0051839454993484815,0.0019895296319250573
6513.527767650787,0.005175235592246043,0.0019713008811425192
6513.528767423002,0.005173321080451474,0.0019566194707876646
6513.529767195217,0.00517763071246444,0.0019456775224561882
6513.530766967432,0.0051874302472329605,0.0019386244693633977
6513.531766739648,0.005201838526771835,0.0019355648428911432
6513.532766511863,0.005219846821923062,0.0019365566563589447
6513.533766284078,0.005240341318267565,0.0019416104635341274
6513.534766056293,0.005262128512281271,0.0019506891718562723
6513.535765828508,0.005283963159332268,0.00196370867799026
6513.536765600724,0.005304578280788639,0.0019805393544997042
6513.537765372939,0.0053227166069867516,0.002001008356501056
6513.538765145155,0.005337162707622184,0.002024902660289206
6513.53976491737,0.005346774932605749,0.002051972713605237
6513.540764689585,0.005350516150059344,0.0020819365663810622
6513.5417644618,0.005347482158490934,0.00211448434017831
6513.542764234016,0.005336926645734918,0.0021492828765002393
6513.543764006231,0.005318281733427033,0.002185980399598794
6513.544763778446,0.005291173462316423,0.0022242110565700987
6513.545763550661,0.005255431923124843,0.0022635992414125794
6513.546763322876,0.0052110959862753095,0.0023037636458373345
6513.547763095092,0.005158412694375363,0.0023443210088421153
6513.548762867307,0.0050978314368756794,0.002384889570128167
6513.549762639523,0.0050299931314459765,0.002425092260323853
6513.550762411737,0.004955714815842647,0.0024645596672135534
6513.551762183953,0.00487597025200787,0.002502932806697441
6513.552761956168,0.004791867286984401,0.0025398657215541702
6513.553761728384,0.0047046227563767844,0.002575027938375849
6513.554761500599,0.004615535655687228,0.002608106818996383
6513.555761272814,0.004525959191461974,0.0026388098324951386
6513.556761045029,0.00443727223167468,0.0026668667487460373
6513.557760817244,0.004350850657571574,0.0026920317273052352
6513.55876058946,0.004268039173393437,0.0027140852622519027
6513.559760361675,0.0041901241985630635,0.002732835954973735
6513.560760133891,0.004118308486901379,0.002748122114398095
6513.561759906105,0.00405368806384043,0.002759813200735975
6513.562759678321,0.003997231958442425,0.0027678111133230413
6513.563759450536,0.0039497650634993135,0.00277205128419772
6513.564759222752,0.003911954317305699,0.0027725035063134685
6513.565758994967,0.0038842982931606893,0.002769172416187661
6513.566758767182,0.003867120222357746,0.0027620975601095788
6513.567758539397,0.0038605644556652906,0.002751352998647098
6513.568758311612,0.003864596365000627,0.002737046452017034
6513.569758083828,0.0038790056827293965,0.002719318039675887
6513.570757856043,0.0039034132536926707,0.0026983386790174813
6513.571757628259,0.003937281114126964,0.002674308168685188
6513.572757400473,0.003979925706880468,0.002647452931454078
6513.573757172689,0.004030533915724562,0.0026180233796728324
6513.574756944904,0.004088181485271582,0.002586290905264638
6513.57575671712,0.004151853305580204,0.002552544551981064
6513.576756489335,0.004220464974321728,0.002517087456472875
6513.577756261549,0.0042928849829826105,0.00248023314036156
6513.578756033765,0.004367956810189157,0.0024423017232449475
6513.57975580598,0.0044445201889368475,0.0024036161247975715
6513.580755578196,0.004521430887902951,0.0023644983327914494
6513.581755350411,0.0045975785025709525,0.002325265825238052
6513.582755122627,0.004671901942566131,0.002286228240767938
6513.583754894841,0.004743402480907238,0.0022476843890758946
6513.584754667057,0.004811154362021243,0.0022099196825497974
6513.585754439272,0.004874313019420397,0.0021732040451348427
6513.586754211488,0.004932120935951142,0.002137790310864176
6513.587753983703,0.004983911146286323,0.0021039130718735134
6513.588753755917,0.005029108402291774,0.0020717878933159714
6513.589753528133,0.005067228120315049,0.002041610798739568
6513.590753300348,0.005097873377511641,0.002013557952219465
6513.591753072564,0.0051207303815294595,0.001987785510309005
6513.592752844779,0.0051355629652851805,0.0019644296575628416
6513.593752616995,0.005142206714148238,0.0019436068481554058
6513.594752389209,0.005140563293102052,0.001925414252719589
6513.595752161425,0.005130595422772769,0.0019099303808753397
6513.59675193364,0.005112322794180561,0.0018972158452089797
6513.597751705855,0.005085819049144464,0.001887314250637792
6513.598751478071,0.005051209818350311,0.0018802532042283464
6513.599751250285,0.005008671723187466,0.0018760454240966896
6513.600751022501,0.004958432204172101,0.0018746898934904966
6513.601750794716,0.004900770014186528,0.001876172983048251
6513.602750566932,0.004836016202368122,0.0018804694653263307
6513.603750339147,0.00476455542706729,0.0018875433689790476
6513.604750111363,0.004686827465843865,0.0018973486500085714
6513.605749883577,0.0046033287948231945,0.0019098296743985917
6513.606749655793,0.004514614053809435,0.0019249215055014701
6513.607749428008,0.004421297111255572,0.0019425499905068846
6513.608749200223,0.004324051355469031,0.0019626316631491053
6513.609748972439,0.00422360883676465,0.001985073516171552
6513.610748744653,0.004120758004984861,0.0020097727225768724
6513.611748516869,0.0040163399898693886,0.002036616391395174
6513.612748289084,0.003911243556261182,0.0020654814404522754
6513.6137480613,0.0038063989422972887,0.0020962346569935635
6513.614747833515,0.0037027707497809203,0.0021287329874510137
6513.61574760573,0.003601349960321831,0.0021628240475433957
6513.616747377945,0.003503145060590134,0.002198346790057469
6513.6177471501605,0.003409172220768088,0.002235132241811035
6513.618746922376,0.0033204445092399515,0.0022730042443545187
6513.619746694591,0.0032379602266571304,0.002311780184337008
6513.620746466807,0.0031626905450415294,0.002351271732740516
6513.621746239021,0.0030955666974365735,0.00239128560999148
6513.622746011237,0.003037466977571123,0.0024316243779159597
6513.623745783452,0.002989203789886069,0.0024720872479772555
6513.624745555668,0.0029515109527976538,0.002512470889524445
6513.625745327883,0.002925031426385275,0.0025525702263285775
6513.626745100098,0.002910305628865801,0.002592179229943964
6513.627744872313,0.0029077605199069097,0.002631091743969661
6513.6287446445285,0.0029176996544213523,0.0026691023828446497
6513.629744416744,0.0029402944576244483,0.0027060075315801096
6513.630744188959,0.0029755770428279925,0.0027416064405349255
6513.631743961175,0.003023434950281553,0.002775702386266882
6513.632743733389,0.0030836081810676334,0.002808103870646778
6513.633743505605,0.0031556888268934437,0.0028386258495731033
6513.63474327782,0.003239123482612131,0.002867091000233166
6513.635743050036,0.0033332185004090937,0.0028933310373116866
6513.636742822251,0.0034371480137331046,0.0029171880725868166
6513.637742594466,0.0035499645303832816,0.0029385159878587493
6513.638742366681,0.0036706117744821853,0.002957181775151783
6513.6397421388965,0.0037979393490147817,0.0029730668061278974
6513.640741911112,0.003930718697343027,0.0029860680191846596
6513.641741683327,0.004067659790130013,0.002996099033752306
6513.642741455542,0.0042074279973507945,0.0030030912010571595
6513.643741227757,0.004348660731120964,0.003006994581764136
6513.644740999973,0.004489983602862041,0.003007778813326586
6513.645740772188,0.004630025942391538,0.003005433807913235
6513.646740544404,0.004767435543442243,0.002999970222803502
6513.647740316619,0.004900892477761514,0.0029914196733199917
6513.648740088834,0.005029121842221301,0.002979834699935006
6513.649739861049,0.005150905412701243,0.0029652885387615765
6513.6507396332645,0.005265092339885591,0.0029478747639415186
6513.65173940548,0.005370609159055554,0.0029277068640563295
6513.652739177695,0.005466469445945622,0.0029049177914326797
6513.65373894991,0.0055517834352789485,0.0028796595008129472
6513.654738722125,0.005625767855753637,0.00285210247987899
6513.655738494341,0.005687756137523971,0.002822435263437011
6513.656738266556,0.005737209008283348,0.0027908639082572947
6513.657738038772,0.005773725311634116,0.0027576113847202427
6513.658737810987,0.005797052676091601,0.0027229168186039023
6513.659737583202,0.005807097457680231,0.0026870344960360274
6513.660737355417,0.005803933193789855,0.002650232535397928
6513.6617371276325,0.005787806691437698,0.0026127911494999603
6513.662736899848,0.005759140918188948,0.00257500047211669
6513.663736672063,0.0057185341101566815,0.002537157971841389
6513.664736444278,0.00566675486302006,0.002499565492546841
6513.665736216493,0.005604733249414811,0.002462525959114926
6513.666735988709,0.005533548108911523,0.002426339803911187
6513.667735760924,0.005454410648458167,0.0023913012037760114
6513.66873553314,0.00536864451697709,0.0023576942394904848
6513.669735305355,0.005277662663829669,0.002325789084685387
6513.67073507757,0.0051829415287002354,0.0022958383112497973
6513.671734849785,0.005085993349362562,0.0022680733789327695
6513.6727346220005,0.004988337535085828,0.0022427013635624706
6513.673734394216,0.004891472102182647,0.002219901976861216
6513.674734166431,0.004796846111253167,0.0021998249486930295
6513.675733938646,0.004705833918022384,0.002182587872218993
6513.676733710861,0.004619711888540607,0.002168274627757869
6513.677733483077,0.004539638053670132,0.002156934483356406
6513.678733255292,0.004466634997493173,0.002148581929398473
6513.679733027508,0.004401576111184314,0.0021431972641937263
6513.680732799722,0.00434517522318967,0.0021407279121619656
6513.681732571938,0.00429797954454718,0.0021410904131509392
6513.682732344153,0.0042603658326348035,0.0021441729694813574
6513.683732116368,0.0042325396637207195,0.002149838396322513
6513.684731888584,0.004214537699284024,0.002157927308389639
6513.685731660799,0.004206232808634006,0.0021682613892709053
6513.686731433014,0.004207341854238396,0.0021806466153326343
6513.687731205229,0.0042174358739927075,0.0021948763331991953
6513.688730977445,0.00423595234920358,0.002210734114968475
6513.68973074966,0.004262209257789234,0.002227996344286851
6513.690730521876,0.0042954206661248604,0.0022464345256399095
6513.69173029409,0.004334713658189691,0.002265817349428299
6513.692730066306,0.004379146389251122,0.0022859125650083393
6513.693729838521,0.004427726985765095,0.002306488707086072
6513.694729610736,0.004479432935884992,0.00232731670857275
6513.695729382952,0.004533230555666847,0.0023481714348323832
6513.696729155167,0.004588094076279773,0.002368833181651388
6513.697728927382,0.004643023880223802,0.0023890891713755818
6513.698728699597,0.004697063433542833,0.0024087350585528257
6513.699728471813,0.004749314515098768,0.0024275764384557473
6513.700728244028,0.004798950402060093,0.002445430349204117
6513.701728016244,0.004845226694546278,0.0024621267577191078
6513.702727788458,0.004887489448233393,0.002477510004070807
6513.7037275606735,0.004925180282595689,0.0024914401477457693
6513.704727332889,0.004957838216604382,0.0025037941321709306
6513.705727105104,0.0049850981774057345,0.002514466685337183
6513.70672687732,0.005006686371111299,0.002523370911917054
6513.707726649534,0.0050224129060188315,0.002530438582342369
6513.70872642175,0.005032162178644283,0.0025356201526366925
6513.709726193965,0.005035881604863655,0.0025388845437469597
6513.710725966181,0.005033569349722518,0.0025402186872364773
6513.711725738396,0.005025261788982805,0.0025396268316318915
6513.712725510612,0.0050110214907384,0.0025371296174770547
6513.713725282826,0.004990926495259908,0.0025327629632305084
6513.7147250550415,0.004965061577819806,0.0025265768312112526
6513.715724827257,0.004933512013114048,0.002518633939835268
6513.716724599472,0.004896360143905951,0.0025090084589015535
6513.717724371688,0.004853684816736276,0.002497784691323324
6513.718724143902,0.004805563515696309,0.002485055728610285
6513.719723916118,0.004752076831222856,0.0024709220776773333
6513.720723688333,0.004693314757451789,0.0024554902874682704
6513.721723460549,0.004629384220421494,0.002438871637346336
6513.722723232764,0.004560417211555419,0.0024211809673399276
6513.72372300498,0.0044865789540451066,0.0024025357274792313
6513.724722777194,0.004408075656834613,0.002383055303312399
6513.7257225494095,0.004325161559267913,0.002362860640852898
6513.726722321625,0.004238145064505485,0.002342074150763394
6513.72772209384,0.004147393766261353,0.0023208198323473764
6513.728721866056,0.00405333813452755,0.0022992235422081486
6513.72972163827,0.003956473623585653,0.0022774133407717618
6513.730721410486,0.003857361042346114,0.002255519857547671
6513.731721182701,0.0037566251599819734,0.0022336766028375576
6513.732720954917,0.0036549516508357065,0.0022120201263793686
6513.733720727132,0.0035530825545091642,0.002190689906163219
6513.734720499348,0.0034518104139996683,0.0021698278646494827
6513.735720271562,0.0033519711858946265,0.0021495774561517207
6513.7367200437775,0.0032544359634461076,0.0021300823259046506
6513.737719815993,0.003160101572778412,0.0021114845823479917
6513.738719588208,0.0030698801877866817,0.00209392274125382
6513.739719360424,0.002984688203500957,0.002077529404489548
6513.740719132638,0.002905434662300575,0.002062428745140399
6513.741718904854,0.0028330095341904914,0.0020487338944781748
6513.742718677069,0.002768272125118517,0.0020365443604199503
6513.743718449285,0.0027120398393050524,0.002025943635225108
6513.7447182215,0.0026650774647009466,0.0020169971519641275
6513.745717993716,0.002628087096497137,0.0020097507173134155
6513.74671776593,0.0026016987690808727,0.0020042295000371156
6513.7477175381455,0.0025864618352250835,0.002000437614869748
6513.748717310361,0.0025828371209077926,0.0019983583118203473
6513.749717082576,0.002591189912517142,0.001997954742778189
6513.750716854792,0.0026117839035815545,0.0019991712256200167
6513.751716627006,0.0026447763010200003,0.0020019348800759187
6513.752716399222,0.0026902143110458594,0.0020061574903023323
6513.753716171437,0.00274803318300694,0.002011737461417548
6513.754715943653,0.0028180559265624824,0.0020185617742850335
6513.755715715868,0.0028999947669876096,0.0020265078907149865
6513.756715488083,0.002993454355840609,0.0020354456020292558
6513.757715260298,0.003097936683545008,0.0020452388375035023
6513.7587150325135,0.0032128475424009354,0.002055747457152161
6513.759714804729,0.0033375042826077816,0.002066829045981713
6513.760714576944,0.003471144508742254,0.0020783407026551876
6513.76171434916,0.003612935295671085,0.0020901407848491213
6513.762714121374,0.0037619824931593494,0.0021020905546089144
6513.76371389359,0.003917339765167864,0.0021140556691645242
6513.764713665805,0.004078017142180887,0.0021259074854715673
6513.765713438021,0.004242988971601222,0.002137524184234421
6513.766713210236,0.004411201182527354,0.0021487917551311964
6513.767712982451,0.004581577767502799,0.002159604897750885
6513.768712754666,0.0047530264012278,0.002169867875613601
6513.769712526881,0.0049244432167043556,0.0021794953261724172
6513.770712299097,0.005094716919992502,0.0021884129911549904
6513.771712071312,0.005262732561232252,0.002196558296407318
6513.772711843527,0.005427375324031587,0.002203880693666015
6513.773711615742,0.005587534655179508,0.002210341698912351
6513.774711387958,0.005742108988400936,0.0022159146234318914
6513.775711160173,0.005890011262146555,0.0022205840642048266
6513.776710932389,0.006030175394118397,0.002224345261886522
6513.777710704604,0.006161563833660688,0.002227203432222044
6513.778710476819,0.006283176254549311,0.0022291731476479725
6513.779710249034,0.006394059379183269,0.002230277820380282
6513.780710021249,0.0064933178454541305,0.002230549329609599
6513.781709793465,0.006580125938211482,0.002230027834394609
6513.78270956568,0.006653739916655339,0.0022287618086707234
6513.783709337895,0.006713510597186288,0.002226808319930473
6513.78470911011,0.0067588958024729015,0.002224233541124367
6513.785708882326,0.006789472236892291,0.0022211134283352395
6513.786708654541,0.006804946269969374,0.002217534424112467
6513.787708426757,0.006805163019538944,0.0022135939919507397
6513.788708198972,0.006790113100858075,0.002209400787729705
6513.7897079711865,0.006759936535137477,0.002205074334103393
6513.790707743402,0.006714923600132875,0.002200744148674455
6513.791707515617,0.006655512742689834,0.0021965483397125003
6513.792707287833,0.006582285893391158,0.0021926317065094378
6513.793707060048,0.006495961537604879,0.002189143385425912
6513.794706832263,0.006397385747291292,0.002186234093760901
6513.795706604478,0.006287521187106619,0.0021840530472571253
6513.796706376694,0.006167434008200348,0.0021827446537394943
6513.797706148909,0.006038278621962834,0.002182445105533164
6513.798705921125,0.005901280592899382,0.002183279005189652
6513.79970569334,0.005757718183193674,0.0021853561671006127
6513.8007054655545,0.005608903288147649,0.0021887687363779593
6513.80170523777,0.005456162577383991,0.0021935887360146375
6513.802705009985,0.005300819624026023,0.0021998660873153294
6513.803704782201,0.00514417868869861,0.0022076270754618635
6513.804704554416,0.004987510650436623,0.0022168731932517213
6513.805704326631,0.00483204137282866,0.0022275803065064832
6513.806704098846,0.0046789425888846626,0.0022396981244104924
6513.807703871062,0.004529325206796377,0.0022531499974407236
6513.808703643277,0.004384234807917518,0.002267833089523805
6513.809703415493,0.004244649048764545,0.002283618980313622
6513.810703187708,0.004111476687454741,0.002300354750828468
6513.8117029599225,0.003985557997744399,0.0023178645878260983
6513.812702732138,0.003867666363513535,0.0023359519068791366
6513.813702504353,0.0037585108328080717,0.0023544019506822893
6513.814702276569,0.00365873935955971,0.0023729847874077122
6513.815702048784,0.0035689424158679628,0.002391458628735226
6513.816701820999,0.0034896566708302185,0.0024095734060538077
6513.817701593214,0.003421368515324498,0.0024270745731385652
6513.81870136543,0.0033645173153730927,0.002443707135193829
6513.819701137645,0.0033194983323352628,0.002459219929529179
6513.8207009098605,0.0032866652335598427,0.0024733701865659445
6513.821700682075,0.0032663320624665483,0.0024859283713723973
6513.8227004542905,0.0032587744933773965,0.002496683257938336
6513.823700226506,0.003264230201418284,0.0025054471416408436
6513.824699998721,0.003282898224363679,0.002512061055756111
6513.825699770937,0.0033149372306383513,0.0025163998218807986
6513.826699543152,0.003360462598209735,0.002518376735638571
6513.827699315367,0.0034195421793490168,0.002517947675357587
6513.828699087582,0.00349219064130897,0.002515114422322066
6513.829698859798,0.003578362363851774,0.002509926995955587
6513.830698632013,0.0036779430099038502,0.00250248483814101
6513.8316984042285,0.0037907400175379766,0.0024929367198931107
6513.832698176443,0.003916472371874327,0.0024814792807832204
6513.8336979486585,0.004054760102409526,0.0024683541599176836
6513.834697720874,0.004205114001363198,0.002453843753475092
6513.835697493089,0.004366926059421232,0.002438265715978993
6513.836697265305,0.004539461075819404,0.0024219663687810207
6513.837697037519,0.004721849840636862,0.0024053131843322553
6513.838696809735,0.004913084220584412,0.002388686515016105
6513.83969658195,0.005112014408790193,0.0023724707597512855
6513.840696354166,0.005317348536340074,0.0023570452035506654
6513.841696126381,0.005527654816006755,0.002342774803535094
6513.8426958985965,0.005741366409143544,0.0023300012182517573
6513.843695670811,0.005956789245292003,0.002319034378622307
6513.8446954430265,0.006172113035071655,0.002310144872511716
6513.845695215242,0.00638542567730555,0.0023035573690036305
6513.846694987457,0.00659473116490202,0.002299445261518437
6513.847694759673,0.006797970940406995,0.0022979266696533064
6513.848694531887,0.006993048465968512,0.002299061904165322
6513.849694304103,0.007177856605145852,0.002302852462007772
6513.850694076318,0.007350307302917119,0.002309241574812989
6513.851693848534,0.007508362996707504,0.002318116283415684
6513.852693620749,0.0076500691911131746,0.002329310956487197
6513.8536933929645,0.007773587684609833,0.002342612117266117
6513.854693165179,0.007877230011041231,0.0023577643874828046
6513.855692937394,0.007959490662850444,0.002374477302618611
6513.85669270961,0.008019079527081599,0.0023924327122021834
6513.857692481825,0.008054952703661914,0.0024112924727673567
6513.858692254041,0.008066340583640398,0.002430706171417664
6513.859692026255,0.008052771885726251,0.002450318662991414
6513.860691798471,0.008014092414346087,0.0024697772400293938
6513.861691570686,0.007950477641454595,0.002488738281332412
6513.862691342902,0.007862438710582068,0.0025068732584625705
6513.863691115117,0.007750821914197501,0.0025238740223516606
6513.8646908873325,0.007616801944716496,0.002539457321087792
6513.865690659547,0.0074618692443098435,0.002553368499420263
6513.866690431762,0.007287811697164533,0.002565384322149935
6513.867690203978,0.007096690875625505,0.002575314882389244
6513.868689976193,0.0068908131462818364,0.0025830046046393103
6513.869689748409,0.006672696133680071,0.00258833240117792
6513.870689520623,0.006445031248085764,0.0025912110657173204
6513.871689292839,0.0062106431465212145,0.002591585997331488
6513.872689065054,0.005972447084831908,0.00258943335489733
6513.87368883727,0.005733405123431732,0.00258475775120007
6513.874688609485,0.005496482081746375,0.00257758960302682
6513.8756883817005,0.005264602039938888,0.0025679822522994365
6513.876688153915,0.005040606108559789,0.0025560089583017975
6513.87768792613,0.004827212127197216,0.0025417598431591993
6513.878687698346,0.004626976874333156,0.0025253388741031217
6513.879687470561,0.0044422612656022376,0.0025068609917874144
6513.880687242777,0.004275198928787453,0.002486449522635223
6513.881687014991,0.004127668495340632,0.0024642340185874008
6513.882686787207,0.004001269907473293,0.002440348638496842
6513.883686559422,0.003897304973840242,0.002414931127876183
6513.884686331638,0.003816762328964376,0.002388122385537239
6513.885686103853,0.0037603068830513063,0.0023600665484109296
6513.886685876068,0.0037282737774141624,0.0023309114950173446
6513.887685648283,0.0037206667667652213,0.0023008096661716916
6513.888685420498,0.003737160844406611,0.0022699191147017212
6513.889685192714,0.0037771088498683185,0.002238404698145476
6513.890684964929,0.0038395517946106404,0.0022064393020677416
6513.891684737145,0.003923232725788718,0.002174204939240344
6513.892684509359,0.004026614081663069,0.0021418935463146938
6513.893684281575,0.004147898595692606,0.0021097073199425873
6513.89468405379,0.004285053818330255,0.0020778584916875584
6513.895683826006,0.00443584024317712,0.002046568506828472
6513.896683598221,0.004597842885988367,0.0020160666256341577
6513.897683370436,0.004768506012836451,0.0019865880046120057
6513.898683142651,0.004945170572196999,0.001958371339264913
6513.899682914866,0.005125113756425789,0.001931656156054894
6513.900682687082,0.005305589989820632,0.0019066798378378806
6513.901682459297,0.005483872521592386,0.0018836744696615608
6513.902682231512,0.005657294743955746,0.0018628636048998069
6513.903682003727,0.0058232904176819264,0.00184445906652957
6513.904681775943,0.005979432152848537,0.0018286579022802228
6513.905681548158,0.006123467641551067,0.0018156395932535318
6513.9066813203735,0.006253353152116329,0.0018055635715066099
6513.907681092589,0.006367283664557353,0.001798567052449842
6513.908680864804,0.0064637188523590785,0.001794763161353262
6513.909680637019,0.006541404018173266,0.0017942393383525539
6513.910680409234,0.0065993851667007055,0.0017970560232904024
6513.91168018145,0.006637017680759035,0.001803245626058141
6513.912679953665,0.0066539684848646915,0.001812811773709249
6513.91367972588,0.00665021197988351,0.001825728799897944
6513.914679498095,0.006626020292227732,0.001841941410588394
6513.915679270311,0.006581948504537834,0.0018613644278770557
6513.916679042526,0.006518815592104848,0.0018838824969363067
6513.9176788147415,0.006437681813777892,0.0019093496608698333
6513.918678586957,0.006339823289622791,0.001937588773014993
6513.919678359172,0.006226704450356932,0.0019683908075836553
6513.920678131387,0.006099948999562354,0.0020015142109972277
6513.921677903602,0.005961309999924674,0.002036684481666679
6513.922677675818,0.005812639655579286,0.002073594177217487
6513.923677448033,0.005655859294567469,0.0021119035412510527
6513.924677220248,0.005492929965859811,0.0021512419220000847
6513.925676992463,0.005325823970942532,0.0021912101154496298
6513.926676764679,0.0051564975600923825,0.002231383705412023
6513.927676536894,0.004986864945865575,0.002271317408254443
6513.9286763091095,0.004818773735127712,0.0023105503771152992
6513.929676081325,0.004653981874638487,0.0023486123823186424
6513.93067585354,0.004494136254257856,0.0023850307537374936
6513.931675625755,0.004340753205067059,0.0024193379377343786
6513.93267539797,0.004195201231333228,0.0024510794774648594
6513.933675170186,0.004058686379982115,0.0024798221718599026
6513.934674942401,0.00393224064985086,0.002505162127798012
6513.935674714616,0.003816713774642016,0.0025267324210919316
6513.936674486831,0.0037127685955108676,0.002544210128503336
6513.937674259047,0.0036208800918717883,0.002557322557738917
6513.938674031262,0.0035413379774043006,0.0025658525566798714
6513.9396738034775,0.0034742526035728325,0.0025696428186709206
6513.940673575693,0.0034195637642403407,0.00256859912130157
6513.941673347907,0.003377051896420053,0.00256269244476944
6513.942673120123,0.0033463511572534303,0.0025519599196584036
6513.943672892338,0.0033269639260996974,0.0025365045699596188
6513.944672664554,0.003318276387822989,0.0025164938591184967
6513.945672436769,0.0033195749347905107,0.0024921571056895474
6513.946672208984,0.003330063137021301,0.00246378188442489
6513.947671981199,0.003348878972936219,0.0024317095535467594
6513.948671753415,0.0033751119375430238,0.0023963300598787616
6513.94967152563,0.0034078196310373906,0.002358076185586102
6513.9506712978455,0.003446043534840049,0.0023174174107900574
6513.95167107006,0.003488823874416367,0.0022748535590353417
6513.952670842275,0.003535213639105733,0.0022309083592141933
6513.953670614491,0.003584291883981774,0.0021861230106191977
6513.954670386706,0.0036351763748434717,0.0021410498011286863
6513.955670158922,0.003687035516627606,0.0020962458133242192
6513.956669931137,0.0037390993958685455,0.0020522667463393034
6513.957669703352,0.003790669728652148,0.0020096608623715556
6513.958669475567,0.003841128570950943,0.001968963037434323
6513.959669247783,0.0038899457886575994,0.00193068888182575
6513.960669019998,0.003936685411155863,0.0018953289172343357
6513.9616687922135,0.003981011023572559,0.0018633428425182939
6513.962668564428,0.004022690273699823,0.0018351539590702882
6513.963668336643,0.0040615984225305735,0.0018111438466123313
6513.964668108859,0.004097720701378859,0.0017916473917592459
6513.965667881074,0.0041311530815401135,0.00177694828551459
6513.96666765329,0.00416210094409588,0.001767275119714935
6513.967667425504,0.004190875111132298,0.0017627982166674768
6513.96866719772,0.004217884804736426,0.0017636273130644101
6513.969666969935,0.00424362730552471,0.0017698101873533233
6513.970666742151,0.004268674304473631,0.001781332274179964
6513.971666514366,0.004293655126605777,0.0017981172579023784
6513.972666286581,0.004319237168589115,0.0018200285853272541
6513.973666058796,0.004346104077119579,0.0018468717925617035
6513.974665831011,0.004374932406740252,0.0018783975138896918
6513.975665603227,0.004406367686307201,0.0019143050378320492
6513.976665375442,0.004441000927481367,0.0019542462870187943
6513.977665147658,0.004479346592661412,0.001997830114225915
6513.978664919872,0.004521822917899327,0.0020446268342526968
6513.979664692088,0.004568735300622268,0.0020941729570375595
6513.980664464303,0.004620263252497789,0.0021459761339487635
6513.981664236519,0.0046764512105961385,0.002199520348991005
6513.982664008734,0.0047372033150966785,0.002254271372960175
6513.983663780949,0.004802282116171357,0.002309682467446312
6513.984663553164,0.004871311066256809,0.0023652002958097027
6513.985663325379,0.0049437805647915365,0.002420270979470764
6513.986663097595,0.005019057228697667,0.0024743462277967746
6513.98766286981,0.005096395962267722,0.0025268894568143976
6513.988662642026,0.005174954317738765,0.002577381792544812
6513.98966241424,0.005253808614338421,0.002625327846186303
6513.990662186456,0.005331971348452282,0.00267026116815701
6513.991661958671,0.005408409547309819,0.002711749332450044
6513.992661730887,0.0054820638037974,0.0027493986551178923
6513.993661503102,0.005551867728634103,0.0027828585923019697
6513.994661275317,0.005616767517980477,0.00281182587428801
6513.995661047532,0.0056757413472736575,0.0028360484039284127
6513.996660819747,0.005727818380104906,0.002855328895245908
6513.997660591963,0.0057720972544968675,0.0028695281746603306
6513.998660364178,0.005807763911945541,0.0028785680226922944
6513.999660136394,0.005834108565520249,0.0028824333977524232
6514.000659908608,0.005850541504207513,0.00288117386206612
6514.001659680824,0.005856607337448503,0.002874904032898454
6514.002659453039,0.005851997204662312,0.0028638029091994396
6514.003659225255,0.005836558411384307,0.002848111967183683
6514.00465899747,0.005810300924423997,0.0028281319787888167
6514.005658769685,0.005773400175659201,0.002804218587652479
6514.0066585419,0.005726195682565813,0.002776776767828103
6514.007658314115,0.005669185119166954,0.0027462543690265784
6514.008658086331,0.005603013735338932,0.002713134999219112
6514.009657858546,0.005528459443361152,0.0026779305013585777
6514.010657630762,0.005446414344073211,0.002641173248503257
6514.011657402976,0.00535786376015443,0.00260340842204437
6514.012657175192,0.005263863887833204,0.0025651863637485063
6514.013656947407,0.0051655190272307935,0.00252705502386002
6514.014656719623,0.005063959119800883,0.002489552497062286
6514.015656491838,0.004960318095109683,0.0024531996655525958
6514.0166562640525,0.0048557133608822245,0.0024184930329004687
6514.017656036268,0.004751226689348478,0.002385897889791305
6514.018655808483,0.004647886752978866,0.002355841978202117
6514.019655580699,0.004546653596427813,0.0023287098191640426
6514.020655352914,0.004448405339112524,0.0023048378531298312
6514.02165512513,0.004353927353486363,0.00228451051075036
6514.022654897344,0.0042639040694006985,0.002267957283340342
6514.02365466956,0.004178913440452229,0.002255350810824359
6514.024654441775,0.004099423983820473,0.0022468059686169893
6514.025654213991,0.004025794175654875,0.0022423799087438064
6514.026653986206,0.00395827387203604,0.002242072975550183
6514.0276537584205,0.0038970073614378797,0.0022458303724157557
6514.028653530636,0.0038420376508755466,0.0022535444234914677
6514.029653302851,0.0037933116400809385,0.002265057266853391
6514.030653075067,0.0037506859458825053,0.0022801638303823254
6514.031652847282,0.003713933300324779,0.002298614976852224
6514.032652619497,0.003682749627454529,0.0023201207577382417
6514.033652391712,0.003656762043452723,0.002344353771395077
6514.034652163928,0.003635538074079804,0.00237095266374209
6514.035651936143,0.0036185963326878516,0.0023995258373707895
6514.036651708359,0.0036054187747835585,0.00242965545410082
6514.037651480574,0.003595464481820344,0.0024609018244761993
6514.038651252788,0.0035881847665739735,0.002492808271596205
6514.039651025004,0.00358303925244397,0.002524906538154491
6514.040650797219,0.003579512453657691,0.002556722776467226
6514.041650569435,0.0035771302677559107,0.0025877841206437815
6514.04265034165,0.0035754757052797463,0.002617625791280969
6514.043650113865,0.0035742031650314227,0.0026457986343822438
6514.04464988608,0.0035730506447576877,0.0026718769529770424
6514.045649658296,0.0035718494325206913,0.002695466450766968
6514.046649430511,0.0035705309804473007,0.002716212068816384
6514.047649202727,0.003569130757368349,0.0027338054612867893
6514.048648974942,0.0035677889146606156,0.0027479918335246638
6514.049648747156,0.0035667476455121046,0.002758575863886596
6514.050648519372,0.0035663452366198004,0.0027654264478336474
6514.051648291587,0.003567007008158808,0.0027684800288802426
6514.052648063803,0.003569233550190032,0.002767742315878206
6514.053647836018,0.003573586813534907,0.0027632882456543485
6514.054647608233,0.0035806746647518467,0.0027552601407442156
6514.055647380448,0.003591134478647442,0.002743864114859696
6514.056647152664,0.003605616248676521,0.002729364867840066
6514.057646924879,0.003624765588603207,0.0027120790743581586
6514.058646697094,0.003649206923774311,0.002692367604629145
6514.05964646931,0.003679527146706959,0.002670626825079331
6514.060646241524,0.0037162600211515687,0.002647279225622267
6514.06164601374,0.0037598716316289325,0.0026227636232372025
6514.062645785955,0.0038107471733300046,0.0025975252015481586
6514.063645558171,0.003869179349052401,0.0025720056515725095
6514.064645330386,0.003935358577681129,0.002546633670308079
6514.065645102601,0.004009365129486314,0.002521816056110451
6514.066644874816,0.004091163213429765,0.0024979296226478884
6514.067644647032,0.0041805969849896575,0.0024753141373761492
6514.068644419247,0.004277388447832713,0.002454266470464827
6514.069644191462,0.004381137294715146,0.0024350361091494185
6514.070643963678,0.00449132284014767,0.0024178221394649314
6514.071643735892,0.004607308278943073,0.002402771716223244
6514.072643508108,0.004728347508416712,0.0023899799480402626
6514.073643280323,0.004853594662676035,0.0023794910446830117
6514.074643052539,0.004982116347283624,0.002371300526901145
6514.075642824754,0.005112906375208242,0.002365358289901719
6514.076642596969,0.005244902637310539,0.0023615723371367163
6514.077642369184,0.005377005625684338,0.0023598130408206183
6514.0786421414,0.005508098074073676,0.0023599178135725834
6514.079641913615,0.0056370651681621016,0.0023616960891200867
6514.08064168583,0.0057628147810570825,0.0023649345266420906
6514.081641458045,0.005884297202700014,0.0023694023757309386
6514.08264123026,0.0060005238927213645,0.002374856947877477
6514.083641002476,0.006110584914185723,0.002381049127055125
6514.084640774691,0.006213664841699726,0.0023877288345949175
6514.085640546907,0.006309056983641872,0.0023946503630438744
6514.086640319122,0.006396175678731254,0.0024015775072651875
6514.087640091337,0.0064745662794267545,0.0024082884269170397
6514.088639863552,0.006543912321219838,0.0024145801575225765
6514.089639635768,0.006604039387170008,0.002420272655977872
6514.090639407983,0.006654915341701647,0.002425212242869591
6514.091639180198,0.0066966468707826705,0.0024292743017143245
6514.092638952413,0.006729472513633321,0.0024323651107262152
6514.093638724628,0.006753752511223766,0.0024344227061722646
6514.094638496844,0.006769955808549996,0.0024354167023688832
6514.095638269059,0.006778644472825078,0.0024353470265730897
6514.096638041275,0.006780455701124331,0.0024342415819190574
6514.097637813489,0.006776081576317161,0.0024321529378537837
6514.098637585705,0.006766246865845101,0.002429154249538607
6514.09963735792,0.006751685440946142,0.00242533468702757
6514.100637130136,0.006733116200244278,0.0024207946826350396
6514.101636902351,0.00671121955594244,0.00241564128540215
6514.102636674566,0.006686615535618263,0.002409983871853476
6514.103636446781,0.006659844435540074,0.002403930421426679
6514.104636218996,0.006631350807287181,0.0023975845195878588
6514.105635991212,0.0066014713855309624,0.0023910431900598466
6514.106635763427,0.00657042735700772,0.0023843955837058225
6514.107635535643,0.0065383211305685305,0.0023777224833860357
6514.108635307857,0.006505137524367941,0.002371096532319504
6514.109635080073,0.006470749068785516,0.0023645830585583083
6514.110634852288,0.006434924941835108,0.0023582413508262414
6514.111634624504,0.0063973429086156604,0.0023521262379077573
6514.112634396719,0.006357603545389236,0.0023462898226893243
6514.113634168934,0.006315246027774608,0.0023407832154859003
6514.114633941149,0.006269764875322029,0.0023356581095919293
6514.115633713364,0.006220627241193097,0.0023309680630857286
6514.11663348558,0.006167290525303749,0.002326769399096778
6514.117633257795,0.006109220180908327,0.002323121694580001
6514.118633030011,0.006045907551210284,0.002320087869393082
6514.119632802225,0.005976887449623969,0.0023177338982338456
6514.120632574441,0.0059017550398693325,0.0023161281548216995
6514.121632346656,0.005820181432929403,0.002315340385401846
6514.122632118872,0.0057319273473325555,0.0023154403203068134
6514.123631891087,0.005636854216912749,0.002316495972001462
6514.124631663302,0.005534932285216064,0.0023185717180176724
6514.125631435517,0.0054262454596936665,0.0023217262998726307
6514.126631207732,0.005310992933381963,0.00232601086916499
6514.127630979948,0.005189487740437626,0.0023314671889129745
6514.128630752163,0.005062152468227315,0.0023381260760131925
6514.129630524379,0.004929512342361739,0.0023460061675452826
6514.130630296593,0.004792185911860591,0.0023551131044410923
6514.131630068809,0.004650873650060018,0.002365439226194945
6514.132629841024,0.0045063449391733795,0.0023769638412580443
6514.13362961324,0.004359424042552016,0.0023896540828714824
6514.134629385455,0.004210975712640771,0.0024034662947828044
6514.13562915767,0.004061891019696495,0.0024183478298453057
6514.136628929885,0.003913073857042848,0.0024342390957929534
6514.1376287021,0.003765428433442748,0.0024510756486198337
6514.138628474316,0.0036198479315774127,0.0024687901171153645
6514.139628246531,0.003477204406569848,0.002487313754315742
6514.140628018747,0.003338339925913912,0.002506577464612395
6514.141627790961,0.003204058904782828,0.0025265122399273166
6514.142627563177,0.0030751215525980646,0.0025470490284751077
6514.143627335392,0.002952238311901749,0.0025681181327997416
6514.144627107607,0.002836065142732243,0.0025896482778488246
6514.145626879823,0.0027271994884953384,0.0026115654964782497
6514.146626652037,0.0026261767595391725,0.0026337919510884475
6514.147626424253,0.0025334671976408023,0.00265624477032488
6514.148626196468,0.0024494730400601737,0.0026788349598203505
6514.149625968684,0.002374525976687103,0.002701466453279001
6514.150625740899,0.0023088849676791276,0.0027240353868339504
6514.151625513115,0.002252734533508039,0.002746429687710808
6514.152625285329,0.0022061836337530787,0.002768529067507613
6514.153625057545,0.002169265240727817,0.002790205509757463
6514.15462482976,0.0021419367209168584,0.0028113243392920077
6514.155624601975,0.0021240811573556306,0.002831745942897606
6514.156624374191,0.0021155097468459317,0.0028513281673522945
6514.157624146405,0.002115965368973054,0.002869929356255424
6514.158623918621,0.0021251273664696733,0.0028874119115326552
6514.159623690836,0.0021426175291100434,0.002903646192074986
6514.160623463052,0.0021680072456365077,0.00291851450779346
6514.161623235267,0.0022008257618867113,0.002931914950290395
6514.162623007482,0.002240569438667258,0.0029437648294781335
6514.163622779697,0.0022867118445480494,0.0029540035460183457
6514.1646225519125,0.002338714465369958,0.0029625947927474834
6514.165622324128,0.0023960377724756825,0.002969528021676782
6514.166622096343,0.0024581523657429,0.002974819138400318
6514.167621868559,0.0025245498986139515,0.0029785104098679197
6514.168621640773,0.0025947534963740916,0.002980669607476293
6514.169621412989,0.002668327377813805,0.0029813884531512606
6514.170621185204,0.0027448853747963787,0.0029807804757667894
6514.17162095742,0.0028240980327505338,0.0029789784041970376
6514.172620729635,0.0029056979914613853,0.0029761312211614606
6514.17362050185,0.0029894833839511988,0.0029724009845179034
6514.174620274065,0.0030753190316141635,0.002967959488176944
6514.1756200462805,0.003163135265200487,0.0029629847843359695
6514.176619818496,0.0032529242911586227,0.0029576575423572215
6514.177619590711,0.0033447341462869143,0.002952157205685704
6514.178619362927,0.0034386604030217914,0.002946657934770372
6514.179619135141,0.0035348358757029043,0.0029413243717419406
6514.180618907357,0.0036334186275944467,0.0029363073085712536
6514.181618679572,0.003734578584531508,0.00293173937603075
6514.182618451788,0.003838483030301772,0.0029277308929664264
6514.183618224003,0.003945281230371924,0.0029243660184291487
6514.184617996218,0.004055088457441783,0.002921699334454468
6514.185617768433,0.004167969788296533,0.0029197529671864675
6514.1866175406485,0.0042839241596499865,0.002918514342323066
6514.187617312864,0.004402869250867369,0.0029179346716194025
6514.188617085079,0.004524627784469814,0.0029179282691531323
6514.189616857295,0.00464891581571188,0.0029183727826818428
6514.190616629509,0.004775333537334701,0.002919110395746036
6514.191616401725,0.004903359076057465,0.002919950024633037
6514.19261617394,0.005032345725918878,0.0029206705096693052
6514.193615946156,0.00516152303864112,0.002921024777756209
6514.194615718371,0.005290002123820643,0.0029207449249383545
6514.195615490586,0.00541678536830333,0.002919548131363341
6514.196615262801,0.005540780577304464,0.00291714327917998
6514.1976150350165,0.005660819302540363,0.002913238107670023
6514.198614807232,0.005775678880065761,0.0029075467252541684
6514.199614579447,0.005884107468662471,0.0028997973085127878
6514.200614351663,0.005984851175323777,0.002889739833362837
6514.201614123877,0.006076682217303022,0.0028771536771703037
6514.202613896093,0.006158427061235556,0.0028618549000626577
6514.203613668308,0.0062289936185098045,0.0028437029767735492
6514.204613440524,0.006287396790675793,0.0028226067228065786
6514.205613212739,0.006332781826959919,0.002798529151899948
6514.206612984954,0.006364444993536514,0.0027714910291560917
6514.207612757169,0.0063818509792809616,0.002741572945446342
6514.2086125293845,0.006384646391245762,0.002708915810837016
6514.2096123016,0.0063726687495976285,0.002673719730224501
6514.210612073815,0.006345950614130453,0.0026362412903770745
6514.21161184603,0.006304718805782283,0.002596789365828877
6514.212611618245,0.006249389026877604,0.0025557196361105186
6514.213611390461,0.006180556440926963,0.0025134280771852667
6514.214611162676,0.006098982909390572,0.0024703437210366204
6514.215610934892,0.006005581629870414,0.0024269209608858387
6514.216610707107,0.005901399921936739,0.002383631631757313
6514.217610479322,0.005787600868789791,0.0023409570390054936
6514.218610251537,0.005665444434007295,0.0022993800513721706
6514.2196100237525,0.005536268540263562,0.002259377324819969
6514.220609795968,0.005401470438409191,0.002221411686468468
6514.221609568183,0.005262488523792411,0.002185924693506557
6514.222609340398,0.00512078459113394,0.002153329396519988
6514.223609112613,0.004977826395301473,0.002124003381224401
6514.224608884829,0.0048350703474700045,0.0020982822277379348
6514.225608657044,0.004693944244370393,0.002076453588355148
6514.22660842926,0.004555830067704276,0.0020587521111316387
6514.227608201474,0.004422047039179848,0.002045355408819999
6514.22860797369,0.004293835242161394,0.0020363812028895622
6514.229607745905,0.004172340218227692,0.002031885692190958
6514.23060751812,0.004058598995510674,0.0020318631311285564
6514.231607290336,0.0039535279859506485,0.0020362465620408815
6514.232607062551,0.0038579131174264997,0.00204490962662263
6514.233606834766,0.003772402471609245,0.0020576693711794308
6514.234606606981,0.0036975015860790956,0.0020742899539570848
6514.235606379197,0.0036335714566485245,0.002094487160614709
6514.236606151412,0.00358082916626396,0.002117933632431985
6514.237605923628,0.0035393509861956574,0.0021442646995023314
6514.238605695842,0.003509077730891646,0.0021730846841631554
6514.239605468058,0.003489822071361568,0.0022039735091743656
6514.240605240273,0.003481277411629428,0.002236493425250167
6514.241605012488,0.0034830278347416097,0.0022701956731942152
6514.242604784704,0.003494558582985641,0.0023046269208676492
6514.243604556919,0.0035152666003450475,0.0023393353586031373
6514.244604329134,0.003544470835298202,0.0023738763807076165
6514.245604101349,0.003581422211131282,0.002407817807317725
6514.246603873565,0.003625313323270187,0.0024407446071626642
6514.24760364578,0.00367528797171431,0.002472263077685388
6514.248603417996,0.0037304506105007343,0.002502004436406943
6514.24960319021,0.0037898757595345423,0.00252962779088925
6514.250602962426,0.003852617421465229,0.0025548224976008446
6514.251602734641,0.00391771857419448,0.002577309987955137
6514.252602506856,0.0039842208295898,0.002596845208493843
6514.253602279072,0.004051174330713596,0.0026132178639356324
6514.254602051287,0.004117647912233491,0.0026262536459840287
6514.255601823502,0.004182739504302325,0.002635815572483652
6514.256601595717,0.004245586734724107,0.002641805472651144
6514.257601367933,0.004305377658660514,0.0026441655722887164
6514.258601140148,0.0043613614885113245,0.0026428800788208767
6514.259600912364,0.004412859098714993,0.002637976630075339
6514.260600684578,0.004459272960668889,0.002629527435012454
6514.2616004567935,0.004500096063279826,0.002617649899432142
6514.262600229009,0.004534919346801555,0.0026025065146777905
6514.263600001224,0.004563437253150768,0.002584303810516787
6514.26459977344,0.004585451145174275,0.002563290233863129
6514.265599545655,0.004600870487132827,0.002539752898726911
6514.26659931787,0.00460971174694233,0.0025140132488126214
6514.267599090085,0.004612095003677412,0.002486421773388606
6514.268598862301,0.004608238304837284,0.0024573519995327547
6514.269598634516,0.004598449951451834,0.002427194027551356
6514.270598406732,0.004583119036987695,0.0023963478771817075
6514.271598178946,0.004562704652112538,0.0023652168824101743
6514.2725979511615,0.004537724174327361,0.002334201324913458
6514.273597723377,0.004508741016452909,0.002303692439035653
6514.274597495592,0.004476352143104819,0.002274066866959624
6514.275597267808,0.0044411756105264735,0.002245681606262891
6514.276597040022,0.004403838360546807,0.0022188694771259803
6514.277596812238,0.004364964490433646,0.0021939351298031523
6514.278596584453,0.004325164204722595,0.0021711516027613275
6514.279596356669,0.00428502363511047,0.002150757433113759
6514.280596128884,0.004245095701167142,0.002132954321425219
6514.2815959011,0.004205892169448492,0.002117905356423829
6514.282595673314,0.004167877033498171,0.002105733800911498
6514.2835954455295,0.004131461271362244,0.002096522429891843
6514.284595217745,0.0040969989424865195,0.0020903134060033836
6514.28559498996,0.0040647844926504,0.0020871086787760435
6514.286594762176,0.004035051099171535,0.0020868708938601827
6514.28759453439,0.004007969932685793,0.002089524786538617
6514.288594306606,0.00398365029018854,0.002094959015796141
6514.289594078821,0.003962140600413384,0.0021030283923077985
6514.290593851037,0.0039434302989845614,0.0021135564807981907
6514.291593623252,0.00392745254402099,0.0021263385989691557
6514.292593395467,0.003914087726725978,0.0021411452562071958
6514.293593167682,0.0039031677550184743,0.0021577260544407453
6514.2945929398975,0.0038944811637178925,0.002175814018821197
6514.295592712113,0.0038877791983344,0.0021951302620921327
6514.296592484328,0.0038827830623317486,0.002215388839916327
6514.297592256544,0.003879192466630994,0.002236301641760715
6514.298592028758,0.003876695489808918,0.0022575831804336993
6514.299591800974,0.0038749795954724736,0.002278955173485589
6514.300591573189,0.0038737435062079595,0.002300150832632988
6514.301591345405,0.0038727095297844435,0.0023209187884184737
6514.30259111762,0.0038716358775063723,0.0023410265821961203
6514.303590889835,0.003870328496335349,0.002360263662946797
6514.30459066205,0.003868651947573038,0.002378443837123456
6514.3055904342655,0.003866538904300945,0.002395407137639453
6514.306590206481,0.0038639978987677105,0.002411021102667252
6514.307589978696,0.0038611190047556057,0.0024251814885131347
6514.308589750912,0.0038580771717806957,0.0024378124858673023
6514.309589523126,0.0038551329626826695,0.002448866553559306
6514.310589295342,0.0038526305388442614,0.0024583240047997045
6514.311589067557,0.003850992916152892,0.00246619246210228
6514.312588839773,0.0038507147428373766,0.002472506240269121
6514.313588611988,0.0038523530457058404,0.0024773256380646105
6514.314588384203,0.0038565164818069315,0.0024807360513991214
6514.315588156418,0.0038638535990299767,0.0024828468036754694
6514.316587928633,0.003875040495165353,0.002483789634792289
6514.317587700849,0.003890768148290301,0.0024837168677333404
6514.318587473064,0.003911729630144513,0.002482799333623898
6514.31958724528,0.0039386074027299295,0.0024812241547894965
6514.320587017494,0.003972060881557281,0.0024791924580236458
6514.32158678971,0.004012714390863396,0.0024769170276992434
6514.322586561925,0.004061145561166709,0.0024746198294200977
6514.323586334141,0.004117874176392769,0.002472529270005193
6514.324586106356,0.004183351482998318,0.0024708770437707876
6514.325585878571,0.004257949999273625,0.0024698944644044895
6514.326585650786,0.0043419538670809435,0.0024698082773611765
6514.327585423001,0.004435549759625375,0.0024708360466044327
6514.328585195217,0.004538818341107599,0.002473181272881498
6514.329584967432,0.004651726327998715,0.002477028419911566
6514.330584739648,0.004774119336448095,0.002482538023374742
6514.331584511862,0.00490571585391066,0.002489842062223255
6514.332584284078,0.005046102761286244,0.002499039781404245
6514.333584056293,0.005194732812157967,0.0025101941444209044
6514.334583828509,0.005350924369109332,0.002523329048879276
6514.335583600724,0.005513863560795243,0.0025384273781633047
6514.336583372939,0.005682608909220982,0.002555429926897938
6514.337583145154,0.005856098404442157,0.002574235243549254
6514.338582917369,0.006033158954061425,0.002594700450685636
6514.339582689585,0.006212518071003543,0.0026166430874535974
6514.3405824618,0.006392817583381987,0.0026398439607484983
6514.341582234015,0.0065726291047990704,0.0026640509218525932
6514.34258200623,0.006750471034173789,0.002688983436900502
6514.343581778446,0.006924826935460967,0.0027143378021918805
6514.344581550661,0.007094165209184146,0.002739792857336008
6514.345581322877,0.0072569599599919465,0.002765016052852263
6514.346581095092,0.007411712881034722,0.0027896697289962317
6514.3475808673065,0.00755697583177045,0.0028134174726794055
6514.348580639522,0.00769137360651106,0.002835930452657984
6514.349580411737,0.00781362622416321,0.0028568936755484857
6514.350580183953,0.007922569979655741,0.0028760121186454314
6514.351579956168,0.008017176532934198,0.002893016656111833
6514.352579728383,0.008096569464227411,0.002907669620159323
6514.353579500598,0.00816003791494801,0.0029197697726658814
6514.354579272814,0.008207047057905568,0.002929156441286263
6514.355579045029,0.008237245156953978,0.0029357126035128495
6514.356578817245,0.008250466950327488,0.0029393667659432686
6514.357578589459,0.00824673314796351,0.002940093565890309
6514.3585783616745,0.00822624603847185,0.002937913107201537
6514.35957813389,0.008189381494236819,0.002932889124785754
6514.360577906105,0.008136677917873925,0.0029251261449521563
6514.361577678321,0.0080688228177917,0.0029147658575134107
6514.362577450536,0.007986637732137179,0.0029019829266264015
6514.363577222751,0.007891062145022384,0.0028869804414040907
6514.364576994966,0.007783136859046832,0.002869985160740468
6514.365576767182,0.007663987045512412,0.0028512426554664085
6514.366576539397,0.007534804980837111,0.002831012404953782
6514.3675763116125,0.007396832385633002,0.002809562874082948
6514.368576083827,0.007251342341060781,0.0027871665847329988
6514.3695758560425,0.007099620920250183,0.0027640951963303242
6514.370575628258,0.006942948854841138,0.0027406146125967677
6514.371575400473,0.006782583677640824,0.002716980139709695
6514.372575172689,0.00661974280390883,0.002693431747393303
6514.373574944904,0.0064555879554244935,0.0026701895301011096
6514.374574717119,0.006291211252036495,0.0026474495085787365
6514.375574489334,0.00612762324958999,0.0026253799234306012
6514.37657426155,0.005965743204691187,0.0026041181431917734
6514.377574033765,0.005806391863131622,0.0025837682621086253
6514.3785738059805,0.005650287051070947,0.00256439943078806
6514.379573578195,0.00549804226927162,0.002546044959670303
6514.3805733504105,0.005350168357104768,0.0025287022431276685
6514.381573122626,0.005207078130099298,0.0025123335419340357
6514.382572894841,0.005069093730872401,0.0024968676245736964
6514.383572667057,0.0049364562881437585,0.0024822022221937536
6514.384572439272,0.004809337357164457,0.002468207223902222
6514.385572211487,0.004687851516694846,0.0024547285358642082
6514.386571983702,0.004572069432034564,0.0024415925341874384
6514.387571755918,0.0044620306750211905,0.002428611038427436
6514.388571528133,0.004357755623623774,0.00241558671369324
6514.3895713003485,0.004259255845262131,0.0024023187852774876
6514.390571072563,0.004166542509794118,0.002388608935280305
6514.3915708447785,0.004079632578181135,0.0023742672496242273
6514.392570616994,0.003998552725397148,0.002359118089730782
6514.393570389209,0.003923341119808521,0.0023430057737289763
6514.394570161425,0.003854047275699792,0.0023257999692623964
6514.39556993364,0.003790730247491362,0.0023074007140169253
6514.396569705855,0.003733455479652975,0.0022877429712330408
6514.39756947807,0.0036822906810584735,0.002266800590477093
6514.398569250286,0.0036373011390710727,0.0022445895002404666
6514.399569022501,0.0035985448880603336,0.0022211699367000594
6514.4005687947165,0.003566068079517592,0.0021966475245465103
6514.401568566931,0.0035399007907457973,0.0021711730711266794
6514.4025683391465,0.003520053403199017,0.0021449410125811185
6514.403568111362,0.0035065136164209253,0.0021181865507681158
6514.404567883577,0.0034992441480352354,0.0020911816188783836
6514.405567655793,0.0034981811785425466,0.002064229885626976
6514.406567428007,0.0035032335880643135,0.0020376610395260153
6514.407567200223,0.003514282981286222,0.0020118245874685466
6514.408566972438,0.003531184426427845,0.001987083366564768
6514.409566744654,0.0035537677668037587,0.0019638069220550233
6514.410566516869,0.0035818392963590014,0.001942364864588813
6514.4115662890845,0.0036151835179617144,0.0019231202934240866
6514.412566061299,0.0036535646546369065,0.00190642335170368
6514.413565833514,0.003696727613926546,0.0018926049617875088
6514.41456560573,0.0037443982357221487,0.001881970780707377
6514.415565377945,0.0037962828346480466,0.0018747954282572958
6514.416565150161,0.003852067198490366,0.0018713170704919343
6514.417564922375,0.003911415285644068,0.001871732471424574
6514.418564694591,0.003973967894726626,0.0018761926345977834
6514.419564466806,0.004039341583480744,0.0018847991410758298
6514.420564239022,0.0041071280912921325,0.0018976012697509235
6514.421564011237,0.004176894460675347,0.0019145939761024727
6514.422563783452,0.004248183967898374,0.0019357168038255225
6514.423563555667,0.004320517890768935,0.0019608537961134684
6514.424563327882,0.004393398086265144,0.001989834449196271
6514.425563100098,0.004466310321661301,0.0020224357104526467
6514.426562872313,0.004538728279569064,0.002058384979453875
6514.427562644529,0.004610118116958235,0.0020973640363961686
6514.428562416743,0.004679943396588716,0.0021390138017788143
6514.429562188959,0.004747670158100624,0.002182939819193692
6514.430561961174,0.004812771905861248,0.0022287183453621384
6514.43156173339,0.004874734378109733,0.0022759029247855834
6514.432561505605,0.0049330600876539964,0.002324031315565705
6514.43356127782,0.00498727273164412,0.0023726326140602505
6514.434561050035,0.005036921622506319,0.0024212344041187397
6514.43556082225,0.005081586289045485,0.002469369745242637
6514.436560594466,0.0051208813518859005,0.0025165838194262137
6514.437560366681,0.005154461708678476,0.0025624400706924723
6514.438560138897,0.005182027974042595,0.0026065256855323507
6514.439559911111,0.005203332000869539,0.0026484562787078753
6514.440559683327,0.005218182170238118,0.002687879682631243
6514.441559455542,0.005226448007140573,0.002724478808626918
6514.442559227758,0.0052280636026628205,0.0027579736486756682
6514.443558999973,0.005223029328113224,0.0027881225728694273
6514.444558772188,0.005211411410350755,0.0028147231034470047
6514.445558544403,0.0051933390980327485,0.002837612302728342
6514.446558316618,0.005168999395560337,0.0028566668339765617
6514.447558088834,0.005138629644556152,0.00287180269075541
6514.448557861049,0.00510250849728067,0.0028829745774562802
6514.449557633265,0.005060945970641064,0.0028901749635799104
6514.450557405479,0.005014273300271489,0.0028934328906401532
6514.451557177695,0.004962833292174813,0.0028928126355609375
6514.45255694991,0.004906971821892518,0.0028884123154059513
6514.4535567221255,0.004847031035392972,0.00288036248347686
6514.454556494341,0.004783344644149276,0.0028688247439587677
6514.455556266556,0.004716235505885075,0.002853990402519797
6514.456556038771,0.004646015496651137,0.002836079164225483
6514.457555810986,0.004572987547434925,0.0028153378878308846
6514.458555583202,0.004497449634007264,0.002792039411035857
6514.459555355417,0.004419700437577025,0.0027664814661135253
6514.460555127633,0.004340046310818928,0.0027389856874217855
6514.461554899847,0.004258809091987844,0.0027098966554564225
6514.462554672063,0.004176334227799082,0.002679580834120982
6514.463554444278,0.004092998610919006,0.0026484251707430766
6514.4645542164935,0.004009217519888427,0.0026168350819870054
6514.465553988709,0.003925450067482098,0.002585231566076075
6514.466553760924,0.003842202612542982,0.002554047254329313
6514.467553533139,0.0037600296770853563,0.002523721321723631
6514.468553305354,0.0036795320548919834,0.002494693306076814
6514.46955307757,0.003601351997565378,0.0024673960245000137
6514.470552849785,0.003526165573307498,0.0024422478875098215
6514.471552622,0.003454672467144886,0.0024196449578437634
6514.472552394215,0.003387583627413268,0.002399953079483037
6514.473552166431,0.0033256072743411058,0.0023835003476878306
6514.474551938646,0.00326943385647312,0.0023705701437425407
6514.4755517108615,0.003219720546817394,0.002361394930551364
6514.476551483077,0.0031770758222023124,0.0023561509825314668
6514.477551255292,0.003142044598311434,0.0023549541957464536
6514.478551027507,0.003115094320801434,0.0023578570977202833
6514.479550799722,0.0030966023448982813,0.0023648471502838698
6514.480550571938,0.0030868448781038735,0.0023758463986477967
6514.481550344153,0.003085987721912076,0.0023907124621526574
6514.482550116368,0.003094079023142076,0.0024092408083880674
6514.483549888583,0.0031110442156560953,0.0024311682251134782
6514.484549660799,0.0031366832901616047,0.002456177400657746
6514.485549433014,0.003170670477717421,0.002483902524847307
6514.4865492052295,0.003212556372489334,0.002513935819021382
6514.487548977444,0.0032617724468020372,0.0025458348910654704
6514.48854874966,0.003317637833143347,0.002579130780563892
6514.489548521875,0.003379368188367977,0.002613336509704818
6514.49054829409,0.003446086441775207,0.002647955906961286
6514.491548066306,0.0035168352672735105,0.002682492445931215
6514.492547838521,0.0035905911894165725,0.0027164578496424213
6514.493547610736,0.0036662802930781755,0.0027493802431988582
6514.494547382951,0.0037427955119124293,0.002780811677624316
6514.495547155167,0.003819015396421298,0.002810334882757276
6514.496546927382,0.003893824124312935,0.002837569137782203
6514.4975466995975,0.003966132361226382,0.0028621751779535176
6514.498546471812,0.004034898446093267,0.002883859080613935
6514.499546244027,0.004099149261042256,0.0029023750872948237
6514.500546016243,0.004158000041362077,0.0029175273280184237
6514.501545788458,0.004210672324728482,0.002929170431941126
6514.502545560674,0.004256509301773392,0.0029372090395730077
6514.503545332889,0.004294988026771814,0.002941596273219358
6514.504545105104,0.004325728196208672,0.0029423312714813177
6514.505544877319,0.004348497400637556,0.0029394559407201755
6514.506544649535,0.00436321286158961,0.0029330511054135484
6514.50754442175,0.004369939704836713,0.0029232322496863224
6514.5085441939655,0.004368885843714713,0.0029101450490712664
6514.50954396618,0.0043603936078273975,0.0028939608976991426
6514.510543738395,0.004344928390819092,0.0028748726240708875
6514.511543510611,0.00432306478346468,0.002853090542349816
6514.512543282826,0.004295470830763938,0.002828838909333236
6514.513543055042,0.004262891143922626,0.002802352773333309
6514.514542827257,0.004226129602182068,0.0027738751404389347
6514.515542599472,0.004186032315733654,0.002743654362889396
6514.516542371687,0.004143471410141783,0.0027119416688895213
6514.517542143903,0.004099330056428286,0.00267898878694046
6514.518541916118,0.004054489031109566,0.002645045650608089
6514.519541688333,0.004009814956811218,0.0026103581835482228
6514.520541460548,0.003966150243959703,0.002575166161761117
6514.521541232763,0.003924304624528915,0.002539701161533115
6514.522541004979,0.0038850480416422993,0.002504184655134149
6514.523540777194,0.0038491045440996983,0.0024688263925970546
6514.52454054941,0.0038171467635294922,0.002433823249639184
6514.525540321625,0.0037897905688098737,0.002399358692822076
6514.52654009384,0.0037675896115093067,0.0023656029269027283
6514.527539866055,0.0037510296451368926,0.0023327136806111553
6514.528539638271,0.00374052263900074,0.0023008374819437263
6514.529539410486,0.0037364007864438007,0.002270111194264525
6514.530539182701,0.003738910571474052,0.0022406635556463787
6514.531538954916,0.003748207151145529,0.0022126164988174584
6514.532538727131,0.0037643494202873836,0.002186086106552551
6514.533538499347,0.0037872962107665395,0.002161183134701071
6514.534538271562,0.003816904119458866,0.002138013085966342
6514.535538043778,0.0038529274529241916,0.0021166758440789683
6514.536537815992,0.003895020714291212,0.002097264890512672
6514.537537588208,0.003942743934854257,0.0020798661335578146
6514.538537360423,0.003995570986820593,0.002064556397107165
6514.539537132639,0.004052900839711073,0.002051401654473693
6514.540536904854,0.004114071565355166,0.002040455136097343
6514.541536677069,0.004178376747783478,0.0020317554571350487
6514.542536449284,0.004245083797200916,0.0020253248880481205
6514.543536221499,0.004313453517144909,0.0020211678442809567
6514.544535993715,0.004382760175817049,0.0020192696207371793
6514.54553576593,0.004452311301752415,0.002019595352319665
6514.546535538146,0.004521466420591681,0.002022089151507529
6514.54753531036,0.004589653940341532,0.002026673373769145
6514.548535082576,0.004656385412299456,0.002033248001843243
6514.549534854791,0.00472126651262783,0.002041690205477825
6514.550534627007,0.004784004323631189,0.002051854187217256
6514.551534399222,0.004844410781817967,0.0020635714360081056
6514.5525341714365,0.004902402399019516,0.002076651475947938
6514.553533943652,0.0049579964762645305,0.0020908831434989714
6514.554533715867,0.0050113040190376745,0.0021060363881052133
6514.555533488083,0.005062519503700898,0.0021218645827001757
6514.556533260298,0.005111907630475546,0.0021381073315120927
6514.557533032514,0.005159787284949944,0.0021544937438436546
6514.558532804728,0.0052065131306882634,0.0021707461056721584
6514.559532576944,0.0052524555328212754,0.0021865838545438196
6514.560532349159,0.0052979797675031725,0.002201727764393804
6514.561532121375,0.005343425591120069,0.002215904264712333
6514.56253189359,0.005389088185005665,0.0022288498298116636
6514.5635316658045,0.005435201306113071,0.0022403153631319677
6514.56453143802,0.005481923238324743,0.0022500704728933905
6514.565531210235,0.005529325910615552,0.0022579075094112736
6514.566530982451,0.005577387367536489,0.002263645226672476
6514.567530754666,0.0056259876555187095,0.002267131945438983
6514.568530526882,0.005674908093521957,0.0022682481339299895
6514.569530299096,0.005723833799704463,0.0022669083756612215
6514.570530071312,0.005772359272072545,0.002263062732883064
6514.571529843527,0.00581999681037863,0.0022566975173095123
6514.572529615743,0.00586618760495508,0.002247835466093608
6514.573529387958,0.005910315353179493,0.002236535330246173
6514.5745291601725,0.005951722259300039,0.0022228909289731774
6514.575528932388,0.005989727211068413,0.002207029777300844
6514.576528704603,0.006023645795804593,0.002189111414242127
6514.577528476819,0.006052811630212604,0.0021693255296743774
6514.578528249034,0.006076598274119192,0.002147889925879052
6514.57952802125,0.006094440830760621,0.0021250482831023662
6514.580527793464,0.00610585624767564,0.0021010676536784567
6514.58152756568,0.00611046134841823,0.0020762355954400567
6514.582527337895,0.006107987758632089,0.0020508568623451746
6514.583527110111,0.006098293130212831,0.0020252495875352603
6514.584526882326,0.006081368347843627,0.00199974092089673
6514.58552665454,0.00605734060501233,0.001974662122882774
6514.586526426756,0.006026472286253943,0.0019503431711978465
6514.587526198971,0.005989155546426388,0.001927107002267304
6514.588525971187,0.005945902486561908,0.0019052635646602104
6514.589525743402,0.005897331001696122,0.0018851038845394705
6514.590525515618,0.00584414671378798,0.0018668943339035353
6514.591525287832,0.005787121795659996,0.0018508712693220352
6514.592525060048,0.005727071797755129,0.0018372361892332579
6514.593524832263,0.005664831710168452,0.001826151548976763
6514.594524604479,0.0056012324297358565,0.0018177373695108915
6514.595524376694,0.005537078642539684,0.0018120687642895188
6514.596524148908,0.0054731289664952856,0.0018091744810307812
6514.597523921124,0.005410079051938379,0.0018090365176622806
6514.598523693339,0.005348548175565486,0.0018115908343905524
6514.599523465555,0.005289069650588909,0.001816729145039065
6514.60052323777,0.005232085126148854,0.0018243017230571267
6514.601523009985,0.005177942613667619,0.0018341211048004292
6514.6025227822,0.005126897906522448,0.0018459665286289864
6514.603522554416,0.005079118965361009,0.0018595889182566466
6514.604522326631,0.005034692805763658,0.0018747161981391013
6514.605522098846,0.0049936344290453,0.0018910587239952441
6514.606521871062,0.004955897369784847,0.0019083146437309246
6514.607521643276,0.004921385467721516,0.0019261750791062687
6514.608521415492,0.004889965466573005,0.0019443291061886166
6514.609521187707,0.004861479992282173,0.0019624685687077014
6514.610520959923,0.004835760422931609,0.0019802927642277863
6514.611520732138,0.00481263920033721,0.001997513013255295
6514.612520504353,0.0047919612531153516,0.002013857080030088
6514.613520276568,0.00477359433160591,0.0020290733764306095
6514.614520048784,0.004757438127533441,0.0020429348543293843
6514.615519820999,0.004743432066759749,0.0020552424788374264
6514.616519593214,0.004731561669086224,0.0020658281775488285
6514.61751936543,0.004721863387972382,0.0020745571857835633
6514.618519137644,0.004714427854264238,0.002081329752507471
6514.61951890986,0.004709401428324864,0.0020860822133699415
6514.620518682075,0.004706985920508106,0.002088787456640266
6514.621518454291,0.004707436295313452,0.0020894548148898697
6514.622518226506,0.004711056158834587,0.0020881294296250827
6514.623517998721,0.0047181908727225,0.0020848911534158228
6514.624517770936,0.004729218253006986,0.002079853055768271
6514.625517543152,0.004744536963687218,0.0020731595808510723
6514.626517315367,0.0047645528305090435,0.0020649843795259547
6514.627517087582,0.0047896633378199565,0.002055527818970205
6514.628516859797,0.004820240577904552,0.0020450141683605763
6514.629516632012,0.004856612989571452,0.002033688465301749
6514.630516404228,0.004899046380840777,0.002021813068137684
6514.631516176443,0.004947724918879165,0.002009663879905486
6514.632515948659,0.005002732905781952,0.0019975262004786427
6514.633515720874,0.005064038196811667,0.0019856901507652905
6514.634515493089,0.0051314780657581195,0.001974445635088378
6514.635515265304,0.0052047482234180474,0.0019640768695179073
6514.63651503752,0.005283395589919406,0.0019548565966915027
6514.637514809735,0.005366815317647863,0.0019470402037558183
6514.63851458195,0.005454252442529785,0.001940860020551431
6514.639514354165,0.00554480838852002,0.001936520078614592
6514.64051412638,0.005637452359767413,0.0019341915673154752
6514.641513898596,0.00573103745018624,0.0019340091552551366
6514.642513670811,0.00582432111777628,0.0019360682731564467
6514.643513443027,0.005915989532628069,0.001940423393302819
6514.644513215242,0.00600468520892489,0.0019470872994985506
6514.645512987457,0.006089037251566952,0.001956031322174624
6514.646512759672,0.006167693464896926,0.0019671865088049427
6514.647512531888,0.006239353473951982,0.0019804456982799035
6514.648512304103,0.006302801902054432,0.00199566645731247
6514.649512076318,0.006356940554236657,0.0020126748102432686
6514.650511848533,0.006400818521741015,0.0020312696537074723
6514.651511620748,0.006433659198959594,0.0020512277090771846
6514.652511392964,0.006454883385291424,0.002072308845215598
6514.653511165179,0.006464127855619975,0.0020942616061368174
6514.654510937395,0.00646125894337845,0.002116828792240676
6514.65551070961,0.006446380759382605,0.002139752959177564
6514.656510481825,0.006419837690855815,0.0021627817142288843
6514.65751025404,0.006382210858209626,0.0021856727081592813
6514.658510026256,0.006334308348815327,0.0022081982376928305
6514.659509798471,0.006277149340675403,0.002230149386581757
6514.660509570686,0.006211942601557208,0.002251339641014769
6514.661509342901,0.006140060170504181,0.002271607917864129
6514.662509115116,0.00606300721966524,0.0022908209440062753
6514.663508887332,0.005982389150486863,0.0023088749249915237
6514.664508659547,0.005899876928115596,0.002325696443540585
6514.665508431763,0.005817171545024141,0.002341242537602332
6514.666508203977,0.005735968386638807,0.0023554999300474996
6514.667507976193,0.005657922193248625,0.0023684834117755917
6514.668507748408,0.005584613278993564,0.002380233404873713
6514.669507520624,0.005517515657538369,0.0023908127531169472
6514.670507292839,0.005457967715157401,0.0024003028112175367
6514.671507065054,0.005407146049932389,0.0024087989272784513
6514.672506837269,0.0053660430400391335,0.0024164054274293857
6514.673506609484,0.005335448606787093,0.0024232302286754837
6514.6745063817,0.005315936517299527,0.0024293792416959768
6514.675506153915,0.005307855445900323,0.002434950769233642
6514.676505926131,0.005311324878513178,0.0024400301283830778
6514.677505698345,0.0053262357888097635,0.0024446847154808602
6514.678505470561,0.00535225583432354,0.0024489597062839403
6514.679505242776,0.005388838616750593,0.0024528745591611023
6514.680505014992,0.005435236345718377,0.0024564204650115956
6514.681504787207,0.0054905151145988795,0.0024595588552191665
6514.682504559422,0.005553572042582474,0.0024622210406054818
6514.683504331637,0.005623153783087596,0.002464309023012878
6514.684504103852,0.005697876227266402,0.0024656974971991015
6514.685503876068,0.005776245470000007,0.002466237030555797
6514.686503648283,0.005856680165624876,0.002465758367476794
6514.687503420499,0.005937535311170383,0.002464077762167399
6514.688503192713,0.00601712733268782,0.0024610031979389146
6514.689502964929,0.006093760174210609,0.002456341292002741
6514.690502737144,0.006165751939272682,0.002449904618487305
6514.691502509359,0.006231461555676197,0.0024415191425280302
6514.692502281575,0.006289314961222081,0.0024310314735024995
6514.693502053789,0.00633783043310672,0.0024183157011395907
6514.694501826005,0.006375642841348666,0.0024032796281749967
6514.69550159822,0.006401526705585707,0.00238587023060499
6514.696501370436,0.006414417916481062,0.0023660781756302644
6514.697501142651,0.00641343386196616,0.002343941232374211
6514.698500914867,0.006397891538993013,0.0023195464287450304
6514.699500687081,0.006367323088238278,0.002293030846248779
6514.700500459297,0.006321488079108212,0.0022645810184358244
6514.701500231512,0.006260381804670106,0.0022344309981651915
6514.702500003727,0.006184238866743037,0.0022028592404679313
6514.703499775943,0.006093531505218881,0.0021701844810167108
6514.704499548157,0.00598896245067159,0.002136760782060937
6514.705499320373,0.005871452440607344,0.002102971886915677
6514.706499092588,0.00574212279151782,0.002069224985275167
6514.707498864804,0.0056022735185802955,0.0020359439635644293
6514.708498637019,0.00545335753253093,0.0020035622185009413
6514.709498409235,0.0052969515315637655,0.0019725151552329183
6514.710498181449,0.005134724366647229,0.0019432325550627415
6514.711497953665,0.004968403826484134,0.0019161310441510853
6514.71249772588,0.004799742888287587,0.001891606893710767
6514.713497498095,0.004630486474706343,0.0018700293347928623
6514.714497270311,0.004462339651323126,0.0018517345044948865
6514.715497042525,0.00429693803527048,0.001837020085016181
6514.716496814741,0.004135821023844026,0.001826140663461326
6514.717496586956,0.003980408335999007,0.0018193038219040572
6514.718496359172,0.003831980283882533,0.0018166669561181642
6514.719496131387,0.003691662112408609,0.001818334817058357
6514.720495903603,0.0035604126301381793,0.001824357772013177
6514.721495675817,0.003439017210783863,0.0018347307908337098
6514.7224954480325,0.003328085095315431,0.0018493931767886694
6514.723495220248,0.0032280507832038717,0.0018682290774326552
6514.724494992463,0.0031391791692398424,0.0018910688168822065
6514.725494764679,0.003061573964456938,0.0019176910807218997
6514.726494536893,0.0029951888523441685,0.0019478259640604578
6514.727494309109,0.0029398407925450244,0.001981158869520412
6514.728494081324,0.002895224898389141,0.0020173352192225736
6514.72949385354,0.002860930371401072,0.002055965924984581
6514.730493625755,0.002836457049881921,0.0020966335401630155
6514.73149339797,0.002821232180139725,0.002138898988795794
6514.732493170185,0.0028146270197296425,0.0021823087351381313
6514.7334929424005,0.0028159728479297814,0.0022264022270126927
6514.734492714616,0.002824575940628629,0.0022707194234935038
6514.735492486831,0.0028397311128337257,0.0023148082041420976
6514.736492259047,0.0028607335583294116,0.0023582314598688666
6514.737492031261,0.00288688889110881,0.0024005736876150097
6514.738491803477,0.0029175214489007527,0.0024414469428849263
6514.739491575692,0.002951981000300851,0.002480496028024115
6514.740491347908,0.002989647998924628,0.0025174028025071824
6514.741491120123,0.0030299374804115204,0.002551889507001875
6514.742490892338,0.0030723016361027702,0.002583721014229864
6514.743490664553,0.0031162310568629997,0.0026127059645933513
6514.7444904367685,0.0031612546573314406,0.0026386968096160225
6514.745490208984,0.0032069383777077473,0.0026615888574472554
6514.746489981199,0.0032528828874808682,0.0026813184696235265
6514.747489753415,0.0032987206265009633,0.0026978605802410937
6514.748489525629,0.00334411257004413,0.002711225699328999
6514.749489297845,0.003388745092478821,0.0027214565395486112
6514.75048907006,0.003432327254356197,0.002728624390537183
6514.751488842276,0.003474588772633652,0.002732825365862756
6514.752488614491,0.0035152788564617498,0.0027341766524113754
6514.753488386706,0.0035541659977398627,0.0027328128853736904
6514.754488158921,0.0035910387017200206,0.00272888275164252
6514.7554879311365,0.003625707047191818,0.002722545901127731
6514.756487703352,0.003658004904237248,0.002713970223275064
6514.757487475567,0.0036877926186937187,0.0027033295120805225
6514.758487247782,0.0037149599679056284,0.0026908014885669213
6514.759487019997,0.0037394291666316176,0.0026765660961474832
6514.760486792213,0.0037611576619116824,0.0026608039704675347
6514.761486564428,0.003780140440705561,0.0026436950260656025
6514.762486336644,0.003796411597948451,0.0026254171672644303
6514.763486108859,0.003810044946926161,0.002606145174942684
6514.764485881074,0.003821153475642565,0.0025860498285281922
6514.765485653289,0.003829887480041679,0.002565297310595402
6514.7664854255045,0.003836431264989134,0.002544048928683197
6514.76748519772,0.0038409983885637016,0.002522461175712822
6514.768484969935,0.003843825510736833,0.002500686123802991
6514.76948474215,0.0038451650007696966,0.0024788720970083163
6514.770484514365,0.0038452765712628308,0.002457164502661094
6514.771484286581,0.0038444183071738337,0.0024357066415244344
6514.772484058796,0.0038428374978750103,0.0024146402931544114
6514.773483831012,0.0038407616687099687,0.0023941059003008015
6514.774483603227,0.0038383901951591836,0.0023742422448745654
6514.775483375442,0.0038358868817113777,0.0023551855920982924
6514.776483147657,0.0038333738648432766,0.0023370683522496312
6514.777482919872,0.0038309271319360225,0.0023200173509559103
6514.778482692088,0.003828573853547906,0.0023041518055485423
6514.779482464303,0.0038262916300318534,0.0022895810935519233
6514.780482236518,0.003824009655451739,0.0022764023927538714
6514.781482008733,0.0038216116997062508,0.0022646982806577803
6514.782481780949,0.0038189407294935552,0.002254534396277197
6514.783481553164,0.0038158049628630544,0.00224595726787724
6514.78448132538,0.003811985166397781,0.0022389923821742874
6514.785481097595,0.003807242994637723,0.0022336425271513925
6514.78648086981,0.0038013300923729677,0.0022298864111996975
6514.787480642025,0.0037939975596382393,0.0022276775596461037
6514.78848041424,0.003785005297636087,0.0022269435091379496
6514.789480186456,0.0037741307799201915,0.0022275853491034604
6514.790479958671,0.0037611769309247906,0.002229477685646602
6514.791479730886,0.003745978979871557,0.002232469116613086
6514.792479503101,0.003728410308006207,0.002236383308176609
6514.793479275317,0.0037083873726752596,0.0022410207588832876
6514.794479047532,0.0036858737864678714,0.002246161320603619
6514.795478819748,0.003660883610050956,0.00225156750689638
6514.796478591962,0.0036334839274102613,0.0022569885624563104
6514.797478364178,0.0036037967994996256,0.002262165207055109
6514.798478136393,0.0035720006883362037,0.002266834910644833
6514.799477908608,0.0035383313806865912,0.002270737505997552
6514.800477680824,0.0035030823334678417,0.002273620913643458
6514.801477453039,0.003466604248966776,0.002275246754380042
6514.802477225254,0.003429303605373802,0.0022753956541361996
6514.803476997469,0.003391639846728541,0.0022738720874058076
6514.804476769685,0.003354120984330349,0.002270508641416503
6514.8054765419,0.0033172974512273093,0.0022651696033275156
6514.806476314116,0.003281754134320553,0.0022577537825598784
6514.80747608633,0.003248100568921764,0.0022481965025306304
6514.8084758585455,0.0032169593587427258,0.002236470744067953
6514.809475630761,0.003188953023640183,0.0022225874772368037
6514.810475402976,0.003164689660551048,0.0022065952506796107
6514.811475175192,0.0031447479641644165,0.0021885791171285997
6514.812474947407,0.003129662243064858,0.002168658977085618
6514.813474719622,0.0031199080821619142,0.0021469874218846287
6514.814474491837,0.003115889267281955,0.0021237471422627333
6514.815474264053,0.003117926524999025,0.002099147939029924
6514.816474036268,0.0031262485509638395,0.0020734233404606627
6514.817473808484,0.00314098570141498,0.002046826806285325
6514.818473580698,0.0031621665998451827,0.002019627487159601
6514.8194733529135,0.0031897177715437815,0.0019921055258867366
6514.820473125129,0.003223466282510589,0.0019645469460536653
6514.821472897344,0.0032631452384421617,0.0019372382618754963
6514.82247266956,0.0033084018902319015,0.0019104610201893162
6514.823472441774,0.003358807987092008,0.0018844865193201438
6514.82447221399,0.003413871924801714,0.001859570939119325
6514.825471986205,0.0034730521775354476,0.0018359510816517563
6514.826471758421,0.0035357714900599345,0.0018138408813082208
6514.827471530636,0.0036014313272720376,0.0017934288039244712
6514.828471302852,0.003669426102603772,0.001774876213076922
6514.829471075066,0.0037391567360578826,0.0017583167319539564
6514.8304708472815,0.003810043164062592,0.0017438565737244326
6514.831470619497,0.0038815355552434083,0.001731575760978763
6514.832470391712,0.003953124129252502,0.0017215301089303265
6514.833470163928,0.004024347560234707,0.0017137538065302358
6514.834469936142,0.004094799956169849,0.001708262398759394
6514.835469708358,0.004164136370648479,0.0017050559567228709
6514.836469480573,0.004232076754687616,0.0017041222142654007
6514.837469252789,0.004298408218568369,0.0017054394493804623
6514.838469025004,0.004362985477374612,0.0017089789164915375
6514.83946879722,0.004425729401222518,0.0017147067099369296
6514.840468569434,0.004486623639059713,0.001722585038981191
6514.8414683416495,0.004545709301456297,0.0017325729773180981
6514.842468113865,0.004603077701310589,0.0017446267922500266
6514.84346788608,0.004658861212046916,0.0017586999633016967
6514.844467658296,0.004713222420608284,0.001774742981370185
6514.84546743051,0.004766341881281642,0.0017927030006104935
6514.846467202726,0.004818404845061683,0.001812523415950335
6514.847466974941,0.00486958731983542,0.0018341434546812851
6514.848466747157,0.004920041770886638,0.0018574978747859072
6514.849466519372,0.004969882798266329,0.0018825168358133709
6514.850466291588,0.005019173258009432,0.001909125953717427
6514.851466063802,0.005067911456108221,0.0019372464886407174
6514.8524658360175,0.0051160201356524205,0.0019667955681183743
6514.853465608233,0.005163337957127319,0.0019976863379925244
6514.854465380448,0.005209614074450602,0.002029827963612932
6514.855465152664,0.005254506287531549,0.0020631254556070107
6514.856464924878,0.00529758311941947,0.002097479339046288
6514.857464697094,0.005338330001755161,0.002132785204211827
6514.858464469309,0.005376159543026616,0.0021689331734322426
6514.859464241525,0.005410425612261758,0.002205807309411249
6514.86046401374,0.0054404407232404965,0.0022432849908781915
6514.861463785955,0.00546549598609063,0.0022812362884713157
6514.86246355817,0.005484882746168867,0.0023195233772692917
6514.8634633303855,0.00549791498773584,0.0023580000208627875
6514.864463102601,0.00550395163851381,0.002396511158978427
6514.865462874816,0.005502418016554362,0.002434892623397517
6514.866462647032,0.005492825737952558,0.0024729709907188335
6514.867462419246,0.0054747904209264935,0.0025105635664219696
6514.868462191462,0.005448046523255812,0.00254747850350454
6514.869461963677,0.005412458716531256,0.002583515093077788
6514.870461735893,0.005368029378988785,0.0026184643027256705
6514.871461508108,0.005314902055039047,0.002652109659901825
6514.872461280323,0.0052533609958544504,0.0026842285766868813
6514.873461052538,0.005183827064981817,0.0027145942007102946
6514.874460824753,0.005106850346916451,0.0027429778719682877
6514.875460596969,0.005023099811021234,0.0027691522664006264
6514.876460369184,0.004933350435194655,0.0027928952946579496
6514.8774601414,0.004838468283095341,0.002813994783009522
6514.878459913614,0.004739394109012965,0.0028322538958005807
6514.87945968583,0.004637126095941863,0.002847497177540686
6514.880459458045,0.004532702292629146,0.002859577007298471
6514.881459230261,0.004427183210638628,0.0028683801768217675
6514.882459002476,0.00432163491568978,0.002873834239886283
6514.883458774691,0.0042171128444246616,0.0028759132475226043
6514.884458546906,0.004114646510665691,0.002874642482548432
6514.885458319121,0.004015225222966751,0.002870101822735995
6514.886458091337,0.003919784910680316,0.0028624273883490464
6514.887457863552,0.003829196145392688,0.0028518111935192138
6514.888457635767,0.003744253437378834,0.002838498662296165
6514.889457407982,0.0036656658754620347,0.0028227840808754375
6514.890457180198,0.0035940491711432742,0.0028050042618923197
6514.891456952413,0.0035299191710227934,0.0027855308168310195
6514.892456724629,0.003473686905342427,0.0027647614542278057
6514.893456496844,0.003425655229427977,0.0027431106847939637
6514.8944562690585,0.0033860170885500495,0.0027210002627885655
6514.895456041274,0.0033548554114707606,0.002698849643325258
6514.896455813489,0.003332144631442364,0.002677066690555129
6514.897455585705,0.0033177538498271064,0.0026560388396276034
6514.89845535792,0.003311451677024917,0.002636124907759738
6514.899455130135,0.003312912770604123,0.0026176477625972825
6514.90045490235,0.003321726020055125,0.0026008880626245475
6514.901454674566,0.0033374042233887758,0.002586079257745085
6514.902454446781,0.003359395010777373,0.0025734039753779747
6514.903454218997,0.0033870927291028015,0.002562991837666764
6514.904453991212,0.0034198510095989287,0.0025549186811347937
6514.9054537634265,0.0034569957676226564,0.0025492070945579135
6514.906453535642,0.0034978383813979675,0.00254582816006472
6514.907453307857,0.0035416887356358078,0.002544704279240671
6514.908453080073,0.0035878677187756963,0.002545712982101289
6514.909452852288,0.0036357186989716414,0.002548691629002594
6514.910452624503,0.003684617541373723,0.0025534429018554596
6514.911452396718,0.00373398088102899,0.0025597409400402887
6514.912452168934,0.0037832725815238237,0.002567337927768004
6514.913451941149,0.0038320085136476388,0.0025759709093494476
6514.9144517133645,0.0038797599249216705,0.0025853686121196716
6514.91545148558,0.003926155720875647,0.002595258085735317
6514.9164512577945,0.003970883956813424,0.002605370999213951
6514.91745103001,0.004013692781298569,0.002615449465377317
6514.918450802225,0.0040543910194171875,0.0026252512983171348
6514.919450574441,0.004092848550830314,0.0026345546566418237
6514.920450346656,0.004128996602707671,0.0026431620642063613
6514.921450118871,0.004162828001983711,0.0026509038109515425
6514.922449891086,0.00419439730394364,0.002657640720381249
6514.923449663302,0.004223820578803794,0.0026632662424917386
6514.924449435517,0.004251274567704995,0.002667707805110259
6514.9254492077325,0.004276994944811711,0.0026709273431330437
6514.926448979947,0.004301273488779837,0.002672920939251601
6514.9274487521625,0.004324453994227227,0.0026737175606659285
6514.928448524378,0.004346926733224446,0.0026733769465098482
6514.929448296593,0.004369121281541592,0.002671986752550493
6514.930448068809,0.004391497624679937,0.002669659069576598
6514.931447841024,0.0044145356454458416,0.0026665264114937304
6514.932447613239,0.004438723283524983,0.0026627372510728687
6514.933447385454,0.0044645437590351625,0.0026584511880689073
6514.93444715767,0.004492462245343184,0.002653833862903605
6514.935446929885,0.004522912319504434,0.0026490517607918283
6514.9364467021005,0.004556282491360539,0.002644267071693706
6514.937446474315,0.004592903151036325,0.002639632777261558
6514.9384462465305,0.004633034355998465,0.002635288126363693
6514.939446018746,0.004676854948248506,0.002631354632601331
6514.940445790961,0.004724453498511144,0.002627932682291168
6514.941445563177,0.004775821493628183,0.002625098793023105
6514.942445335392,0.004830849028729751,0.002622903526583724
6514.943445107607,0.0048893230753356545,0.002621370041940159
6514.944444879822,0.004950928212580726,0.002620493272379248
6514.945444652038,0.005015249574817729,0.002620239718406696
6514.946444424253,0.005081777736496399,0.002620547853770754
6514.9474441964685,0.005149915355083285,0.002621329143203046
6514.948443968683,0.005218985580403433,0.0026224696719626657
6514.9494437408985,0.005288242396749577,0.002623832381630638
6514.950443513114,0.005356883086910658,0.0026252598766096954
6514.951443285329,0.005424062879983907,0.0026265777150860643
6514.952443057545,0.005488911632392751,0.0026275980574587427
6514.953442829759,0.005550552166735829,0.0026281235394517606
6514.954442601975,0.005608119691341991,0.00262795126074768
6514.95544237419,0.005660781560639533,0.002626876809245151
6514.956442146406,0.00570775653609619,0.002624698262832888
6514.957441918621,0.005748332684993465,0.0026212201303944557
6514.9584416908365,0.005781883103962293,0.0026162572160871515
6514.959441463051,0.005807878780606143,0.002609638405299503
6514.960441235266,0.00582589813577187,0.002601210364655208
6514.961441007482,0.005835633113353532,0.002590841125041134
6514.962440779697,0.005836892017594778,0.002578423491592601
6514.963440551913,0.005829599519166525,0.0025638782092657865
6514.964440324127,0.0058137942991288325,0.0025471568031932203
6514.965440096343,0.005789624711814468,0.0025282439968475775
6514.966439868558,0.005757342713759443,0.002507159584032196
6514.967439640774,0.005717296196261347,0.0024839596055171126
6514.968439412989,0.005669919798813456,0.0024587366777480716
6514.9694391852045,0.005615724274589412,0.0024316193523107638
6514.970438957419,0.005555284535343488,0.002402770450614583
6514.971438729634,0.005489226618538413,0.0023723844084283362
6514.97243850185,0.0054182139616752445,0.002340683760248284
6514.973438274065,0.005342933486730454,0.002307914965867293
6514.974438046281,0.005264082049246445,0.0022743438097619028
6514.975437818495,0.005182353783693947,0.002240250590624283
6514.976437590711,0.005098428808212102,0.0022059252780299568
6514.977437362926,0.005012963666817086,0.0021716627580976046
6514.978437135142,0.004926583780824166,0.002137758241514137
6514.979436907357,0.004839878042109617,0.0021045028934785033
6514.980436679572,0.0047533955337098685,0.0020721797669197213
6514.981436451787,0.004667644248932696,0.002041060143331095
6514.982436224002,0.004583091603322389,0.0020114003784408993
6514.983435996218,0.004500166465345628,0.00198343931407532
6514.984435768433,0.004419262361778019,0.001957396271244685
6514.985435540649,0.004340741468385299,0.0019334695903586554
6514.986435312863,0.0042649389910325375,0.0019118356311664867
6514.987435085079,0.004192167554088771,0.001892648098444073
6514.988434857294,0.0041227212145266085,0.001876037546049608
6514.98943462951,0.004056878713142039,0.0018621109474771652
6514.990434401725,0.003994905589750258,0.0018509512867172337
6514.99143417394,0.003937054877010296,0.0018426171809131171
6514.992433946155,0.003883566280613346,0.0018371425758854736
6514.99343371837,0.0038346640102655373,0.0018345365636918897
6514.994433490586,0.0037905536399415367,0.0018347833693479533
6514.995433262801,0.003751418470211598,0.0018378425465593127
6514.996433035017,0.003717415847885252,0.0018436494141203694
6514.997432807231,0.003688673819779724,0.0018521157600344207
6514.998432579447,0.003665288397459002,0.0018631308380598463
6514.999432351662,0.003647321605960064,0.0018765626750164156
6515.0004321238775,0.0036348003848796205,0.0018922596944287136
6515.001431896093,0.003627716307278897,0.001910052647230604
6515.002431668308,0.0036260260034994946,0.0019297568262284276
6515.003431440523,0.0036296521570577385,0.0019511745242889037
6515.004431212738,0.003638484981316192,0.0019740976725955432
6515.005430984954,0.003652384143546086,0.0019983105671974484
6515.006430757169,0.003671181120406528,0.002023592569057978
6515.007430529385,0.0036946819227042147,0.0020497206569136395
6515.008430301599,0.003722670035946682,0.002076471730373477
6515.009430073815,0.00375490933117647,0.002103624598937264
6515.01042984603,0.003791146665280653,0.002130961636351242
6515.0114296182455,0.0038311139528111686,0.0021582701099902304
6515.012429390461,0.003874529638101762,0.002185343201289631
6515.013429162676,0.003921099657988366,0.0022119807237196277
6515.014428934891,0.003970518087405889,0.002237989539911028
6515.015428707106,0.004022467669012486,0.002263183693892066
6515.016428479322,0.004076620356437841,0.002287384305206258
6515.017428251537,0.004132637888572088,0.0023104193062160766
6515.018428023752,0.004190172311755426,0.0023321231324433195
6515.019427795967,0.004248866325594627,0.00235233649269987
6515.020427568183,0.004308353360265642,0.002370906346486381
6515.021427340398,0.004368257370873618,0.0023876861985898004
6515.0224271126135,0.004428192417512356,0.002402536784771636
6515.023426884829,0.004487762154276082,0.0024153271715093177
6515.024426657044,0.004546559350536393,0.0024259362391378346
6515.025426429259,0.004604165518862321,0.0024342544748115493
6515.026426201474,0.004660150684415646,0.0024401859705469224
6515.02742597369,0.004714073370144576,0.0024436504981098324
6515.028425745905,0.0047654809951405,0.002444585527517717
6515.02942551812,0.004813911014765103,0.0024429480849711164
6515.030425290335,0.00485889318711177,0.002438716394671897
6515.031425062551,0.004899953303799274,0.002431891279680017
6515.032424834766,0.004936618592979761,0.0024224972972992547
6515.0334246069815,0.004968424820926883,0.0024105835748755135
