Time,Filtered_EMG_Bicep,Filtered_EMG_Tricep
6384.8065124130335,0.001979445281664609,0.0016610140901292313
6384.807512184956,0.0020222776646358887,0.0017350462875650359
6384.808511956879,0.0020653854202963614,0.0018083489209364382
6384.809511728801,0.002108632037319442,0.0018804667142845862
6384.810511500724,0.002151899643102833,0.0019509652803312131
6384.811511272646,0.0021950916108191927,0.0020194377099989986
6384.81251104457,0.0022381343442635453,0.0020855105259579283
6384.813510816492,0.002280978138365782,0.0021488489688263226
6384.814510588415,0.0023235970844410103,0.002209161618148332
6384.815510360338,0.0023659880500756284,0.0022662043732632215
6384.81651013226,0.002408168799980007,0.0023197838278738465
6384.817509904184,0.0024501753404470587,0.0023697600546239467
6384.818509676106,0.002492058580842445,0.0024160487686710193
6384.819509448029,0.002533880420053207,0.0024586227686438367
6384.820509219951,0.0025757093846861664,0.0024975124788962177
6384.821508991874,0.002617615963987339,0.0025328053783340403
6384.8225087637975,0.002659667794272338,0.002564644134475667
6384.82350853572,0.0027019248395035523,0.002593223354050292
6384.824508307643,0.0027444347062923957,0.0026187849597763603
6384.825508079565,0.0027872282335249677,0.00264161227592252
6384.826507851488,0.002830315503610368,0.0026620229665619667
6384.827507623411,0.002873682417937694,0.0026803610349866395
6384.828507395334,0.0029172879542421525,0.0026969881463257774
6384.829507167256,0.0029610621799151227,0.002712274555002836
6384.830506939179,0.0030049050443137814,0.0027265899026076164
6384.831506711102,0.0030486859339769077,0.0027402941223726917
6384.832506483024,0.003092243961196706,0.0027537286688998773
6384.833506254948,0.0031353889663398387,0.002767208295302357
6384.83450602687,0.0031779032340138015,0.0027810136155707664
6384.835505798793,0.003219543935199706,0.0027953846966589416
6384.836505570715,0.003260046297263416,0.0028105158978794123
6384.837505342638,0.003299127469342677,0.0028265521025761914
6384.8385051145615,0.0033364910011360964,0.00284358638268473
6384.839504886484,0.0033718317977026488,0.0028616590324374775
6384.840504658407,0.0034048413644792576,0.0028807578307609525
6384.841504430329,0.003435213141778137,0.0029008193581213622
6384.842504202252,0.0034626477664631465,0.0029217312114350616
6384.843503974175,0.003486858170413327,0.0029433350289148996
6384.844503746098,0.0035075744787961285,0.0029654303301126644
6384.84550351802,0.0035245486722459,0.00298777924868919
6384.846503289943,0.0035375589436103887,0.003010112249835897
6384.847503061866,0.003546413659633053,0.00303213487978577
6384.848502833788,0.003550954859536405,0.0030535355181910352
6384.849502605712,0.0035510612735940397,0.0030739940213458964
6384.850502377634,0.0035466508873715033,0.0030931910642264023
6384.851502149557,0.0035376830771583316,0.0031108179123833556
6384.852501921479,0.0035241602960475772,0.0031265862928525606
6384.853501693402,0.003506129233867263,0.003140238007338937
6384.8545014653255,0.003483681351197284,0.003151553939593268
6384.855501237248,0.003456952701982753,0.0031603621274221994
6384.856501009171,0.0034261229730117885,0.0031665445976448623
6384.857500781093,0.003391413660078352,0.0031700427366821967
6384.858500553016,0.0033530853059078065,0.003170861102338449
6384.859500324939,0.003311433792206941,0.0031690697149730686
6384.860500096862,0.0032667857967738608,0.0031648049230904424
6384.861499868784,0.003219493636782442,0.0031582689079993832
6384.862499640707,0.003169929778352433,0.0031497278268495326
6384.86349941263,0.0031184812963101958,0.003139508546878179
6384.864499184552,0.003065544529500332,0.003127993915451286
6384.865498956476,0.00301152011392954,0.003115616537271414
6384.866498728398,0.0029568085061531155,0.003102851083819066
6384.867498500321,0.002901806040612893,0.0030902052260291463
6384.868498272243,0.00284690150058669,0.0030782093389704196
6384.869498044166,0.002792473138469959,0.003067405165397486
6384.8704978160895,0.002738886080071613,0.0030583336502792097
6384.871497588012,0.0026864900911308374,0.0030515221913947144
6384.872497359935,0.002635617738041929,0.003047471607526019
6384.873497131857,0.0025865829941870383,0.0030466431895810786
6384.87449690378,0.002539680314341571,0.0030494462261392145
6384.875496675703,0.002495184143812175,0.003056226355629858
6384.876496447626,0.002453348769146972,0.0030672550152298435
6384.877496219548,0.0024144083619040387,0.003082720183867001
6384.878495991471,0.002378577032598696,0.003102718589991
6384.879495763394,0.0023460487256674383,0.00312724956737826
6384.880495535316,0.0023169968457908566,0.0031562107567740983
6384.88149530724,0.00229157356733781,0.0031893958434229463
6384.882495079162,0.0022699088077598236,0.003226494500489139
6384.883494851085,0.002252108857271733,0.00326709468682123
6384.884494623007,0.0022382546848779446,0.00331068740699994
6384.88549439493,0.0022283999912370497,0.0033566739626942283
6384.8864941668535,0.002222569132050832,0.003404375618676581
6384.887493938776,0.002220755073212783,0.00345304550392579
6384.888493710699,0.0022229175557869707,0.00350188248503136
6384.889493482621,0.002228981649564787,0.003550046687350689
6384.890493254544,0.0022388368663136165,0.0035966763014355957
6384.891493026467,0.0022523369886996154,0.0036409053001935816
6384.89249279839,0.0022693007400130085,0.0036818816898124694
6384.893492570312,0.0022895133711935997,0.003718785892523837
6384.894492342235,0.002312729183944681,0.0037508487976137595
6384.895492114158,0.0023386749451003944,0.003777368944399164
6384.89649188608,0.0023670540754651055,0.0037977282579073493
6384.897491658004,0.0023975514294619312,0.0038114057578646013
6384.898491429926,0.002429838446761287,0.0038179886892142547
6384.899491201849,0.0024635784617535682,0.003817180582350511
6384.900490973771,0.002498431980360909,0.0038088058875830914
6384.901490745694,0.002534061755074581,0.003792811060015833
6384.9024905176175,0.0025701375106285803,0.0037692622309385246
6384.90349028954,0.0026063402055667997,0.0037383397959082757
6384.904490061463,0.0026423657551400644,0.003700330360754529
6384.905489833385,0.0026779281760134985,0.003655616560480275
6384.906489605308,0.002712762143409142,0.0036046653150466523
6384.907489377231,0.002746624985233395,0.00354801507569797
6384.908489149154,0.002779298170940133,0.00348626253681559
6384.909488921076,0.002810588367051343,0.0034200491899270976
6384.910488692999,0.002840328117102335,0.003350048036958154
6384.911488464922,0.0028683761755551483,0.0032769507692478545
6384.912488236845,0.002894617509614603,0.0032014557141125943
6384.913488008768,0.002918962995048076,0.003124256805143367
6384.91448778069,0.002941348863208167,0.003046033740236311
6384.915487552613,0.0029617359835541505,0.002967443377113926
6384.916487324535,0.002980109071102498,0.0028891123012214997
6384.917487096458,0.002996475886784571,0.00281163040379403
6384.9184868683815,0.0030108664559536685,0.0027355452611131778
6384.919486640304,0.003023332279022659,0.0026613571414533734
6384.920486412227,0.0030339454665987303,0.002589514578462836
6384.921486184149,0.0030427977113367103,0.0025204105869720476
6384.922485956072,0.0030499990061733768,0.0024543796970438454
6384.923485727995,0.0030556760243690144,0.002391696015220031
6384.924485499918,0.0030599700901105995,0.002332572498054154
6384.92548527184,0.0030630346965931543,0.0022771615632630146
6384.926485043763,0.003065032578713481,0.0022255570846674323
6384.927484815686,0.0030661324136695245,0.0021777977338265724
6384.928484587609,0.003066505278553705,0.0021338715556028006
6384.929484359532,0.0030663210191464113,0.0020937215986262885
6384.930484131454,0.003065744693891182,0.0020572523628536645
6384.931483903377,0.0030649332757358943,0.0020243367799591587
6384.932483675299,0.003064032809795182,0.0019948234200320362
6384.933483447222,0.003063176204218808,0.0019685436308130755
6384.9344832191455,0.0030624817670764667,0.0019453183605106098
6384.935482991068,0.003062052507644915,0.001924964468064271
6384.936482762991,0.0030619761140540267,0.0019073003605673561
6384.937482534913,0.0030623254274191785,0.0018921508245057117
6384.938482306836,0.0030631591854443354,0.001879350972121718
6384.939482078759,0.003064522816568001,0.0018687493202036547
6384.940481850682,0.00306644911809349,0.001860210116516977
6384.941481622604,0.0030689587290046714,0.0018536150767789446
6384.942481394527,0.0030720603871032164,0.001848864683169475
6384.94348116645,0.0030757510224263787,0.0018458791528635841
6384.944480938373,0.0030800157806027844,0.0018445991376164082
6384.945480710296,0.0030848280928988427,0.0018449861709127226
6384.946480482218,0.003090149914183353,0.0018470228441703612
6384.947480254141,0.0030959322362018858,0.001850712679851023
6384.948480026063,0.0031021159491262337,0.001856079677155324
6384.949479797986,0.0031086330660878426,0.0018631675156806314
6384.9504795699095,0.0031154082541107603,0.0018720383965484136
6384.951479341832,0.0031223605566482347,0.0018827714836620996
6384.952479113755,0.003129405167355382,0.0018954608981238197
6384.953478885677,0.00313645511898498,0.0019102132267760756
6384.9544786576,0.0031434227691529877,0.001927144524833389
6384.955478429523,0.00315022098495885,0.00194637681014247
6384.956478201446,0.003156763951177251,0.0019680340592687943
6384.957477973368,0.0031629675576914933,0.001992237732087816
6384.958477745291,0.0031687493655636616,0.002019101886770738
6384.959477517214,0.0031740282061516467,0.0020487280059716386
6384.960477289137,0.0031787235222149476,0.002081199715858729
6384.96147706106,0.0031827545914343155,0.002116577609270708
6384.962476832982,0.00318603976036162,0.002154894376193592
6384.963476604905,0.00318849576398492,0.0021961504236582673
6384.964476376827,0.00319003714536139,0.0022403101546002255
6384.96547614875,0.0031905757563643624,0.002287299065315802
6384.9664759206735,0.0031900203230593983,0.002337001790604392
6384.967475692596,0.0031882760787828703,0.0023892611595021035
6384.968475464519,0.003185244486103447,0.002443878233866889
6384.969475236441,0.003180823088486291,0.0025006132239436298
6384.970475008364,0.003174905565802801,0.002559187147684908
6384.971474780287,0.0031673821133878007,0.002619284126969348
6384.97247455221,0.0031581403031922693,0.002680554256983874
6384.973474324132,0.003147066590161602,0.0027426170115036467
6384.974474096055,0.0031340485802953625,0.002805065158600503
6384.975473867978,0.003118978094522998,0.002867469170393723
6384.976473639901,0.0031017549842227063,0.0029293821064587207
6384.977473411824,0.003082291606192932,0.002990344918100528
6384.978473183746,0.0030605178384634406,0.003049892071966307
6384.979472955669,0.003036386484763626,0.003107557360438893
6384.980472727591,0.0030098788597394343,0.0031628797761976486
6384.981472499515,0.0029810102853796297,0.0032154093673154183
6384.9824722714375,0.002949835190020019,0.0032647130179048168
6384.98347204336,0.0029164514993587445,0.0033103800896396147
6384.984471815283,0.002881004045386658,0.0033520278206504305
6384.985471587205,0.0028436867877581584,0.0033893063418462986
6384.986471359128,0.0028047437231212523,0.0034219031662963777
6384.987471131051,0.002764468428017345,0.003449547049587177
6384.988470902974,0.002723202235507624,0.0034720111934104943
6384.989470674896,0.0026813310920615363,0.003489115826627519
6384.990470446819,0.0026392811768528594,0.003500730210839085
6384.991470218742,0.0025975133819167054,0.003506774092189754
6384.992469990665,0.0025565167535520615,0.00350721860084749
6384.993469762588,0.002516801002503926,0.003502086601948386
6384.99446953451,0.0024788882166409602,0.0034914525024263617
6384.995469306433,0.0024433039478802807,0.003475441496334426
6384.996469078355,0.002410567877558512,0.003454228199846841
6384.997468850279,0.0023811842789579363,0.003428034605735119
6384.9984686222015,0.0023556324833138515,0.003397127278529956
6384.999468394124,0.002334357514901396,0.0033618137193751874
6385.000468166047,0.002317761014866302,0.003322437868580204
6385.001467937969,0.002306192560979241,0.003279374788056029
6385.002467709892,0.0022999415260949213,0.0032330246596635206
6385.003467481815,0.002299229676655659,0.0031838063304398417
6385.004467253738,0.0023042047582005447,0.0031321507104169937
6385.00546702566,0.0023149353278383127,0.003078494354618165
6385.006466797583,0.0023314070674549043,0.0030232735237085864
6385.007466569506,0.0023535207479908034,0.002966918932999125
6385.008466341429,0.0023810919296560302,0.0029098512953682943
6385.009466113352,0.0024138523956573617,0.0028524776667061442
6385.010465885274,0.002451453238749271,0.0027951885342945254
6385.011465657197,0.002493469457354598,0.0027383555577604837
6385.012465429119,0.002539405885651196,0.002682329869978224
6385.013465201043,0.002588704289642379,0.002627440855091773
6385.0144649729655,0.0026407514908113124,0.002573995333374518
6385.015464744888,0.002694888396916458,0.002522277100689169
6385.016464516811,0.002750419812575166,0.002472546796038737
6385.017464288733,0.0028066248849044537,0.0024250420897489566
6385.018464060656,0.002862768033138387,0.002379978174528363
6385.019463832579,0.0029181102240060943,0.0023375484975891336
6385.020463604502,0.0029719204701197832,0.0022979256176833157
6385.021463376424,0.0030234874190394937,0.002261262040784179
6385.022463148347,0.003072130858629482,0.0022276909031456286
6385.02346292027,0.0031172129092020624,0.002197326422396395
6385.024462692193,0.003158148630618781,0.00217026409527398
6385.025462464116,0.0031944157581741874,0.0021465806594032867
6385.026462236038,0.0032255632953162227,0.002126333856604414
6385.027462007961,0.003251218726055272,0.0021095620512470038
6385.028461779883,0.0032710936575937096,0.0020962837748896164
6385.029461551807,0.0032849877643103087,0.0020864972773718036
6385.0304613237295,0.0032927909854945543,0.002080180150328515
6385.031461095652,0.0032944840255231126,0.0020772890537245864
6385.032460867575,0.003290137280842458,0.002077759546291455
6385.033460639497,0.0032799083397757156,0.002081506027007556
6385.03446041142,0.003264038181416296,0.002088421834531126
6385.035460183343,0.0032428461808014313,0.002098379587773734
6385.036459955266,0.003216724031317951,0.0021112318534566685
6385.037459727188,0.0031861287142000184,0.0021268121994691236
6385.038459499111,0.003151574662998985,0.0021449366596430273
6385.039459271034,0.0031136252740229286,0.00216540561749376
6385.040459042957,0.003072883896101442,0.0021880061205542204
6385.04145881488,0.0030299844059702577,0.0022125146478912095
6385.042458586802,0.0029855814586905163,0.0022387003444259584
6385.043458358725,0.0029403405062937574,0.0022663286948961655
6385.044458130647,0.0028949277030416018,0.00229516555158286
6385.045457902571,0.0028499998546100244,0.002324981378869387
6385.0464576744935,0.0028061945971411427,0.0023555555513878417
6385.047457446416,0.0027641209846841915,0.0023866805427755684
6385.048457218339,0.0027243506260092067,0.0024181658619493313
6385.049456990261,0.002687409476083684,0.0024498416210368126
6385.050456762185,0.002653770369061906,0.002481561639464139
6385.051456534107,0.0026238463691591234,0.0025132060005108015
6385.05245630603,0.0025979850097553286,0.0025446829944255475
6385.053456077952,0.002576463496047467,0.002575930411723403
6385.054455849875,0.0025594849555453172,0.002606916172485144
6385.055455621798,0.002547175816801918,0.0026376382737741655
6385.056455393721,0.0025395843808951194,0.0026681240178120847
6385.057455165644,0.0025366806407599004,0.002698428473903684
6385.058454937566,0.0025383574059323383,0.002728632136388106
6385.059454709489,0.0025444327847151606,0.0027588377552429195
6385.060454481411,0.002554654041957442,0.0027891663233688925
6385.061454253335,0.0025687027932967325,0.0028197522183006692
6385.0624540252575,0.0025862014379915825,0.0028507375407427556
6385.06345379718,0.0026067206877867415,0.0028822657685964926
6385.064453569103,0.0026297880171748654,0.00291447492478624
6385.065453341025,0.002654896833823983,0.0029474905120818375
6385.066453112949,0.0026815161535649165,0.0029814184901014967
6385.067452884871,0.0027091005813604193,0.0030163385676435697
6385.068452656794,0.0027371004471141965,0.003052298076339652
6385.069452428716,0.002764971986344783,0.003089306695318494
6385.070452200639,0.002792187457930176,0.0031273323016149943
6385.071451972562,0.0028182450650213915,0.00316629819554788
6385.072451744485,0.0028426785201793553,0.0032060818803654563
6385.073451516408,0.002865066077382237,0.0032465154861438805
6385.07445128833,0.0028850388345327688,0.0032873878513165725
6385.075451060253,0.002902288098765131,0.0033284482158931596
6385.076450832175,0.0029165716156355948,0.0033694114254269186
6385.077450604099,0.0029277184903591822,0.0034099644897464094
6385.0784503760215,0.0029356326667308217,0.003449774285789095
6385.079450147944,0.0029402948683761206,0.0034884961297737744
6385.080449919867,0.0029417629333516222,0.0035257828651440943
6385.081449691789,0.0029401704799715484,0.0035612940418797115
6385.082449463713,0.002935723845228146,0.0035947047388076637
6385.083449235635,0.0029286972654479332,0.003625713621171347
6385.084449007558,0.002919426334284947,0.0036540499116912042
6385.08544877948,0.0029082998587043854,0.0036794790546833427
6385.086448551403,0.0028957503072902283,0.003701806954878789
6385.087448323326,0.0028822430915301854,0.003720882760609856
6385.088448095249,0.0028682649550978764,0.003736600208109243
6385.089447867172,0.002854311790035335,0.003748897552005727
6385.090447639094,0.0028408762455198614,0.0037577561321269076
6385.091447411017,0.0028284355148462926,0.0037631977119708983
6385.092447182939,0.002817439663449505,0.0037652808330391144
6385.093446954863,0.0028083008124770033,0.0037640964817524706
6385.0944467267855,0.0028013834501010803,0.0037597633245585304
6385.095446498708,0.002796996117659074,0.0037524226652389885
6385.096446270631,0.0027953846890759137,0.0037422331885420966
6385.097446042553,0.0027967274055125018,0.003729365535213545
6385.098445814477,0.002801131746423219,0.0037139968071095743
6385.099445586399,0.0028086331362414388,0.003696305176341315
6385.100445358322,0.002819195417952578,0.0036764648160583896
6385.101445130244,0.0028327129727328073,0.0036546413663926373
6385.102444902167,0.0028490143264940115,0.003630988115805932
6385.10344467409,0.0028678670577872915,0.0036056430407623717
6385.104444446013,0.002888983807558666,0.003578726814908672
6385.105444217936,0.002912029193325128,0.003550341867978477
6385.106443989858,0.002936627447867766,0.003520572533008113
6385.107443761781,0.0029623706224596474,0.0034894862563208547
6385.108443533703,0.00298882719852467,0.0034571357637793987
6385.109443305627,0.0030155509347336447,0.003423562009798961
6385.1104430775495,0.003042089756675649,0.003388797709288321
6385.111442849472,0.003067994498850648,0.003352871262936372
6385.112442621395,0.00309282734054273,0.0033158109096496774
6385.113442393317,0.0031161698177618845,0.003277648953112166
6385.114442165241,0.0031376303184361574,0.003238425897635736
6385.115441937163,0.0031568509770980202,0.003198194300703481
6385.116441709086,0.0031735138964220032,0.0031570221372119434
6385.117441481008,0.0031873466384019318,0.0031149954887834713
6385.118441252931,0.0031981269280848762,0.0030722204054940768
6385.119441024854,0.0032056864927771226,0.0030288238281199606
6385.120440796777,0.003209913944110262,0.0029849535194609025
6385.1214405687,0.0032107566164593154,0.002940777035022678
6385.122440340622,0.0032082212919553326,0.0028964798382790855
6385.123440112545,0.0032023737630869544,0.002852262704152173
6385.124439884467,0.0031933372233713102,0.0028083385599452903
6385.125439656391,0.0031812895359116336,0.002764928916566959
6385.1264394283135,0.0031664594805890585,0.0027222600612818925
6385.127439200236,0.003149122102700316,0.0026805592010510698
6385.128438972159,0.0031295932904473614,0.002640050740076587
6385.129438744081,0.0031082237172985736,0.0026009528403532173
6385.130438516005,0.0030853923042739695,0.0025634743568134183
6385.131438287927,0.003061499375549099,0.002527812170945031
6385.13243805985,0.003036959681458946,0.002494148889780452
6385.133437831772,0.003012195440192932,0.002462650856097522
6385.134437603695,0.002987629515567807,0.002433466431963709
6385.1354373756185,0.002963678820415563,0.0024067245391410125
6385.136437147541,0.0029407480171541544,0.0023825334361927816
6385.137436919464,0.002919223565516601,0.0023609796886872713
6385.138436691386,0.0028994681275224836,0.0023421272715873137
6385.139436463309,0.002881815288871414,0.0023260167488318487
6385.140436235231,0.0028665645237647475,0.0023126645077782837
6385.141436007155,0.0028539763432507445,0.002302062077452003
6385.1424357790775,0.0028442676275656723,0.0022941756073670324
6385.143435551,0.002837607228806614,0.0022889456090340998
6385.144435322923,0.0028341120103463784,0.002286287072248274
6385.145435094845,0.002833843539859028,0.002286090080107041
6385.146434866769,0.002836805667751282,0.002288221051080937
6385.147434638691,0.002842943209365114,0.0022925247040278553
6385.148434410614,0.0028521419149323316,0.0022988267665678274
6385.149434182536,0.0028642298609191197,0.0023069373588019376
6385.150433954459,0.002878980337799169,0.002316654920412011
6385.151433726383,0.0028961162494384397,0.0023277705264642214
6385.152433498305,0.0029153159753306335,0.002340072449611795
6385.153433270228,0.0029362205684734144,0.0023533508548060256
6385.15443304215,0.002958442067407725,0.0023674025305084096
6385.155432814073,0.002981572610035645,0.002382035544485447
6385.156432585995,0.003005193978218886,0.0023970736663985284
6385.157432357919,0.0030288871944342283,0.002412360363326736
6385.1584321298415,0.003052241832905769,0.002427762191885373
6385.159431901764,0.003074864774460388,0.002443171482788494
6385.160431673687,0.003096388193719418,0.002458508293796943
6385.161431445609,0.003116476600593814,0.0024737216478961294
6385.162431217533,0.003134832777161093,0.0024887900712874176
6385.163430989455,0.003151202486562495,0.00250372143217699
6385.164430761378,0.0031653779028585913,0.002518552081583786
6385.1654305333,0.0031771998059482477,0.0025333453026652603
6385.166430305223,0.0031865586623084402,0.0025481890634369165
6385.1674300771465,0.0031933947373359176,0.0025631930445953804
6385.168429849069,0.003197697363516453,0.002578484911036815
6385.169429620992,0.0031995034604636987,0.002594205832324883
6385.170429392914,0.0031988954078266485,0.002610505326733219
6385.171429164837,0.0031959984095633652,0.00262753558662698
6385.172428936759,0.003190977514280934,0.0026454455188032913
6385.173428708683,0.0031840344276824967,0.0026643747832669367
6385.1744284806055,0.003175404167746666,0.002684448127371115
6385.175428252528,0.003165351508436171,0.002705770285709224
6385.176428024451,0.003154167081143633,0.002728421652023607
6385.177427796373,0.003142162991013725,0.002752454842785489
6385.178427568297,0.0031296678684541957,0.002777892190998017
6385.179427340219,0.0031170213862556626,0.002804724159861236
6385.180427112142,0.003104568371303613,0.0028329086534197353
6385.181426884064,0.003092652682393097,0.002862371198237032
6385.182426655987,0.0030816110179123562,0.0028930059407375783
6385.183426427911,0.003071766794752523,0.002924677343664133
6385.184426199833,0.003063424222767097,0.0029572224057536727
6385.185425971756,0.0030568626871213447,0.002990453207211247
6385.186425743678,0.0030523315457066666,0.0030241596081891074
6385.187425515601,0.003050045453160363,0.0030581119896349275
6385.188425287524,0.0030501803284015056,0.003092064010983892
6385.189425059447,0.003052870074334703,0.003125755439162434
6385.1904248313695,0.003058204128090021,0.0031589151462326024
6385.191424603292,0.0030662258776540984,0.0031912643687863305
6385.192424375215,0.003076931954309576,0.0032225202880235377
6385.193424147137,0.0030902724189102245,0.003252399948356735
6385.194423919061,0.0031061518876892283,0.003280624493244444
6385.195423690983,0.0031244316531835333,0.0033069236531814558
6385.196423462906,0.0031449328231952746,0.0033310403617786534
6385.197423234828,0.003167440427769459,0.003352735306319403
6385.198423006751,0.00319170835498793,0.0033717911746191692
6385.1994227786745,0.0032174649060883785,0.0033880163816745125
6385.200422550597,0.0032444187399925353,0.0034012481410936515
6385.20142232252,0.0032722650107350685,0.0034113548365507706
6385.202422094442,0.003300691557915386,0.003418237718097193
6385.203421866365,0.003329385051330521,0.0034218320115671536
6385.204421638288,0.003358036999053349,0.0034221075889278962
6385.205421410211,0.0033863495103328284,0.0034190693641190403
6385.206421182133,0.0034140406826299627,0.003412757523927136
6385.207420954056,0.003440849481246229,0.003403247607152975
6385.208420725979,0.003466540008144764,0.0033906503693422836
6385.209420497901,0.0034909050923345813,0.003375111346412833
6385.210420269825,0.003513769149221957,0.003356810046867095
6385.211420041747,0.003534990246339468,0.003335958736774385
6385.21241981367,0.003554461298022332,0.003312800817874713
6385.213419585592,0.003572110314870559,0.0032876088173962236
6385.214419357515,0.003587899668321117,0.003260681997792025
6385.215419129439,0.003601824397568245,0.003232343572766489
6385.216418901361,0.003613909670707867,0.003202937508445869
6385.217418673284,0.003624207582993399,0.0031728249011420363
6385.218418445206,0.0036327935002412035,0.0031423799492841784
6385.219418217129,0.00363976212618609,0.0031119855718980075
6385.220417989052,0.003645223408677302,0.0030820287581215674
6385.221417760975,0.003649298329752904,0.0030528957478506585
6385.222417532897,0.0036521145769260184,0.0030249671472299803
6385.22341730482,0.0036538020964371927,0.002998613089542291
6385.224417076743,0.003654488590709605,0.0029741885629165406
6385.225416848665,0.003654295101300491,0.002952029032317182
6385.226416620589,0.003653331857529054,0.0029324464839768465
6385.227416392511,0.003651694550448222,0.002915726016939628
6385.228416164434,0.0036494611382556085,0.002902123087737258
6385.229415936356,0.0036466892417511706,0.0028918614648313187
6385.230415708279,0.003643414172853904,0.0028851318690021215
6385.2314154802025,0.003639647652026999,0.002882091188994874
6385.232415252125,0.0036353772789825952,0.0028828621001774357
6385.233415024048,0.0036305667947437756,0.002887532888146305
6385.23441479597,0.0036251571160602703,0.002896157286337089
6385.235414567893,0.0036190680670247465,0.002908754187292976
6385.236414339816,0.003612200705992805,0.002925307184314775
6385.237414111739,0.003604440153285265,0.002945764004560933
6385.238413883661,0.0035956588478671826,0.0029700359572849217
6385.239413655584,0.0035857201765883318,0.0029979975375252323
6385.240413427507,0.0035744824243423854,0.0030294863241381205
6385.241413199429,0.0035618030008860778,0.0030643033048965993
6385.242412971353,0.0035475429147676157,0.00310221374431376
6385.243412743275,0.003531571475300022,0.0031429486793231745
6385.244412515198,0.003513771196992654,0.003186207085891953
6385.24541228712,0.003494042849805841,0.0032316587015090046
6385.246412059043,0.003472310539135634,0.00327894741535237
6385.247411830967,0.003448526623841099,0.003327695073390525
6385.248411602889,0.0034226762232384394,0.003377505518137877
6385.249411374812,0.0033947810497341724,0.0034279686958670085
6385.250411146734,0.0033649023193827064,0.0034786647026259585
6385.251410918657,0.003333142515863835,0.003529167691801073
6385.25241069058,0.0032996458256327964,0.003579049616741673
6385.253410462503,0.0032645971472678864,0.0036278838131157893
6385.254410234425,0.003228219692389331,0.003675248429240008
6385.255410006348,0.0031907712953518665,0.0037207297004718505
6385.256409778271,0.0031525396144137844,0.0037639250557914565
6385.257409550193,0.0031138364528786513,0.003804446057212465
6385.258409322117,0.0030749914598539184,0.0038419212103642736
6385.259409094039,0.003036345465693333,0.0038759987313942536
6385.260408865962,0.0029982436597257595,0.003906349376798047
6385.261408637884,0.0029610287592067735,0.003932669412775258
6385.262408409807,0.002925034289534662,0.003954683733350061
6385.2634081817305,0.0028905781080026094,0.0039721490796308006
6385.264407953653,0.0028579563324546346,0.003984857297795808
6385.265407725576,0.002827437849433525,0.003992638582914783
6385.266407497498,0.00279925956356826,0.003995364647640066
6385.267407269421,0.002773622523326023,0.00399295170847226
6385.268407041344,0.0027506890284345023,0.003985363112400629
6385.269406813267,0.0027305807891582394,0.003972611368136142
6385.270406585189,0.002713378162976078,0.00395475933438203
6385.271406357112,0.00269912044556564,0.00393192036974084
6385.272406129035,0.002687807151444816,0.0039042573504027914
6385.273405900958,0.0026794001872055963,0.0038719805783165185
6385.274405672881,0.0026738267901277282,0.00383534470734813
6385.275405444803,0.002670983076581244,0.003794644891192593
6385.276405216726,0.0026707380249543673,0.0037502123813906805
6385.277404988648,0.0026729377105038396,0.003702409761273369
6385.278404760571,0.002677409618179462,0.0036516259170955353
6385.279404532495,0.0026839668902624747,0.0035982707786255536
6385.280404304417,0.0026924124128883814,0.0035427698498650554
6385.28140407634,0.0027025426934941072,0.003485558592356541
6385.282403848262,0.0027141515246838447,0.003427076782536162
6385.283403620185,0.002727033468849042,0.0033677630049331756
6385.284403392108,0.0027409872182433018,0.0033080494515863625
6385.285403164031,0.0027558188701054366,0.003248357185882484
6385.286402935953,0.002771345105083692,0.0031890920133743933
6385.287402707876,0.002787396184113564,0.003130641085131967
6385.288402479799,0.002803818610714617,0.003073370325604469
6385.289402251722,0.0028204772768248457,0.0030176227163695424
6385.290402023645,0.0028372569369731,0.0029637173948888324
6385.291401795567,0.002854062917043147,0.002911949474296023
6385.29240156749,0.002870821026624009,0.0028625904699662278
6385.293401339412,0.0028874766947056202,0.002815889213643669
6385.294401111335,0.00290399339151948,0.0027720731173699353
6385.2954008832585,0.002920350434466138,0.0027313496090005593
6385.296400655181,0.0029365402928685142,0.0026939075245941925
6385.297400427104,0.002952565499485313,0.0026599182450740603
6385.298400199026,0.002968435261082746,0.0026295364073703714
6385.299399970949,0.0029841618624614325,0.0026029000757626284
6385.300399742872,0.0029997569899960527,0.0025801303108883298
6385.301399514795,0.0030152281428545507,0.0025613301265594306
6385.302399286717,0.0030305753185576306,0.00254658287884736
6385.30339905864,0.0030457881391334567,0.002535950181083277
6385.304398830563,0.003060843539420707,0.0025294694803428192
6385.305398602486,0.0030757040934543236,0.002527151462308092
6385.306398374409,0.003090317018258006,0.002528977462026459
6385.307398146331,0.0031046138600289404,0.002534897042868697
6385.308397918254,0.0031185108259932652,0.0025448258717647282
6385.309397690176,0.0031319096819012156,0.0025586439784412236
6385.310397462099,0.003144699107916064,0.00257619445307879
6385.311397234023,0.003156756399449991,0.002597282617328662
6385.312397005945,0.003167949405125895,0.002621675693970412
6385.313396777868,0.003178138614734517,0.002649102998886623
6385.31439654979,0.0031871793592449195,0.0026792566956143535
6385.315396321713,0.0031949241507840385,0.0027117931897253206
6385.316396093636,0.0032012252334005535,0.0027463352751809925
6385.317395865559,0.0032059374089623573,0.0027824751471781516
6385.318395637481,0.003208921156307001,0.002819778352655861
6385.319395409404,0.0032100460025241413,0.0028577886716737648
6385.320395181327,0.0032091940523825213,0.0028960338375624037
6385.32139495325,0.0032062635452137305,0.0029340319417916795
6385.322394725173,0.00320117229770712,0.002971298349502644
6385.323394497095,0.003193860912649643,0.0030073529630855523
6385.324394269018,0.0031842956780320014,0.003041727678491697
6385.32539404094,0.0031724711220760538,0.0030739738567927295
6385.326393812863,0.0031584122010566667,0.0031036695912311243
6385.3273935847865,0.0031421760676804914,0.003130426517348087
6385.328393356709,0.0031238533140494173,0.0031538959178536107
6385.329393128632,0.0031035685472147715,0.0031737739265010226
6385.330392900554,0.0030814801796421954,0.0031898057229720533
6385.331392672477,0.003057779401558658,0.003201788702388089
6385.3323924444,0.00303268839826497,0.0032095746748657546
6385.333392216323,0.0030064579297350404,0.003213071194749155
6385.334391988245,0.0029793643826633207,0.00321224212796109
6385.335391760168,0.0029517063555250843,0.003207107529377073
6385.336391532091,0.0029238007908660144,0.0031977428293203823
6385.337391304014,0.002895978664476419,0.0031842772545245825
6385.338391075937,0.0028685802711551195,0.0031668913751933913
6385.339390847859,0.00284195017229348,0.0031458136967386194
6385.340390619782,0.0028164318732721793,0.003121316286207639
6385.341390391704,0.002792362299047618,0.0030937094946441542
6385.342390163628,0.002770066162172377,0.0030633358747231866
6385.343389935551,0.002749850369041131,0.0030305634060891614
6385.344389707473,0.00273199865439159,0.002995778156616494
6385.345389479396,0.0027167666333101676,0.0029593765361103285
6385.346389251318,0.00270437740509824,0.002921757329995956
6385.347389023241,0.0026950177586924544,0.0028833137271348807
6385.348388795164,0.0026888349548455774,0.002844425577889145
6385.349388567087,0.0026859340289166382,0.0028054521321287194
6385.350388339009,0.002686375575840803,0.002766725506102374
6385.351388110932,0.0026901740247538553,0.002728545109951615
6385.352387882855,0.00269729645844027,0.0026911732337357866
6385.353387654778,0.00270766206350068,0.0026548319428912003
6385.354387426701,0.002721142299486504,0.0026197013851973947
6385.355387198623,0.002737561849725092,0.0025859195668606907
6385.356386970546,0.0027567003778148137,0.0025535836057998603
6385.357386742468,0.002778295077120241,0.002522752402070572
6385.358386514392,0.002802043968990674,0.002493450578654915
6385.3593862863145,0.002827609875988433,0.002465673455291299
6385.360386058237,0.0028546249740615476,0.0024393927457631256
6385.36138583016,0.0028826958237194653,0.002414562639888735
6385.362385602082,0.0029114088002740175,0.0023911259603589495
6385.363385374005,0.002940335879327485,0.002369020160718263
6385.364385145928,0.0029690407678672386,0.00234818302164898
6385.365384917851,0.002997085383367439,0.002328557976210325
6385.366384689773,0.0030240366595340345,0.0023100990326527225
6385.367384461696,0.003049473601678899,0.002292775263497857
6385.368384233619,0.003072994455417507,0.0022765748091761375
6385.369384005542,0.003094223821172689,0.00226150833383359
6385.370383777465,0.0031128195408514888,0.0022476118835915372
6385.371383549387,0.003128479166351908,0.002234949114786208
6385.37238332131,0.0031409457786724503,0.0022236128571644746
6385.373383093232,0.003150012901573752,0.002213725958880474
6385.374382865156,0.003155528294774334,0.0022054413502810982
6385.375382637079,0.0031573965168654387,0.0021989412675149462
6385.376382409001,0.00315558026569169,0.0021944355781499556
6385.377382180924,0.003150100584432292,0.0021921591475396202
6385.378381952846,0.0031410360550887077,0.0021923682023218243
6385.379381724769,0.003128521103641344,0.0021953356998893636
6385.380381496692,0.0031127435229500507,0.0022013457739940012
6385.381381268615,0.0030939412875904573,0.0022106873604973137
6385.382381040537,0.0030723987120407155,0.0022236471087909862
6385.38338081246,0.0030484420080868994,0.002240501679995192
6385.384380584383,0.003022434314063616,0.002261509551286293
6385.385380356306,0.0029947702726430556,0.002286902497294622
6385.386380128229,0.0029658702280624975,0.002316876991624676
6385.387379900151,0.002936174118305573,0.002351585830529754
6385.388379672074,0.002906135153200679,0.0023911302927665233
6385.389379443996,0.0028762133727892264,0.0024355531114524614
6385.39037921592,0.0028468691618099033,0.0024848324767561916
6385.3913789878425,0.0028185567743270567,0.002538877247630421
6385.392378759765,0.0027917179163645246,0.002597523533956473
6385.393378531688,0.0027667754422656577,0.0026605327921309487
6385.39437830361,0.0027441272309773096,0.0027275915273239537
6385.395378075533,0.0027241403175085714,0.002798312617357638
6385.396377847456,0.00270714537189387,0.0028722382031369717
6385.397377619379,0.002693431651788347,0.0029488440609836903
6385.398377391301,0.002683242588753737,0.0030275453814771628
6385.399377163224,0.0026767721683666193,0.0031077038976516434
6385.400376935147,0.002674162218590011,0.003188636300200609
6385.40137670707,0.0026755006514723335,0.003269623835106071
6385.402376478993,0.002680820636957612,0.003349922909419226
6385.403376250915,0.0026901006346734236,0.003428776459729262
6385.404376022838,0.002703265173302451,0.0035054257939988913
6385.40537579476,0.0027201862576862264,0.0035791226107990994
6385.406375566684,0.002740685311580153,0.0036491409120718234
6385.407375338607,0.0027645356201213213,0.0037147885306321794
6385.408375110529,0.0027914652910397317,0.003775417983624583
6385.409374882452,0.0028211607830549044,0.003830436349116809
6385.410374654374,0.002853271049773289,0.003879313865478404
6385.411374426298,0.002887412320407281,0.003921590993152599
6385.41237419822,0.0029231734880021,0.003956883763862882
6385.413373970143,0.0029601220177916535,0.003984887357176993
6385.414373742065,0.002997810245810806,0.004005377951959938
6385.415373513988,0.003035781916914251,0.004018212964961768
6385.416373285911,0.003073578800818942,0.004023329811025914
6385.417373057834,0.0031107472193741773,0.004020743344259634
6385.418372829757,0.0031468443270006464,0.004010542206418008
6385.419372601679,0.0031814440186527177,0.003992884395281816
6385.420372373602,0.003214142388938024,0.0039679924058494765
6385.421372145524,0.003244562709841763,0.003936148256497217
6385.422371917448,0.0032723599147617306,0.0038976886248402475
6385.4233716893705,0.0032972245719742736,0.0038530002398974132
6385.424371461293,0.003318886310266621,0.003802515621763172
6385.425371233216,0.0033371166364921366,0.0037467091931149186
6385.426371005138,0.003351731076385617,0.003686093679105815
6385.427370777062,0.0033625905889574283,0.003621216583911273
6385.428370548984,0.003369602246389005,0.0035526564445114116
6385.429370320907,0.0033727192146079496,0.003481018567781551
6385.430370092829,0.0033719400944608423,0.0034069300579622624
6385.431369864752,0.003367307682586675,0.0033310340910854422
6385.432369636675,0.0033589071910468792,0.0032539835325291274
6385.433369408598,0.0033468639430141484,0.0031764340858466285
6385.434369180521,0.0033313405649003348,0.003099037192273249
6385.435368952443,0.003312533742014829,0.0030224328825473865
6385.436368724366,0.0032906706781688855,0.0029472427511363372
6385.437368496288,0.003266005451608383,0.00287406320613428
6385.438368268212,0.003238815456532929,0.002803459137985064
6385.439368040135,0.0032093980647048457,0.0027359581256960535
6385.440367812057,0.0031780675581820363,0.0026720452650991263
6385.44136758398,0.003145152300915147,0.002612158677215513
6385.442367355902,0.00311099206453237,0.0025566857321935687
6385.443367127826,0.0030759354192869846,0.0025059599949610397
6385.444366899748,0.0030403371377880775,0.002460258877129774
6385.445366671671,0.003004555610456901,0.0024198019888834227
6385.446366443593,0.0029689503012914863,0.0023847502166163704
6385.447366215516,0.002933879253534871,0.0023552055731127317
6385.448365987439,0.0028996965979883414,0.0023312118566617725
6385.449365759362,0.0028667499682193515,0.002312756121140881
6385.450365531285,0.0028353777241680203,0.0022997709167641087
6385.451365303207,0.0028059059249931936,0.0022921372203607076
6385.45236507513,0.002778645046937114,0.0022896879419826233
6385.453364847052,0.002753886494381224,0.002292211882072908
6385.454364618976,0.0027318989939043915,0.00229945802802667
6385.4553643908985,0.0027129249871733143,0.002311140111890262
6385.456364162821,0.002697177155251289,0.0023269413749810062
6385.457363934744,0.002684835226134746,0.002346519477221847
6385.458363706666,0.0026760432325431682,0.0023695114525256306
6385.45936347859,0.0026709073771249755,0.002395538569552331
6385.460363250512,0.0026694946227209765,0.002424210932667478
6385.461363022435,0.0026718320748111133,0.0024551316704539174
6385.462362794357,0.0026779071776085062,0.0024879006209251593
6385.46336256628,0.0026876687037735267,0.002522117521376849
6385.464362338203,0.0027010284784927496,0.002557384806018858
6385.465362110126,0.0027178637488558016,0.0025933101661784444
6385.466361882049,0.00273802009467818,0.0026295090263937213
6385.467361653971,0.0027613147740518863,0.00266560705027667
6385.468361425894,0.002787540397208889,0.0027012427294931486
6385.469361197816,0.002816468814568387,0.0027360700416033832
6385.47036096974,0.0028478550851256056,0.0027697611040512415
6385.471360741663,0.0028814413707303095,0.002802008714417841
6385.472360513585,0.0029169605968937667,0.002832528656061074
6385.473360285508,0.0029541397440691728,0.0028610616705480713
6385.47436005743,0.002992702688767436,0.0028873750555842206
6385.475359829354,0.003032372581971555,0.0029112639125316877
6385.476359601276,0.0030728737951101833,0.0029325521020756177
6385.477359373199,0.003113933467794862,0.0029510929681895886
6385.478359145121,0.003155282687829224,0.0029667698953002005
6385.479358917044,0.0031966573565687818,0.0029794967928429093
6385.480358688967,0.003237798832238708,0.0029892186342735006
6385.48135846089,0.0032784544625782887,0.0029959121771171524
6385.482358232813,0.0033183781007339423,0.0029995869408452154
6385.483358004735,0.0033573306682137013,0.003000286434156099
6385.484357776658,0.0033950808157743343,0.002998089531331208
6385.48535754858,0.003431405737889384,0.002993111823232351
6385.486357320504,0.003466092194689432,0.002985506719507019
6385.4873570924265,0.003498937774305157,0.0029754660500189976
6385.488356864349,0.0035297524011348278,0.002963219911183117
6385.489356636272,0.0035583600707021637,0.0029490355449073124
6385.490356408194,0.0035846007585978107,0.0029332151233343196
6385.491356180118,0.003608332402373548,0.0029160924092055157
6385.49235595204,0.0036294328021330537,0.002898028337624624
6385.493355723963,0.00364780124631416,0.00287940561714044
6385.494355495885,0.0036633596632913404,0.002860622495683942
6385.495355267808,0.0036760531399808124,0.0028420858955153006
6385.496355039732,0.0036858497264116363,0.002824204177756527
6385.497354811654,0.003692739535883984,0.002807379817037247
6385.498354583577,0.0036967332400609423,0.0027920022323306296
6385.499354355499,0.0036978601391618932,0.002778440942391047
6385.500354127422,0.003696166033806099,0.0027670391174094843
6385.501353899344,0.003691711111772137,0.002758107517481054
6385.502353671268,0.0036845680012330207,0.00275191878656731
6385.503353443191,0.003674820066704148,0.0027487021227187974
6385.504353215113,0.003662559958753082,0.002748638429593202
6385.505352987036,0.003647888389926054,0.002751856107791792
6385.506352758958,0.0036309131184492525,0.002758427639136267
6385.507352530882,0.0036117481791956554,0.0027683670662543335
6385.508352302804,0.003590513468687582,0.002781628403733099
6385.509352074727,0.0035673348159428577,0.002798104969270175
6385.510351846649,0.003542344632407574,0.002817629620913416
6385.511351618572,0.003515683147334613,0.0028399759272558253
6385.512351390496,0.003487500131222748,0.0028648603414045044
6385.513351162418,0.0034579569218205868,0.0028919454539964775
6385.514350934341,0.0034272285203210784,0.002920844363827858
6385.515350706263,0.00339550552477444,0.002951126158933683
6385.516350478186,0.00336299569011165,0.0029823224650157134
6385.517350250108,0.003329924918075366,0.003013934984853942
6385.518350022032,0.0032965374794696038,0.00304544392154185
6385.5193497939545,0.003263095278338001,0.0030763171629597593
6385.520349565877,0.0032298760060921806,0.0031060200986691806
6385.5213493378,0.0031971701038856467,0.0031340259195263977
6385.522349109722,0.00316527653985935,0.0031598262131060754
6385.523348881646,0.003134497505513955,0.0031829416378686914
6385.524348653568,0.003105132235002913,0.003202932444321302
6385.525348425491,0.0030774702293510435,0.0032194085951499835
6385.526348197413,0.00305178419905424,0.003232039208132152
6385.527347969336,0.0030283230256357777,0.00324056101687819
6385.52834774126,0.0030073050079588853,0.003244785530632702
6385.529347513182,0.00298891161647885,0.003244604588056009
6385.530347285105,0.002973281934284728,0.003239994053843309
6385.531347057027,0.0029605079315246454,0.003231015500366842
6385.53234682895,0.0029506307161826944,0.0032178158286554613
6385.533346600872,0.0029436379248822917,0.003200624892529089
6385.534346372796,0.002939462427012437,0.003179751280545761
6385.535346144719,0.0029379824767313545,0.0031555764624184865
6385.536345916641,0.002939023362586814,0.003128547506037799
6385.537345688564,0.002942360513220888,0.003099168527432219
6385.538345460486,0.0029477239520794927,0.0030679909747412517
6385.53934523241,0.002954803951013392,0.0030356028007597936
6385.540345004332,0.00296325769482477,0.003002616583475856
6385.541344776255,0.0029727167350900776,0.002969656734647876
6385.542344548177,0.0029827949920207325,0.0029373460742585684
6385.5433443201,0.002993097061524174,0.0029062921824092986
6385.544344092024,0.0030032265999378727,0.0028770740141753647
6385.545343863946,0.003012794589683695,0.0028502292653557002
6385.546343635869,0.003021427327660335,0.0028262429243492994
6385.547343407791,0.0030287740065042396,0.002805537353966311
6385.548343179714,0.0030345137609312455,0.002788464134157626
6385.549342951637,0.0030383620339301453,0.0027752977851346733
6385.55034272356,0.0030400761055703407,0.0027662313948533385
6385.5513424954825,0.0030394596383835413,0.002761374094292275
6385.552342267405,0.003036366133403845,0.0027607502569087575
6385.553342039328,0.0030307012614910647,0.0027643002628612123
6385.55434181125,0.0030224241188688485,0.0027718826879947482
6385.555341583174,0.003011547511166229,0.0027832778412054874
6385.556341355096,0.002998137366715412,0.0027981926314591034
6385.557341127019,0.0029823113419474695,0.0028162667581395906
6385.558340898941,0.002964236664330915,0.002837080189799067
6385.559340670864,0.002944127284420779,0.002860161853294052
6385.560340442788,0.0029222404492933642,0.0028849994123636455
6385.56134021471,0.002898872819749128,0.00291104996709019
6385.562339986633,0.00287435621570727,0.0029377514498984945
6385.563339758555,0.002849053012169163,0.0029645344457278054
6385.564339530478,0.0028233511652149814,0.0029908341461145358
6385.565339302401,0.0027976588496977594,0.003016102166394898
6385.566339074324,0.0027723987258071437,0.0030398180034803316
6385.567338846247,0.002748001884713336,0.003061499966824401
6385.568338618169,0.0027249015311212495,0.0030807154413525777
6385.569338390092,0.002703526449982416,0.0030970903099815958
6385.570338162014,0.002684294295075753,0.003110317283022529
6385.571337933938,0.0026676047423871752,0.0031201627928451625
6385.57233770586,0.0026538325779543936,0.00312647206313821
6385.573337477783,0.002643320835110044,0.0031291719890288302
6385.574337249705,0.0026363741455341975,0.003128271570155813
6385.575337021628,0.002633252501921482,0.003123859788203042
6385.576336793552,0.002634165629610939,0.0031161009741077906
6385.577336565474,0.002639268129016232,0.0031052278531564035
6385.578336337397,0.0026486554992507386,0.0030915325774985743
6385.579336109319,0.0026623611044920984,0.0030753561347650975
6385.580335881242,0.0026803540990533,0.0030570765568047925
6385.581335653165,0.0027025382796765055,0.003037096367497681
6385.582335425088,0.002728751793305986,0.0030158297180093454
6385.5833351970105,0.002758767614430672,0.002993689659443832
6385.584334968933,0.0027922947232762343,0.002971075994517633
6385.585334740856,0.0028289799504203432,0.0029483641241024776
6385.586334512778,0.0028684104914583797,0.002925895242776364
6385.587334284702,0.0029101171352855218,0.002903968134140982
6385.588334056624,0.002953578284910889,0.002882832692486745
6385.589333828547,0.0029982248581739137,0.0028626851864385038
6385.590333600469,0.0030434461195082744,0.0028436652135660134
6385.591333372392,0.003088596429507594,0.002825854281481564
6385.592333144316,0.0031330028505381384,0.002809275963688809
6385.593332916238,0.0031759735415064494,0.0027938975786454046
6385.594332688161,0.0032168068994599688,0.0027796333158086627
6385.595332460083,0.0032548014280960017,0.002766348696765455
6385.596332232006,0.0032892663113779867,0.002753866228669519
6385.597332003929,0.00331953263467444,0.002741972090622584
6385.598331775852,0.003344965130058002,0.0027304236973120263
6385.599331547774,0.003364974251298901,0.002718958004535487
6385.600331319697,0.0033790283416359978,0.002707300437593426
6385.60133109162,0.0033866656611537477,0.002695174309285265
6385.602330863542,0.003387506079026078,0.002682310544219717
6385.603330635466,0.0033812622775300466,0.0026684574660062366
6385.604330407388,0.003367750335333757,0.0026533903617881574
6385.605330179311,0.003346899564194259,0.0026369205182341384
6385.606329951233,0.0033187614912696404,0.0026189034158080383
6385.607329723156,0.003283517914874176,0.002599245774084547
6385.60832949508,0.003241487992750189,0.0025779111675651974
6385.609329267002,0.0031931343284476595,0.0025549239856794866
6385.610329038925,0.003139068005245381,0.0025303715916490865
6385.611328810847,0.0030800524900522186,0.002504404625624175
6385.61232858277,0.003017006298678181,0.0024772354755158775
6385.613328354693,0.002951004285109802,0.002449134998253321
6385.614328126616,0.0028832773983111146,0.0024204276222656402
6385.615327898538,0.0028152107405194637,0.002391485001525663
6385.616327670461,0.0027483397595126713,0.0023627184169846037
6385.617327442384,0.0026843444241828112,0.002334570129196849
6385.618327214306,0.002625041281022675,0.002307503881966447
6385.61932698623,0.002572373363082949,0.002281994751570774
6385.620326758152,0.0025283979952320074,0.00225851853875319
6385.621326530075,0.0024952725827652343,0.0022375409167251017
6385.622326301997,0.0024752384844082833,0.002219506575400926
6385.62332607392,0.002470603085959967,0.0022048286283826296
6385.624325845844,0.002483720234835399,0.0021938785636372226
6385.625325617766,0.002516969259865494,0.0021869770193590557
6385.626325389689,0.0025727328514143586,0.002184385657990111
6385.627325161611,0.002653374095111769,0.002186300396667564
6385.628324933534,0.0027612129459904304,0.002192846226523384
6385.629324705457,0.002898502411236655,0.0022040738080027445
6385.63032447738,0.0030674046813172207,0.0022199579652983606
6385.631324249302,0.0032699674118147233,0.002240398134977541
6385.632324021225,0.0035081003186140814,0.002265220769324072
6385.633323793148,0.0037835522084136495,0.0022941836559493708
6385.634323565071,0.004097888515584593,0.002326982078220592
6385.635323336994,0.0044524693528282585,0.0023632566938848357
6385.636323108916,0.0048484280241694825,0.0024026029507767614
6385.637322880839,0.005286649919596728,0.002444581792164584
6385.638322652761,0.00576775172943362,0.002488731335054872
6385.639322424684,0.006292060996268,0.0025345791469334146
6385.640322196608,0.006859596178285755,0.0025816547229265737
6385.64132196853,0.007470047635793884,0.0026295017868608215
6385.642321740453,0.008122760227821286,0.002677690091275169
6385.643321512375,0.0088167184187857,0.00272582644818797
6385.644321284298,0.009550534882089854,0.0027735647649873205
6385.645321056221,0.010322443603031169,0.0028206148741962834
6385.646320828144,0.011130298547836747,0.0028667499302067133
6385.647320600066,0.011971579128182523,0.0029118121182114837
6385.648320371989,0.012843403874506432,0.002955716406749817
6385.649320143912,0.01374255380294142,0.0029984520988460333
6385.650319915835,0.014665506827249939,0.003040082012111564
6385.651319687758,0.01560848422307689,0.003080739234938196
6385.65231945968,0.016567509653752626,0.003120621526364412
6385.653319231603,0.01753848067107275,0.0031599835158904886
6385.654319003525,0.01851725194031755,0.003199126908080802
6385.655318775448,0.01949972875496496,0.003238388918879715
6385.656318547372,0.02048196880736937,0.0032781291850330187
6385.657318319294,0.02146028974545227,0.0033187154123277014
6385.658318091217,0.022431379713246182,0.0033605080805757083
6385.659317863139,0.023392407730780104,0.003403844610478338
6385.660317635062,0.024341130455248577,0.0034490234983045793
6385.661317406985,0.025275991751435425,0.003496289002445742
6385.662317178908,0.026196211614128134,0.00354581699829953
6385.66331695083,0.027101861093294786,0.0035977025961088454
6385.664316722753,0.027993919674697856,0.003651950044407471
6385.665316494676,0.028874310975324773,0.0037084653464370143
6385.666316266599,0.02974591188194412,0.003767051932813937
6385.667316038522,0.030612529977490477,0.003827409669303174
6385.668315810444,0.03147884491761099,0.003889137411554607
6385.669315582367,0.03235031152490705,0.003951739220116286
6385.670315354289,0.03323302512598703,0.004014634206055045
6385.671315126212,0.03413355203757998,0.004077169802921262
6385.672314898136,0.03505872961182281,0.004138638085218671
6385.673314670058,0.03601544124063239,0.0041982946038817736
6385.674314441981,0.03701037275774147,0.004255379093899499
6385.675314213903,0.03804975774832826,0.0043091373265319475
6385.676313985826,0.03913911986601619,0.004358843336282261
6385.677313757749,0.04028302004008398,0.004403821263835362
6385.678313529672,0.0414848156017694,0.00444346611152291
6385.679313301594,0.042746437250091904,0.00447726277408455
6385.680313073517,0.04406818876989738,0.0045048027613611786
6385.68131284544,0.0454485738403742,0.004525798083482688
6385.682312617363,0.046884154331948064,0.004540091855449065
6385.683312389286,0.04836944503961577,0.004547665309571099
6385.684312161208,0.04989685037846867,0.004548641059813296
6385.685311933131,0.05145664865499664,0.0045432826176160564
6385.686311705053,0.05303702880396068,0.004531990310551895
6385.687311476976,0.05462418293685146,0.004515293898382872
6385.6883112489,0.05620245598718479,0.0044938422935919585
6385.689311020822,0.05775455166310708,0.004468390852823113
6385.690310792745,0.059261792279655494,0.004439786702614304
6385.691310564667,0.060704428909350294,0.004408952504850395
6385.69231033659,0.06206199725205027,0.00437686898928672
6385.693310108513,0.06331371313516886,0.004344556531644685
6385.694309880436,0.06443889934770998,0.0043130560518122715
6385.695309652358,0.0654174327134122,0.004283409511062173
6385.696309424281,0.06623019739409744,0.004256640261163872
6385.697309196204,0.06685952824107438,0.004233733453027248
6385.698308968127,0.0672896276137255,0.004215616691734239
6385.69930874005,0.06750694093018211,0.004203141150048987
6385.700308511972,0.06750047956969553,0.0041970634102968425
6385.701308283895,0.06726208308421076,0.004198028373296466
6385.702308055817,0.06678661496317242,0.0042065536336592605
6385.703307827741,0.06607208763398378,0.004223015751228515
6385.704307599664,0.06511971385529482,0.004247638834851912
6385.705307371586,0.06393388379389324,0.004280485804274178
6385.706307143509,0.06252206993418045,0.004321452625082672
6385.707306915431,0.060894665208973256,0.004370265726074988
6385.708306687354,0.05906476272703088,0.00442648271091255
6385.709306459277,0.057047887469667186,0.004489496390167149
6385.7103062312,0.0548616908816085,0.004558542117091085
6385.711306003122,0.052525618551871725,0.0046327084039567475
6385.712305775045,0.050060559883326,0.00471095077845855
6385.713305546968,0.047488487546002864,0.004792108772987196
6385.714305318891,0.04483209389225944,0.004874925820786501
6385.715305090814,0.04211443115764002,0.004958071682801372
6385.716304862736,0.03935856181770526,0.005040166883619024
6385.717304634659,0.03658722478912877,0.005119808537313661
6385.718304406581,0.033822522410261686,0.005195596914563546
6385.719304178505,0.031085632536947145,0.005266162122533178
6385.720303950428,0.028396549691973205,0.005330190302081024
6385.72130372235,0.025773858831181023,0.005386448764232169
6385.722303494273,0.023234544697619198,0.0054338094748657565
6385.723303266195,0.020793838833456934,0.005471270255153821
6385.724303038118,0.018465105188631866,0.005497973030202655
6385.725302810041,0.016259764050329466,0.005513218499224332
6385.726302581964,0.014187252852370918,0.005516476772862552
6385.727302353886,0.012255021433611167,0.00550739380570836
6385.728302125809,0.010468558600144118,0.00548579375085791
6385.729301897732,0.008831446434179078,0.005451677584511804
6385.730301669655,0.007345438633215666,0.005405218460138704
6385.731301441578,0.006010559186494842,0.005346754282972858
6385.7323012135,0.004825217850607409,0.005276777983704899
6385.733300985423,0.0037863391325673335,0.0051959259181459895
6385.734300757345,0.002889501779221899,0.005104964724672875
6385.735300529269,0.0021290860533108363,0.005004776874225834
6385.736300301192,0.0014984263119452257,0.004896345103497256
6385.737300073114,0.0009899665941897236,0.004780735931555838
6385.738299845037,0.0005954170947576213,0.004659082481127127
6385.739299616959,0.0003059095572046712,0.004532566836250135
6385.740299388882,0.00011214975314791548,0.004402402176034659
6385.741299160805,4.565332518744675e-06,0.004269814931683966
6385.742298932728,-2.6552543241487665e-05,0.0041360272129987675
6385.74329870465,9.08476892004282e-06,0.004002239747506636
6385.744298476573,0.00010188840342224431,0.0038696155806253753
6385.745298248496,0.00024250689495368158,0.0037392647825579984
6385.746298020419,0.0004219300189496755,0.0036122303722282505
6385.747297792342,0.0006315807798793636,0.0034894756149220843
6385.748297564264,0.0008633949544033476,0.0033718728224910698
6385.749297336187,0.001109887815589936,0.0032601938033962304
6385.750297108109,0.0013642079242636755,0.003155102153347293
6385.751296880033,0.0016201781375774643,0.0030571476066644896
6385.752296651956,0.001872324203877108,0.0029667626533570377
6385.753296423878,0.0021158914796506226,0.0028842615625514103
6385.754296195801,0.0023468504381142807,0.002809841857646914
6385.755295967723,0.0025618917424354752,0.0027435881826368023
6385.756295739646,0.0027584117206718626,0.0026854783951171792
6385.757295511569,0.0029344891111622957,0.0026353916320095033
6385.758295283492,0.0030888539611746177,0.0025931180281216514
6385.759295055414,0.003220849559949459,0.0025583697260022566
6385.760294827337,0.003330388272425787,0.002530792799675872
6385.76129459926,0.003417902136769751,0.002509979726049869
6385.762294371183,0.0034842891280688214,0.0024954820603882858
6385.763294143106,0.0035308560717703967,0.002486822984587731
6385.764293915028,0.0035592592720428418,0.0024835094024617485
6385.765293686951,0.0035714439493298093,0.0024850432764137913
6385.766293458873,0.0035695835376865536,0.00249093194162446
6385.767293230797,0.003556019803901676,0.0025006971900731973
6385.76829300272,0.0035332046593479546,0.0025138829847888115
6385.769292774642,0.003503644454286987,0.0025300617376935843
6385.770292546565,0.0034698474530734866,0.002548839143336663
6385.771292318487,0.0034342750714228118,0.0025698575983952466
6385.772292090411,0.003399297324988161,0.0025927982669754824
6385.773291862333,0.0033671528145991464,0.0026173818825589337
6385.774291634256,0.0033399134674176054,0.0026433683968035823
6385.775291406178,0.0033194541645078937,0.002670555579947188
6385.776291178101,0.0033074273155885426,0.002698776650715814
6385.777290950024,0.003305242391555663,0.002727896986376967
6385.778290721947,0.0033140503904365314,0.0027578099622288556
6385.77929049387,0.0033347331917569106,0.002788432006974438
6385.780290265792,0.0033678977479851407,0.0028196970256489035
6385.781290037715,0.003413875054412285,0.0028515504070627407
6385.782289809637,0.0034727238027100894,0.002883942865453986
6385.783289581561,0.0035442385481885517,0.0029168243500812116
6385.784289353484,0.0036279621285402125,0.0029501382072086354
6385.785289125406,0.003723201992013458,0.002983815731602813
6385.786288897329,0.0038290500337396643,0.0030177712273044034
6385.787288669251,0.003944405493269359,0.0030518977139497735
6385.788288441175,0.004068000429683739,0.003086063447623197
6385.789288213097,0.004198427256586063,0.0031201094459222057
6385.79028798502,0.004334167773515858,0.003153848187906367
6385.791287756942,0.004473623070349987,0.003187063592027873
6385.792287528865,0.0046151436281443884,0.00321951228463695
6385.793287300788,0.004757058909890836,0.0032509261021833403
6385.794287072711,0.0048977057206269865,0.0032810157434964983
6385.795286844634,0.005035454620876599,0.0033094754842409885
6385.796286616556,0.005168733742178171,0.0033359888461865516
6385.797286388479,0.00529604952499503,0.0033602350637622473
6385.798286160401,0.005416004162648754,0.003381896124058355
6385.799285932325,0.005527309797721019,0.0034006640963515434
6385.800285704248,0.005628799682327417,0.0034162484300634976
6385.80128547617,0.005719436566541156,0.0034283828955009466
6385.802285248093,0.0057983185855921575,0.0034368318630744357
6385.803285020015,0.00586468293803769,0.0034413956449689293
6385.804284791939,0.0059179076866168875,0.0034419146581489944
6385.805284563861,0.005957512042024064,0.0034382722387947917
6385.806284335784,0.005983155496751509,0.003430396068563987
6385.807284107706,0.005994636164246079,0.003418258337266612
6385.808283879629,0.005991888632747455,0.0034018748986976333
6385.809283651552,0.005974981546076481,0.003381303721533984
6385.810283423475,0.0059441149882827095,0.003356642895299093
6385.811283195398,0.005899617604934366,0.0033280283703582296
6385.81228296732,0.005841943263152642,0.003295631542538565
6385.813282739243,0.005771666956992146,0.0032596567590115694
6385.814282511165,0.005689479627461649,0.003220338810337051
6385.815282283089,0.005596181586847762,0.0031779404539283144
6385.816282055012,0.005492674282478083,0.0031327499693212064
6385.817281826934,0.005379950184240532,0.003085078697400691
6385.818281598857,0.005259080664066238,0.003035258505224927
6385.819281370779,0.005131201896496095,0.0029836391508660793
6385.820281142703,0.00499749902978592,0.0029305855590390367
6385.821280914625,0.004859189089823701,0.002876475024735468
6385.822280686548,0.004717503225991863,0.0028216943441450692
6385.82328045847,0.004573668955731717,0.0027666368537594484
6385.824280230393,0.004428893006356302,0.002711699356043261
6385.825280002316,0.004284345222547129,0.0026572789255147806
6385.826279774239,0.004141143862080803,0.0026037696107336335
6385.827279546162,0.004000342478891992,0.0025515590582458874
6385.828279318084,0.003862918507555093,0.0025010250780776668
6385.829279090007,0.0037297636245135347,0.002452532161218445
6385.830278861929,0.0036016759588884243,0.0024064279689467263
6385.831278633853,0.003479354226234961,0.0023630398446482723
6385.832278405776,0.0033633938355436565,0.002322671430258497
6385.833278177698,0.0032542849776429515,0.0022855994824244326
6385.834277949621,0.0031524126607220793,0.002252070980129204
6385.835277721543,0.003058058621634673,0.0022223006086594392
6385.836277493467,0.002971405002875124,0.002196468697681644
6385.837277265389,0.0028925396441611233,0.0021747196767041544
6385.838277037312,0.0028214628071748485,0.0021571610871732702
6385.839276809234,0.0027580951398267126,0.0021438631666179956
6385.840276581157,0.0027022866816732273,0.0021348590060331425
6385.84127635308,0.0026538267027970035,0.0021301452747454733
6385.842276125003,0.0026124541550528145,0.0021296835008679338
6385.843275896926,0.002577868499657132,0.002133401889665373
6385.844275668848,0.0025497406627150365,0.0021411976553372103
6385.845275440771,0.0025277238733976007,0.0021529398239658703
6385.846275212693,0.0025114641624793795,0.002168472431928724
6385.847274984617,0.0025006103252148085,0.0021876180100530657
6385.84827475654,0.002494823168386942,0.002210181228152936
6385.849274528462,0.0024937838754917584,0.002235952575126963
6385.850274300385,0.00249720135324473,0.002264711953751181
6385.851274072307,0.00250481846891496,0.0022962320765231906
6385.852273844231,0.0025164171301177048,0.002330281560944732
6385.853273616153,0.0025318221655653856,0.0023666276293628614
6385.854273388076,0.002550903928107041,0.002405038320625561
6385.855273159998,0.0025735794943426006,0.002445284140308742
6385.856272931921,0.002599812331851757,0.002487139123352765
6385.8572727038445,0.002629610365731066,0.0025303813352477345
6385.858272475767,0.0026630224665875387,0.002574792866587655
6385.85927224769,0.002700133456410414,0.002620159379166267
6385.860272019612,0.0027410577768796126,0.0026662692666655843
6385.861271791535,0.002785932006065479,0.0027129125240820135
6385.862271563457,0.0028349064587894317,0.002759879469668413
6385.863271335381,0.002888136159919448,0.002806959502180233
6385.864271107304,0.0029457715250504435,0.0028539400903981765
6385.865270879226,0.003007949110366506,0.0029006061853249906
6385.866270651149,0.0030747828091325265,0.0029467402147014083
6385.867270423071,0.0031463558892594634,0.002992122753141977
6385.868270194995,0.0032227142853477873,0.003036533864261602
6385.869269966917,0.0033038615599722213,0.0030797550144152823
6385.87026973884,0.0033897559073697106,0.003121571400165983
6385.871269510762,0.0034803094843714223,0.0031617745292205394
6385.872269282685,0.0035753902465054757,0.0032001649245398402
6385.8732690546085,0.0036748263776467073,0.003236554848677594
6385.874268826531,0.0037784133451881727,0.0032707709589412976
6385.875268598454,0.003885923589094881,0.0033026568151572995
6385.876268370376,0.003997118862850255,0.0033320751855566845
6385.877268142299,0.004111765279375941,0.0033589101403673945
6385.878267914221,0.004229651142524038,0.003383068976196545
6385.879267686145,0.00435060762372806,0.0034044840479050993
6385.880267458068,0.004474532256184337,0.0034231145770184657
6385.88126722999,0.004601415074047057,0.0034389484607597327
6385.882267001913,0.004731367040783711,0.0034520040422807477
6385.883266773835,0.004864650215135441,0.003462331740893513
6385.884266545759,0.005001708928258355,0.003470015393388842
6385.885266317681,0.005143201112785341,0.0034751731188097297
6385.886266089604,0.00529002881973825,0.0034779574833412176
6385.887265861526,0.005443366847048733,0.0034785547368748034
6385.888265633449,0.005604688269808467,0.0034771829651479803
6385.8892654053725,0.0057757855286407235,0.0034740891482070765
6385.890265177295,0.005958785624308789,0.0034695452618534214
6385.891264949218,0.006156157880345366,0.003463843629669121
6385.89226472114,0.006370712641464083,0.0034572917290745906
6385.893264493063,0.006605589159358487,0.0034502066276402067
6385.894264264985,0.006864230836835203,0.0034429092150572833
6385.895264036909,0.0071503461026138256,0.0034357184069386372
6385.896263808832,0.007467853623671247,0.0034289455137736144
6385.897263580754,0.007820811340249324,0.003422888973570639
6385.898263352677,0.00821332975010514,0.0034178296376482513
6385.899263124599,0.008649470729645815,0.0034140267911241286
6385.900262896523,0.009133133849532245,0.003411715088499978
6385.901262668445,0.009667932714308825,0.0034111025713941105
6385.902262440368,0.010257064489884582,0.003412369886736304
6385.90326221229,0.010903176506108168,0.003415670733982471
6385.904261984213,0.011608234483837543,0.0034211334591009827
6385.9052617561365,0.012373397336263118,0.0034288636237700463
6385.906261528059,0.013198903524443785,0.003438947344165524
6385.907261299982,0.014083973642252815,0.0034514552019414106
6385.908261071904,0.015026733388700895,0.0034664465357327496
6385.909260843827,0.016024160461130574,0.0034839738994664115
6385.91026061575,0.01707205821288353,0.00350408743164656
6385.911260387673,0.01816505817862128,0.0035268388294653298
6385.912260159596,0.019296652809304145,0.003552284566870196
6385.913259931518,0.0204592590231351,0.0035804879559905843
6385.914259703441,0.021644312507246053,0.003611519671786842
6385.915259475363,0.02284239209336435,0.0036454564697601765
6385.916259247287,0.02404337291179497,0.003682377999764864
6385.917259019209,0.025236606301253326,0.003722361802188057
6385.918258791132,0.026411123543758123,0.0037654767356126236
6385.919258563054,0.02755585938930903,0.003811775217478595
6385.920258334977,0.028659890065694606,0.00386128475167784
6385.9212581069005,0.02971267908428381,0.0039139992676121465
6385.922257878823,0.030704322736871327,0.003969870806722343
6385.923257650746,0.031625785970347556,0.004028802056081248
6385.924257422668,0.03246911884283003,0.004090640143438276
6385.925257194591,0.033227644579335074,0.004155172007995975
6385.926256966514,0.03389611236268247,0.004222121590389692
6385.927256738437,0.03447081058614996,0.004291149050144153
6385.92825651036,0.03494963840057371,0.004361852180496634
6385.929256282282,0.035332134873375706,0.004433770108458014
6385.930256054205,0.03561946658625212,0.004506389243387229
6385.931255826127,0.03581437653347782,0.00457915130468583
6385.932255598051,0.035921099479824616,0.004651463147537005
6385.933255369973,0.03594525076735561,0.004722708027071767
6385.934255141896,0.03589369644856944,0.004792257904951084
6385.935254913818,0.03577441264511068,0.004859486408790672
6385.936254685741,0.035596341494349815,0.004923782077859701
6385.9372544576645,0.03536925016082672,0.0049845615240889825
6385.938254229587,0.0351035983303605,0.005041282080991369
6385.93925400151,0.03481041856864556,0.005093453425741912
6385.940253773432,0.03450121292813189,0.005140647599718436
6385.941253545355,0.03418786801483327,0.00518250688085948
6385.942253317278,0.03388258924257281,0.005218749106394385
6385.943253089201,0.033597853332465864,0.005249170286988192
6385.944252861124,0.03334637647811096,0.0052736446249451695
6385.945252633046,0.033141094073692264,0.005292122265091934
6385.946252404969,0.03299514645028944,0.005304625219560068
6385.947252176891,0.03292186375143573,0.005311241929984238
6385.948251948815,0.03293474229835335,0.005312120905772795
6385.949251720737,0.033047405097395996,0.005307463834846296
6385.95025149266,0.03327354062852026,0.005297518510305203
6385.951251264582,0.03362681609789927,0.005282571854124941
6385.952251036505,0.034120763102728116,0.005262943257174238
6385.9532508084285,0.034768634736105045,0.005238978407574768
6385.954250580351,0.03558323369369912,0.005211043745991776
6385.955250352274,0.036576711389326416,0.005179521652257058
6385.956250124196,0.03776033888929765,0.0051448064331019545
6385.957249896119,0.039144251730648574,0.0051073011641253295
6385.958249668042,0.04073717211135417,0.005067415442209324
6385.959249439965,0.04254611324374098,0.005025564104573534
6385.960249211888,0.044576071905770516,0.004982166949454697
6385.96124898381,0.0468297166393668,0.004937649445859724
6385.962248755733,0.049307080498606624,0.004892444335338489
6385.963248527655,0.05200526823180987,0.004846993899020609
6385.964248299579,0.054918188082673895,0.0048017525127248386
6385.965248071501,0.058036318450547554,0.004757188988326022
6385.966247843424,0.06134651999286283,0.00471378812513898
6385.967247615346,0.0648319043933321,0.004672050871001793
6385.968247387269,0.068471771434018,0.004632492532685733
6385.9692471591925,0.07224162557554442,0.004595638612000548
6385.970246931115,0.07611328166384487,0.004562018092328153
6385.971246703038,0.08005506675940036,0.004532154327517483
6385.97224647496,0.08403212178440314,0.0045065540146675895
6385.973246246883,0.08800680311102456,0.00448569497408468
6385.974246018806,0.0919391806810924,0.004470013551976898
6385.975245790729,0.09578762583363784,0.004459892403548517
6385.976245562652,0.09950947855335088,0.004455649263289464
6385.977245334574,0.10306178009457811,0.004457527142294505
6385.978245106497,0.10640205281497027,0.00446568625564346
6385.979244878419,0.10948910491635712,0.004480197867256421
6385.980244650343,0.11228383448384135,0.004501040111951497
6385.981244422265,0.11475000580032374,0.004528095707679369
6385.982244194188,0.11685497198137283,0.004561151331606686
6385.98324396611,0.11857032109522628,0.004599898338888432
6385.984243738033,0.11987242696002706,0.004643934488874782
6385.9852435099565,0.12074288965089261,0.004692766432580219
6385.986243281879,0.12116885373349458,0.004745812891757864
6385.987243053802,0.1211431944519262,0.0048024086676950045
6385.988242825724,0.12066456483608919,0.004861809785991595
6385.989242597647,0.1197373017715947,0.004923200152439094
6385.99024236957,0.1183711969417875,0.00498570003726246
6385.991242141493,0.11658114743925788,0.005048376539724352
6385.992241913416,0.11438670794990045,0.005110255965462762
6385.993241685338,0.11181156975900453,0.005170337829749162
6385.994241457261,0.10888299130983148,0.005227610023611217
6385.995241229184,0.10563120213864166,0.005281064580839332
6385.996241001107,0.1020887985254933,0.005329713484854374
6385.997240773029,0.09829014615174095,0.005372604054331172
6385.998240544952,0.0942708025291821,0.005408833611305753
6385.999240316874,0.09006696969405587,0.0054375632997725725
6386.000240088797,0.08571498547117874,0.0054580310239885545
6386.0012398607205,0.08125085946682663,0.005469563500760111
6386.002239632643,0.0767098578101501,0.005471587399905897
6386.003239404566,0.07212613853781791,0.005463639505250863
6386.004239176488,0.06753243759086447,0.005445375759172815
6386.005238948411,0.06295980398611688,0.005416578953819122
6386.006238720334,0.05843738195810743,0.005377164730539248
6386.007238492257,0.05399223740104258,0.005327185489352475
6386.008238264179,0.04964922521257419,0.005266831815753335
6386.009238036102,0.045430892985836906,0.005196431104910909
6386.010237808025,0.04135741545248298,0.005116443202660595
6386.011237579948,0.03744655395619971,0.005027453079647249
6386.012237351871,0.03371363636803998,0.004930160772735187
6386.013237123793,0.03017155482912561,0.0048253690053594485
6386.014236895716,0.026830780723832257,0.004713968980967591
6386.015236667638,0.023699397676296963,0.0045969248148124775
6386.016236439561,0.020783153844093523,0.004475256965697947
6386.0172362114845,0.018085534461855478,0.004350024927534193
6386.018235983407,0.015607854816524712,0.004222309415273404
6386.01923575533,0.013349372990436472,0.004093194351413257
6386.020235527252,0.011307420987314548,0.003963749077964022
6386.021235299175,0.009477552270215236,0.003835011305496714
6386.022235071098,0.007853703268469793,0.003707971317429546
6386.023234843021,0.006428366082935888,0.0035835578782939877
6386.024234614943,0.0051927694426767345,0.003462626178751739
6386.025234386866,0.004137064875988095,0.003345948014025672
6386.026234158789,0.0032505149952164825,0.003234204261434008
6386.027233930712,0.0025216807818444504,0.0031279796241566035
6386.028233702635,0.001938604864944105,0.0030277595563817676
6386.029233474557,0.0014889880469110817,0.002933929269680278
6386.03023324648,0.0011603567202405265,0.0028467747128482273
6386.031233018402,0.0009402192764775109,0.002766485387968083
6386.032232790325,0.0008162100683009416,0.0026931588102417463
6386.0332325622485,0.0007762198969126058,0.0026268063646520006
6386.034232334171,0.0008085123227589848,0.002567360285880433
6386.035232106094,0.0009018253346139329,0.0025146814908493806
6386.036231878016,0.0010454581166190213,0.002468568006836316
6386.037231649939,0.0012293429012622307,0.002428763747277892
6386.038231421862,0.0014441021999312977,0.002394967395176016
6386.039231193785,0.0016810919966469414,0.0023668411704323945
6386.040230965707,0.001932431707783148,0.0023440192875531915
6386.04123073763,0.0021910218346104537,0.0023261159559992976
6386.042230509553,0.0024505502847680626,0.0023127328288540137
6386.043230281476,0.0027054883440117425,0.0023034658408301735
6386.044230053399,0.0029510772853198813,0.002297911373568937
6386.045229825321,0.0031833066440164677,0.0022956716585965423
6386.046229597244,0.0033988852494781993,0.0022963593175127856
6386.047229369166,0.0035952061368667004,0.0022996009752484664
6386.048229141089,0.0037703064457847903,0.0023050399547694285
6386.0492289130125,0.003922823367575625,0.002312338131241869
6386.050228684935,0.004051947148915636,0.0023211770631354723
6386.051228456858,0.004157372093921767,0.0023312585300406113
6386.05222822878,0.00423924642021637,0.0023423046090975262
6386.053228000703,0.004298121713778061,0.002354057421195496
6386.054227772626,0.004334902598921426,0.002366278664950309
6386.055227544549,0.00435079710402729,0.002378749021488205
6386.056227316471,0.004347268078072063,0.002391267467157121
6386.057227088394,0.004325985923276265,0.002403650499099721
6386.058226860317,0.00428878287584383,0.0024157312756500483
6386.05922663224,0.004237609084102793,0.002427358695598313
6386.060226404163,0.004174490765244619,0.0024383964669442387
6386.061226176085,0.004101490728322544,0.0024487222216872527
6386.062225948008,0.004020671526092275,0.0024582267131064697
6386.06322571993,0.003934061469187958,0.0024668131148312647
6386.064225491854,0.00384362371969287,0.0024743964603551574
6386.0652252637765,0.0037512286601158076,0.0024809033093679857
6386.066225035699,0.003658629688346041,0.002486271757703526
6386.067224807622,0.0035674425268181456,0.0024904518881742545
6386.068224579544,0.0034791280739949852,0.0024934066997327224
6386.069224351467,0.0033949787760375345,0.0024951134858029796
6386.07022412339,0.0033161084596340967,0.0024955655839815722
6386.071223895313,0.0032434455492114647,0.002494774390007621
6386.072223667235,0.0031777295850768518,0.0024927715042723083
6386.073223439158,0.0031195109418914765,0.002489610845391914
6386.074223211081,0.0030691536079062672,0.00248537052293456
6386.075222983004,0.0030268408272457214,0.002480154228773079
6386.076222754927,0.002992583335880099,0.002474091913640969
6386.077222526849,0.002966229849559853,0.0024673395816557165
6386.078222298772,0.002947479411429537,0.0024600781443027383
6386.079222070694,0.0029358951967573305,0.002452511378043048
6386.080221842618,0.0029309194059782976,0.0024448630827518256
6386.0812216145405,0.0029318889435776467,0.0024373735360546343
6386.082221386463,0.0029380516538229286,0.002430295312160241
6386.083221158386,0.0029485829388555588,0.0024238885221581747
6386.084220930308,0.002962602616657253,0.002418415557828082
6386.085220702231,0.0029791919040997815,0.002414135478185741
6386.086220474154,0.002997410446195813,0.0024112982413967503
6386.087220246077,0.0030163133507915703,0.0024101390258999345
6386.088220017999,0.0030349682119391753,0.002410872891026781
6386.089219789922,0.0030524720967702616,0.0024136900005623115
6386.090219561845,0.0030679684221773516,0.0024187515759125228
6386.091219333768,0.0030806635745141537,0.002426186663742275
6386.092219105691,0.003089843057056363,0.0024360897114885987
6386.093218877613,0.003094886906143734,0.0024485188716096688
6386.094218649536,0.003095284098510611,0.0024634949324265805
6386.095218421458,0.003090645669994378,0.002481000809998815
6386.096218193382,0.00308071627901271,0.0025009816049191475
6386.0972179653045,0.0030653839896746947,0.00252334528027037
6386.098217737227,0.00304468812335054,0.0025479640212773746
6386.09921750915,0.0030188251132669862,0.0025746763110340676
6386.100217281072,0.0029881523635110676,0.0026032897404900833
6386.101217052995,0.0029531901413647936,0.0026335845732878694
6386.102216824918,0.0029146215160679163,0.0026653180751346384
6386.103216596841,0.0028732903161503925,0.0026982295649109317
6386.104216368763,0.0028301970509523448,0.0027320460579338232
6386.105216140686,0.002786492760690205,0.002766488284101666
6386.106215912609,0.0027434708141769954,0.002801276809509122
6386.107215684532,0.002702556725181757,0.002836137987648727
6386.108215456455,0.002665296075935861,0.0028708095138968953
6386.109215228377,0.0026333406169235557,0.002905045437084393
6386.1102150003,0.0026084325769798566,0.0029386205651054246
6386.111214772222,0.002592387189629411,0.0029713342592927517
6386.112214544146,0.0025870734263538637,0.0030030136339346796
6386.1132143160685,0.0025943929213342134,0.0030335161668147014
6386.114214087991,0.002616257081459418,0.0030627316900126936
6386.115213859914,0.0026545624164324173,0.0030905836783082148
6386.116213631836,0.0027111642094696416,0.0031170297083360074
6386.117213403759,0.0027878487759079845,0.003142060953166705
6386.118213175682,0.0028863046943759596,0.0031657006200025415
6386.119212947605,0.003008093494722345,0.0031880013171733898
6386.120212719527,0.0031546203161914943,0.0032090414014647106
6386.12121249145,0.0033271050131086755,0.0032289203683457278
6386.122212263373,0.003526554116780719,0.003247753326861022
6386.123212035296,0.003753734003341965,0.0032656646116224863
6386.124211807219,0.004009145601102155,0.0032827806569351177
6386.125211579141,0.004293001006794525,0.003299222359902393
6386.126211351064,0.004605202445901609,0.003315097247259073
6386.127211122986,0.004945324070682809,0.0033304918270084835
6386.12821089491,0.005312597121338516,0.0033454645527686237
6386.1292106668325,0.005705898985527439,0.003360039832893999
6386.130210438755,0.006123746675928835,0.0033742034547230544
6386.131210210678,0.006564295190803633,0.0033878996808517333
6386.1322099826,0.00702534115144308,0.003401030145998846
6386.133209754524,0.007504332082930989,0.0034134545664686942
6386.134209526446,0.007998381735618655,0.0034249931817933294
6386.135209298369,0.008504291866157178,0.003435430784497747
6386.136209070291,0.009018580829678916,0.0034445221528319036
6386.137208842214,0.0095375191610263,0.0034519986661801826
6386.138208614137,0.010057172085844127,0.0034575758381292497
6386.13920838606,0.010573448670558558,0.003460961448662983
6386.140208157983,0.011082157146001725,0.003461863922845769
6386.141207929905,0.011579065816597392,0.003460000625404018
6386.142207701828,0.012059968824481779,0.0034551058151118925
6386.14320747375,0.012520755790427643,0.0034469380785790613
6386.144207245674,0.012957483972138648,0.0034352871052006372
6386.1452070175965,0.013366451110068987,0.0034199796944498597
6386.146206789519,0.013744266644319892,0.003400884935633549
6386.147206561442,0.014087918566161295,0.003377918562266568
6386.148206333364,0.014394832952443525,0.003351046522332312
6386.149206105288,0.014662923398355995,0.003320287798663573
6386.15020587721,0.014890628153797188,0.0032857164750685255
6386.151205649133,0.015076933542757574,0.0032474630061008415
6386.152205421055,0.015221382881471578,0.003205714625735344
6386.153205192978,0.015324070565188561,0.0031607148213535505
6386.154204964901,0.015385621518627912,0.0031127618092526813
6386.155204736824,0.015407157001425387,0.0030622059767192104
6386.156204508747,0.015390248730614092,0.0030094462889579277
6386.157204280669,0.015336864124595855,0.002954925690656146
6386.158204052592,0.015249305909745742,0.0028991255705593175
6386.159203824514,0.015130149284933583,0.00284255939970101
6386.160203596438,0.01498217946041792,0.002785765680315261
6386.1612033683605,0.014808331903797068,0.002729300346328438
6386.162203140283,0.014611637153276643,0.0026737287519427236
6386.163202912206,0.014395171568363238,0.0026196173842231115
6386.164202684128,0.01416201484429622,0.002567525437662017
6386.165202456052,0.013915214594980196,0.002517996393451099
6386.166202227974,0.013657757950422374,0.0024715497617072255
6386.167201999897,0.013392549981563787,0.002428673170602554
6386.168201771819,0.013122398769084205,0.0023898150022492494
6386.169201543742,0.012850006902185171,0.0023553777622751706
6386.170201315665,0.012577969025594682,0.0023257123330177585
6386.171201087588,0.012308774789585976,0.0023011132168281726
6386.172200859511,0.012044816306033775,0.002281814834514376
6386.173200631433,0.011788399018477622,0.002267988905051195
6386.174200403356,0.01154175470013825,0.002259742901422684
6386.175200175278,0.011307055022372411,0.0022571195605541818
6386.176199947202,0.011086423818452807,0.0022600974183929136
6386.1771997191245,0.010881946000984372,0.002268592326814694
6386.178199491047,0.010695671292586369,0.002282459870727141
6386.17919926297,0.01052961148226528,0.0023014985428980545
6386.180199034892,0.010385730529332343,0.0023254534742157018
6386.181198806816,0.010265927211331809,0.002354020493466062
6386.182198578738,0.010172010161056537,0.0023868503273482312
6386.183198350661,0.010105665339388998,0.0024235528359186362
6386.184198122583,0.010068416498509683,0.0024637012639157183
6386.185197894506,0.010061579991190658,0.0025068365341348467
6386.186197666429,0.010086216117921648,0.0025524716164631554
6386.187197438352,0.01014307978649359,0.0026000960043577356
6386.188197210275,0.01023257346482619,0.0026491803382660104
6386.189196982197,0.01035470529673466,0.0026991812235817323
6386.19019675412,0.010509054950587553,0.002749546276461175
6386.191196526042,0.010694749386728984,0.002799719388620764
6386.192196297966,0.010910450328809482,0.0028491461554363286
6386.1931960698885,0.011154354837380585,0.002897279384671281
6386.194195841811,0.011424209991392159,0.002943584592295745
6386.195195613734,0.011717342241692488,0.002987545383465168
6386.196195385656,0.012030701495563146,0.0030286686217308252
6386.19719515758,0.01236091944544712,0.003066489327231121
6386.198194929502,0.01270438110292999,0.0031005752994378855
6386.199194701425,0.013057307971255337,0.003130531491938461
6386.200194473347,0.01341585081851582,0.0031560041610589275
6386.20119424527,0.013776189636480148,0.0031766847873773885
6386.202194017193,0.01413463810679222,0.003192313751328204
6386.203193789116,0.014487749745921527,0.0032026837339132505
6386.204193561039,0.014832422885088683,0.0032076428006265856
6386.205193332961,0.01516600178781308,0.0032070970987277993
6386.206193104884,0.01548637142632949,0.0032010130528551573
6386.207192876806,0.015792043534705823,0.003189418904779875
6386.20819264873,0.01608223146272284,0.0031724054544770013
6386.2091924206525,0.016356911249733267,0.0031501259495210435
6386.210192192575,0.016616866459258958,0.0031227952116944808
6386.211191964498,0.016863714724373133,0.0030906882149580703
6386.21219173642,0.01709991450819151,0.0030541383773965477
6386.213191508344,0.017328751055052466,0.003013535785788276
6386.214191280266,0.017554300757404048,0.0029693254618839513
6386.215191052189,0.01778137331747619,0.0029220056506961056
6386.216190824111,0.018015431494392335,0.0028721260094318472
6386.217190596034,0.018262489088798115,0.002820285536980591
6386.2181903679575,0.01852898883813454,0.0027671301188726817
6386.21919013988,0.018821662576583045,0.002713349641044564
6386.220189911803,0.01914737623272162,0.0026596746894956723
6386.221189683725,0.019512962366150827,0.002606872863793172
6386.222189455648,0.019925043374274032,0.002555744703874249
6386.22318922757,0.020389849224476293,0.002507119199653242
6386.224188999494,0.020913034243653632,0.002461848831019393
6386.2251887714165,0.02149949783606971,0.00242080404831073
6386.226188543339,0.02215321402084732,0.0023848670403533116
6386.227188315262,0.022877074569298533,0.0023549245761095967
6386.228188087184,0.023672750314223577,0.002331859686307906
6386.229187859108,0.02454057473635912,0.0023165419976184966
6386.23018763103,0.02547945310562126,0.002309816642226774
6386.231187402953,0.026486799379853272,0.0023124918043749506
6386.232187174875,0.027558501952637357,0.0023253250805525707
6386.233186946798,0.02868891836254897,0.0023490088938420274
6386.2341867187215,0.029870898392041448,0.002384155226568718
6386.235186490644,0.03109583476493943,0.0024312799483844198
6386.236186262567,0.032353740846838314,0.0024907870441411087
6386.237186034489,0.03363335497223912,0.0025629530907591504
6386.238185806412,0.034922270873995485,0.002647912376118643
6386.239185578334,0.03620709316743247,0.002745643083195801
6386.240185350258,0.037473616255947445,0.002855954990984102
6386.2411851221805,0.03870702466488199,0.0029784791816922446
6386.242184894103,0.03989211269549194,0.0031126602751833654
6386.243184666026,0.04101352115667823,0.0032577517048209804
6386.244184437948,0.04205598842516146,0.0034128144879540987
6386.245184209872,0.04300461202539031,0.0035767198433820776
6386.246183981794,0.04384511543477653,0.003748155893947848
6386.247183753717,0.04456411329388096,0.003925638574332908
6386.248183525639,0.045149367113628665,0.004107526734039521
6386.249183297562,0.0455900232787694,0.004292041289242972
6386.2501830694855,0.04587682576759645,0.0044772881652411
6386.251182841408,0.046002297397069514,0.0046612847031208895
6386.252182613331,0.04596088507639745,0.004841989154390829
6386.253182385253,0.045749065839849196,0.005017332809506317
6386.254182157176,0.04536541106671025,0.005185254191597223
6386.255181929098,0.04481060679173375,0.005343734633895508
6386.256181701022,0.04408742914257291,0.005490834479791808
6386.2571814729445,0.04320067595355199,0.005624729078920327
6386.258181244867,0.04215705800892043,0.005743743661364707
6386.25918101679,0.04096505537924973,0.005846386059865108
6386.260180788712,0.039634745352363304,0.00593137618016839
6386.261180560636,0.038177608427586544,0.005997671166090853
6386.262180332558,0.036606318137826034,0.006044485402590897
6386.263180104481,0.034934519697241644,0.006071304816123728
6386.264179876403,0.03317660206873507,0.006077895277847548
6386.265179648326,0.03134746807092999,0.006064305199699956
6386.2661794202495,0.029462307386097737,0.006030862589829309
6386.267179192172,0.027536377486555116,0.005978166898496443
6386.268178964095,0.02558479735633177,0.005907075967257512
6386.269178736017,0.023622358388384772,0.005818688355907821
6386.27017850794,0.021663356027199314,0.005714321328060107
6386.271178279863,0.019721444701830067,0.00559548485503803
6386.272178051786,0.017809517494434757,0.005463852144758932
6386.2731778237085,0.015939610957347024,0.0053212273966287355
6386.274177595631,0.014122834639565483,0.00516951167835748
6386.275177367554,0.012369324267550164,0.005010667950358528
6386.276177139476,0.0106882171295273,0.004846686286439939
6386.2771769114,0.009087647958695206,0.004679550261007751
6386.278176683322,0.007574763405337022,0.004511205322673605
6386.279176455245,0.006155752982879517,0.004343529781348567
6386.280176227167,0.00483589418707989,0.004178308828201337
6386.28117599909,0.0036196093642207835,0.0040172118227745695
6386.2821757710135,0.002510531856372641,0.0038617729624593066
6386.283175542936,0.001511578958756384,0.00371337540805356
6386.284175314859,0.0006250292697926341,0.00357323893465526
6386.285175086781,-0.00014739790353157322,0.0034424111606674813
6386.286174858704,-0.0008044633198662798,0.003321762366858973
6386.287174630627,-0.0013453309006763732,0.003211983860416442
6386.28817440255,-0.0017694952235744028,0.0031135897675192326
6386.2891741744725,-0.002076715409816911,0.003026922054704396
6386.290173946395,-0.0022669572863036605,0.0029521584952284814
6386.291173718318,-0.002340345518856543,0.002889323222950436
6386.29217349024,-0.002297127155497359,0.002838299462752888
6386.293173262164,-0.002137647686799391,0.002798844003868286
6386.294173034086,-0.0018623403407115574,0.0027706029920375012
6386.295172806009,-0.001471728910075429,0.0027531286408843426
6386.296172577931,-0.0009664439880484529,0.0027458964782788513
6386.297172349854,-0.00034725207265840424,0.0027483227429836565
6386.2981721217775,0.00038490339590865826,0.00275978154439511
6386.2991718937,0.0012288503622923856,0.002779621406604338
6386.300171665623,0.0021831274300351173,0.0028071808376039743
6386.301171437545,0.0032459158525557723,0.0028418025930693138
6386.302171209468,0.0044149661152373025,0.0028828463438647658
6386.303170981391,0.005687521044603263,0.0029296995110756844
6386.304170753314,0.007060237433900547,0.0029817861028802093
6386.3051705252365,0.008529108238607305,0.0030385734679900366
6386.306170297159,0.010089387467613595,0.003099576965475694
6386.307170069082,0.011735519939643196,0.0031643626414754288
6386.308169841004,0.013461078039386221,0.0032325480880739366
6386.309169612928,0.015258707477075256,0.003303801710252347
6386.31016938485,0.017120083874031345,0.0033778406321251816
6386.311169156773,0.019035881873593237,0.003454427455714045
6386.312168928695,0.02099575853232794,0.0035333660705838816
6386.313168700618,0.022988352967039168,0.003614496704020407
6386.3141684725415,0.02500130440260408,0.0036976903816844354
6386.315168244464,0.027021290671317096,0.003782842919283975
6386.316168016387,0.029034088889702568,0.003869868488539797
6386.317167788309,0.031024659686130943,0.00395869272813768
6386.318167560232,0.032977256092993366,0.004049245347738716
6386.319167332155,0.03487555802491946,0.0041414522175107805
6386.320167104078,0.036702833068152245,0.004235227016997642
6386.3211668760005,0.038442124023813966,0.004330462588325517
6386.322166647923,0.04007646314218934,0.004427022173607212
6386.323166419846,0.041589112089988806,0.004524730714477427
6386.324166191768,0.04296382532452527,0.004623366371092308
6386.325165963692,0.04418513276726548,0.0047226524176230186
6386.326165735614,0.04523863561700954,0.004822249734229863
6386.327165507537,0.04611130696946093,0.004921750240402965
6386.328165279459,0.04679178683544848,0.005020671731304207
6386.329165051382,0.04727065964741066,0.005118454599971157
6386.3301648233055,0.047540702101098356,0.005214460829946726
6386.331164595228,0.04759709059119479,0.005307975480256433
6386.332164367151,0.04743756010615154,0.00539821073582
6386.333164139073,0.04706250909840675,0.005484312507470528
6386.334163910996,0.046475046645108535,0.005565369540516807
6386.335163682919,0.04568097930973276,0.0056404250038428454
6386.336163454842,0.04468873644414506,0.005708490542165595
6386.3371632267645,0.04350923494219037,0.005768562751934559
6386.338162998687,0.042155687483786126,0.00581964198707062
6386.33916277061,0.04064336124051079,0.005860753321675289
6386.340162542532,0.03898929600122905,0.005890969379140941
6386.341162314456,0.037211991402238395,0.005909434571099003
6386.342162086378,0.035331072745806734,0.00591539009762248
6386.343161858301,0.03336694440087496,0.005908198871702622
6386.344161630223,0.03134043940470013,0.005887369356806074
6386.345161402146,0.029272473589779753,0.005852577158757941
6386.3461611740695,0.027183712101428864,0.005803683142320255
6386.347160945992,0.025094255394779275,0.005740746929545551
6386.348160717915,0.02302335074657743,0.005664034926111785
6386.349160489837,0.02098913414192648,0.005574022449289525
6386.35016026176,0.0190084062352654,0.005471389945138742
6386.351160033683,0.01709644498173013,0.005357013571679838
6386.352159805606,0.015266856468846462,0.0052319506070463324
6386.3531595775285,0.013531464443945705,0.005097420295060619
6386.354159349451,0.011900238072846342,0.004954780888963618
6386.355159121374,0.010381256633485957,0.004805503765885977
6386.356158893297,0.008980709163887041,0.004651145535791822
6386.35715866522,0.007702926531756714,0.004493319056917728
6386.358158437142,0.006550442953971884,0.004333664205070538
6386.359158209065,0.005524083664646226,0.004173819147243846
6386.360157980987,0.004623075200354421,0.0040153927642153356
6386.36115775291,0.003845174604512443,0.0038599387707327765
6386.3621575248335,0.003186813716577055,0.003708932006684887
6386.363157296756,0.0026432546062294315,0.003563747310486848
6386.364157068679,0.0022087521651450136,0.003425641311677221
6386.365156840601,0.0018767199154105033,0.003295737378071713
6386.366156612524,0.0016398952756468232,0.0031750138325586067
6386.367156384447,0.0014905008788062759,0.0030642954328203536
6386.36815615637,0.0014203990523691517,0.002964247997262498
6386.3691559282925,0.0014212371742884354,0.0028753759780383572
6386.370155700215,0.001484582185739537,0.0027980227422653076
6386.371155472138,0.0016020429961272624,0.002732373322807529
6386.372155244061,0.0017653798859775856,0.002678459419345989
6386.373155015984,0.0019666003947868406,0.0026361664477428104
6386.374154787906,0.002198041619475527,0.0026052424434565655
6386.375154559829,0.0024524392810284603,0.0025853086248763275
6386.376154331751,0.002722984232684422,0.0025758714134915574
6386.377154103674,0.0030033672359075407,0.002576335685496871
6386.3781538755975,0.003287812863972656,0.002586018999319096
6386.37915364752,0.0035711033786844505,0.002604166521913801
6386.380153419443,0.0038485934014831835,0.0026299663754696676
6386.381153191365,0.004116216161851944,0.0026625651422801317
6386.382152963288,0.004370482034952549,0.002701083286556437
6386.383152735211,0.0046084699752798304,0.0027446302686970304
6386.384152507134,0.004827812342516179,0.002792319138318616
6386.3851522790565,0.005026673552273125,0.0028432804031099618
6386.386152050979,0.005203723014253339,0.0028966749939773966
6386.387151822902,0.005358102939900095,0.002951706187089828
6386.388151594825,0.005489391764669837,0.0030076303812234728
6386.389151366748,0.005597564108614775,0.0030637666388567135
6386.39015113867,0.005682948391839275,0.0031195048773601177
6386.391150910593,0.0057461833996406055,0.0031743125644012947
6386.392150682515,0.005788175194454317,0.003227739768096842
6386.393150454438,0.005810055765607806,0.0032794224681539207
6386.3941502263615,0.005813144712325415,0.0033290841360217914
6386.395149998284,0.00579891509746337,0.0033765356860229073
6386.396149770207,0.005768964396304113,0.003421673945155444
6386.397149542129,0.005724991204087612,0.003464478789482111
6386.398149314052,0.005668778079956539,0.0035050090658111715
6386.399149085975,0.005602180618709131,0.003543397362221368
6386.400148857898,0.0055271225805080815,0.0035798436134072916
6386.40114862982,0.005445596700106132,0.0036146074467204047
6386.402148401743,0.005359670647063,0.0036479991295441877
6386.403148173666,0.005271497479698497,0.003680369008515029
6386.404147945589,0.00518332978010442,0.0037120954461757508
6386.405147717512,0.00509753646982642,0.0037435714186606545
6386.406147489434,0.00501662112749533,0.0037751900719513697
6386.407147261357,0.004943240507974372,0.003807329616149222
6386.408147033279,0.004880221915982466,0.003840338001031956
6386.409146805202,0.004830578105495156,0.003874517894339819
6386.4101465771255,0.004797518443514987,0.003910112546629815
6386.411146349048,0.0047844551898000446,0.003947293119358414
6386.412146120971,0.00479500390085749,0.003986147970574322
6386.413145892893,0.004832977136910336,0.004026674275022955
6386.414145664816,0.004902370780606621,0.004068772237833378
6386.415145436739,0.005007342326078563,0.004112242056573913
6386.416145208662,0.005152180459260695,0.004156783701647444
6386.417144980584,0.005341265153190509,0.004201999523607604
6386.418144752507,0.005579017435606928,0.00424739965000587
6386.41914452443,0.005869838107018076,0.004292410087425432
6386.420144296353,0.0062180351188993056,0.004336383388184885
6386.421144068276,0.006627740025952981,0.004378611678583994
6386.422143840198,0.0071028147268183215,0.004418341778938172
6386.423143612121,0.007646750429441589,0.004454792076066429
6386.424143384043,0.008262561301007134,0.004487170741219482
6386.425143155967,0.00895267550822014,0.004514694829192561
6386.4261429278895,0.009718826341486278,0.004536609768995651
6386.427142699812,0.010561946003908295,0.004552208797050969
6386.428142471735,0.011482064612265917,0.004560851995471775
6386.429142243657,0.012478217056402896,0.004561984724666742
6386.43014201558,0.013548360516561522,0.0045551553016111345
6386.431141787503,0.01468930553653266,0.0045400317322132
6386.432141559426,0.015896663548992756,0.004516417182868262
6386.433141331348,0.017164813671375147,0.004484263741858562
6386.434141103271,0.01848689145362549,0.004443683937827787
6386.435140875194,0.019854802016597877,0.0043949594658237
6386.436140647117,0.021259259598179654,0.004338546607987331
6386.43714041904,0.022689854905599535,0.004275077913196308
6386.438140190962,0.024135150908884656,0.004205359801083521
6386.439139962885,0.025582806858211238,0.004130365865701337
6386.440139734807,0.02701972937612679,0.004051225778731516
6386.441139506731,0.028432248459012387,0.003969209833707256
6386.4421392786535,0.029806315164451327,0.0038857093032983216
6386.443139050576,0.03112771674433852,0.0038022128862916656
6386.444138822499,0.03238230406865265,0.003720279638009282
6386.445138594421,0.033556225454776885,0.0036415089508310657
6386.446138366344,0.03463616067559409,0.0035675083538055474
6386.447138138267,0.0356095491532845,0.003499860048058963
6386.44813791019,0.036464807003047654,0.003440087132526331
6386.449137682112,0.03719152823641682,0.0033896204225787965
6386.450137454035,0.037780665873976396,0.003349766679931445
6386.451137225958,0.03822468922093962,0.003321678995348947
6386.452136997881,0.03851771440461053,0.0033063300008089125
6386.453136769804,0.038655606311959925,0.0033044885176929206
6386.454136541726,0.03863605087820748,0.0033167001569205817
6386.455136313649,0.03845859703821524,0.0033432722781314393
6386.456136085571,0.03812466777194567,0.0033842636029986785
6386.457135857495,0.03763753997877544,0.0034394786767662625
6386.4581356294175,0.0370022935949284,0.003508467288158448
6386.45913540134,0.03622573120670641,0.003590528887068025
6386.460135173263,0.035316270036806666,0.003684721971881486
6386.461134945185,0.034283808429477744,0.003789878344442772
6386.462134717108,0.03313956904989404,0.003904622047592388
6386.463134489031,0.031895921364558696,0.0040273927114528145
6386.464134260954,0.030566186786979276,0.004156472938801598
6386.465134032876,0.029164430911500026,0.004290019243056433
6386.466133804799,0.027705248021718306,0.004426095902691049
6386.467133576722,0.026203543173189254,0.004562710927844495
6386.468133348645,0.024674316590991324,0.0046978531920231935
6386.469133120568,0.023132454200815947,0.004829529709576104
6386.47013289249,0.021592527228008578,0.004955802059512379
6386.471132664413,0.020068603188873747,0.005074821068291745
6386.472132436335,0.018574070279052463,0.005184859052417143
6386.473132208259,0.017121477041393534,0.005284339133055311
6386.4741319801815,0.015722389168010456,0.005371861280249023
6386.475131752104,0.014387265261160857,0.005446224760600037
6386.476131524027,0.013125353241650236,0.005506446567626945
6386.477131295949,0.011944608775879344,0.005551775289075878
6386.478131067872,0.010851636597131956,0.005581699807642907
6386.479130839795,0.009851655001725761,0.005595952324723023
6386.480130611718,0.008948483200856252,0.005594505473401423
6386.48113038364,0.008144550663744362,0.005577563687971606
6386.482130155563,0.00744092711154178,0.005545549388962031
6386.483129927486,0.006837371408423173,0.00549908480337931
6386.484129699409,0.006332397255018584,0.005438970343850559
6386.485129471332,0.005923353354246991,0.005366160480178814
6386.486129243254,0.00560651562837206,0.005281738014901305
6386.487129015177,0.005377189137310253,0.005186887624800311
6386.488128787099,0.005229817568842363,0.005082869433546969
6386.489128559023,0.005158098479797853,0.004970993247661227
6386.4901283309455,0.005155102757493074,0.004852593953892758
6386.491128102868,0.005213396939220024,0.004729008465602339
6386.492127874791,0.005325167039946308,0.004601554526121636
6386.493127646713,0.005482342458087034,0.004471511628368056
6386.494127418637,0.005676718450606138,0.0043401042803065375
6386.495127190559,0.005900075610568977,0.004208487811785624
6386.496126962482,0.006144294688562229,0.004077736869993802
6386.497126734404,0.006401464970063501,0.003948836699718733
6386.498126506327,0.006663984383550963,0.0038226772511549445
6386.49912627825,0.006924649756855298,0.0037000500778007627
6386.500126050173,0.007176736217680071,0.003581647863243778
6386.501125822096,0.007414065457842078,0.003468066264232177
6386.502125594018,0.007631063145045884,0.0033598076212564398
6386.503125365941,0.007822806023560057,0.0032572860247071195
6386.504125137863,0.00798505930611591,0.0031608332763644457
6386.505124909787,0.008114305021535555,0.003070705426972218
6386.5061246817095,0.008207762120686754,0.00298708970940196
6386.507124453632,0.00826339927875585,0.002910111746399004
6386.508124225555,0.00827994135917758,0.002839842892254816
6386.509123997477,0.008256870398844337,0.0027763075226762794
6386.510123769401,0.008194421775674521,0.0027194900636860293
6386.511123541323,0.008093575968719922,0.0026693415579497606
6386.512123313246,0.007956046037738595,0.0026257855893545585
6386.513123085168,0.0077842606424370075,0.002588723413923614
6386.514122857091,0.007581342104634566,0.0025580381849024483
6386.515122629014,0.007351078736552349,0.002533598215283491
6386.516122400937,0.00709789050703934,0.0025152592719233677
6386.51712217286,0.006826787183525346,0.002502865920761325
6386.518121944782,0.006543318371467516,0.0024962519526682
6386.519121716705,0.006253515247907867,0.00249523994113634
6386.520121488627,0.005963824082720786,0.002499640024754689
6386.521121260551,0.005681031804784391,0.0025092480555234764
6386.5221210324735,0.00541218399814841,0.0025238432910313266
6386.523120804396,0.005164495922159074,0.002543185827736274
6386.524120576319,0.004945257437904806,0.0025670139832800493
6386.525120348241,0.004761732983214959,0.0025950418488685798
6386.526120120165,0.004621057868857469,0.0026269572411807287
6386.527119892087,0.004530132157377722,0.0026624202684289327
6386.52811966401,0.004495513307889016,0.002701062683566815
6386.529119435932,0.004523308727425908,0.002742488146296373
6386.530119207855,0.004619069418479302,0.002786273467282105
6386.531118979778,0.004787686030070784,0.0028319708569827665
6386.532118751701,0.005033288741536465,0.002879111143087287
6386.533118523624,0.00535915248845543,0.0029272078705640417
6386.534118295546,0.005767609072156902,0.002975762175955811
6386.535118067469,0.006259967692796229,0.003024268324856826
6386.536117839391,0.006836445437469616,0.0030722197895850117
6386.537117611315,0.007496109283757812,0.0031191157099080234
6386.5381173832375,0.008236831287882444,0.003164467541135994
6386.53911715516,0.00905525879807398,0.003207805677832719
6386.540116927083,0.009946801670499918,0.003248685858915105
6386.541116699005,0.01090563845210258,0.003286695201170959
6386.542116470929,0.011924743279761651,0.0033214577518245266
6386.543116242851,0.012995934862407391,0.0033526394793331866
6386.544116014774,0.01410994844522185,0.003379952636291682
6386.545115786696,0.015256531176286824,0.0034031594434458918
6386.546115558619,0.01642456082507812,0.0034220750597598122
6386.547115330542,0.01760218729910855,0.0034365698000041467
6386.548115102465,0.01877699581044572,0.003446570529591565
6386.549114874388,0.01993618982653582,0.003452061132518473
6386.55011464631,0.02106679110746241,0.0034530819528291513
6386.551114418233,0.022155853213616804,0.003449728167677917
6386.552114190155,0.023190683910289736,0.003442147134941788
6386.553113962079,0.024159070978077023,0.0034305348315364966
6386.5541137340015,0.025049505178523106,0.0034151315426761905
6386.555113505924,0.025851393673741094,0.003396216978673597
6386.556113277847,0.026555257223095655,0.0033741049826111224
6386.557113049769,0.027152905069664647,0.003349137946825092
6386.558112821693,0.027637582422954166,0.0033216809935330367
6386.559112593615,0.028004086451988545,0.003292115922004531
6386.560112365538,0.028248847512969653,0.0032608348964735037
6386.56111213746,0.028369973213448845,0.0032282338472519882
6386.562111909383,0.028367254276419104,0.0031947055916016413
6386.563111681306,0.028242133046690456,0.0031606327616551665
6386.564111453229,0.02799763744855026,0.0031263807323588504
6386.565111225152,0.02763828468291953,0.0030922908205004616
6386.566110997074,0.027169959588263917,0.0030586740387011685
6386.567110768997,0.026599772473206783,0.0030258056412057277
6386.568110540919,0.025935900808394318,0.002993920626692711
6386.569110312843,0.02518741884946057,0.002963210301316897
6386.5701100847655,0.024364119136257738,0.0029338199618333077
6386.571109856688,0.023476329752722715,0.002905847723406528
6386.572109628611,0.022534731151572653,0.0028793444833746557
6386.573109400533,0.021550176231507942,0.002854314981169809
6386.574109172457,0.020533517159105424,0.0028307198829519292
6386.575108944379,0.019495442097362023,0.0028084787912921842
6386.576108716302,0.018446324543540667,0.0027874740695221804
6386.577108488224,0.017396087435285996,0.0027675553761418994
6386.578108260147,0.016354083574540077,0.002748544805756352
6386.579108032071,0.015328993268562269,0.002730242523479497
6386.580107803993,0.014328739484545883,0.002712432781389686
6386.581107575916,0.013360420353393087,0.0026948902290993867
6386.582107347838,0.01243025856237508,0.002677386452446162
6386.583107119761,0.011543567028477477,0.0026596966693672322
6386.584106891683,0.01070473023040822,0.002641606484229186
6386.585106663607,0.009917200653636282,0.00262291857200358
6386.5861064355295,0.009183509874383844,0.0026034591422969436
6386.587106207452,0.008505293777975521,0.002583084013983456
6386.588105979375,0.007883331235493549,0.002561684105256024
6386.589105751297,0.007317595290009165,0.0025391901202191708
6386.590105523221,0.006807315609212881,0.0025155762167879754
6386.591105295143,0.006351050697847596,0.0024908624860781672
6386.592105067066,0.005946768146485677,0.002465116151801495
6386.593104838988,0.005591931044355978,0.0024384514931253187
6386.594104610911,0.005283588628339944,0.00241102858906859
6386.5951043828345,0.005018469260159126,0.002383051050041215
6386.596104154757,0.004793073869681408,0.0023547629185217875
6386.59710392668,0.004603768054620701,0.0023264448906464104
6386.598103698602,0.004446871111611884,0.0022984099615026097
6386.599103470525,0.004318740429014114,0.00227099855307253
6386.600103242447,0.004215849914289941,0.002244573154869726
6386.601103014371,0.004134861419221285,0.0022195124932382917
6386.6021027862935,0.004072688369619772,0.0021962052431074505
6386.603102558216,0.004026550931981856,0.002175043315716304
6386.604102330139,0.003994022093487927,0.0021564148159531546
6386.605102102061,0.003973064104020286,0.002140696850621545
6386.606101873985,0.003962054909506749,0.002128248432822351
6386.607101645907,0.003959804493852117,0.0021194037336299968
6386.60810141783,0.003965561384974828,0.002114465895461653
6386.609101189752,0.003979009895262554,0.002113701571611534
6386.610100961675,0.0040002588935750755,0.0021173363042791293
6386.611100733599,0.004029823014136427,0.002125550798470973
6386.612100505521,0.004068597217634181,0.0021384780914737735
6386.613100277444,0.004117825585830852,0.0021562015559037436
6386.614100049366,0.004179065196473609,0.002178753610516997
6386.615099821289,0.004254145897035445,0.0022061149681894075
6386.616099593211,0.0043451267567789775,0.0022382142595405072
6386.617099365135,0.004454249916985946,0.002274927939691308
6386.6180991370575,0.0045838924974740194,0.002316080469693273
6386.61909890898,0.004736517179002487,0.0023614448149865707
6386.620098680903,0.004914622048223935,0.0024107433240395677
6386.621098452825,0.005120690211853179,0.0024636490723000696
6386.622098224749,0.005357139547625618,0.002519787782505112
6386.623097996671,0.005626272817754554,0.0025787404412605116
6386.624097768594,0.0059302282830968256,0.002640046720977094
6386.625097540516,0.0062709309148309186,0.002703209300733885
6386.626097312439,0.00665004425020575,0.00276769915976025
6386.6270970843625,0.007068922859563483,0.0028329618767077795
6386.628096856285,0.007528565360263143,0.0028984249026793203
6386.629096628208,0.008029568053550673,0.002963505706920995
6386.63009640013,0.008572079594764428,0.0030276206437768118
6386.631096172053,0.009155757505445752,0.00309019435536231
6386.632095943976,0.009779727668910535,0.003150669487267525
6386.633095715899,0.010442548216424983,0.0032085164482472802
6386.6340954878215,0.011142179447134838,0.0032632429000484485
6386.635095259744,0.011875961590752823,0.0033144026321568305
6386.636095031667,0.012640602234586245,0.0033616034719419403
6386.637094803589,0.013432175056319216,0.003404513919436423
6386.638094575513,0.014246131146139753,0.00344286827505778
6386.639094347435,0.01507732371577495,0.0034764701212366246
6386.640094119358,0.015920046456552643,0.0035051941012460707
6386.64109389128,0.016768085309338786,0.003528986004956005
6386.642093663203,0.017614782997571868,0.0035478612246922867
6386.643093435127,0.018453115349694377,0.0035619016871948493
6386.644093207049,0.019275778151980727,0.0035712514027837813
6386.645092978972,0.020075282959711494,0.0035761108062325395
6386.646092750894,0.020844059931613645,0.0035767300983342077
6386.647092522817,0.021574565410737812,0.0035734018223197773
6386.64809229474,0.022259391764517546,0.003566452906068642
6386.649092066663,0.022891376978318678,0.003556236365719063
6386.6500918385855,0.02346371166293569,0.003543122827982857
6386.651091610508,0.023970041419939404,0.0035274920255821095
6386.652091382431,0.02440456280418537,0.003509724454033214
6386.653091154353,0.024762111363278674,0.003490193408472475
6386.654090926277,0.025038240417894993,0.003469257609878492
6386.655090698199,0.0252292893660912,0.0034472545837995745
6386.656090470122,0.025332440337514698,0.0034244949084285335
6386.657090242044,0.0253457620713744,0.003401257434629642
6386.658090013967,0.02526824008406084,0.003377785588226841
6386.6590897858905,0.02509979257398319,0.0033542848552042645
6386.660089557813,0.024841272017259688,0.0033309215045114536
6386.661089329736,0.02449445296465105,0.0033078225401464226
6386.662089101658,0.024062007081479472,0.003285076825182643
6386.663088873581,0.023547466828750335,0.003262737302335474
6386.664088645504,0.022955179186779615,0.003240824242102636
6386.665088417427,0.022290250418388297,0.0032193294504343625
6386.6660881893495,0.0215584822235335,0.0031982213296239117
6386.667087961272,0.020766299110764486,0.0031774506076848925
6386.668087733195,0.019920666809418525,0.003156956472513697
6386.669087505117,0.01902900224926289,0.0031366728093860114
6386.670087277041,0.018099076770833406,0.003116534248816231
6386.671087048963,0.017138915222466293,0.0030964817610458118
6386.672086820886,0.01615669401555821,0.003076467565786272
6386.673086592808,0.01516064103609171,0.003056459169346858
6386.674086364731,0.014158939811162376,0.0030364424081765437
6386.675086136655,0.0131596397431406,0.0030164234648774563
6386.676085908577,0.012170573649724868,0.002996429917702281
6386.6770856805,0.011199283319063677,0.0029765109706729968
6386.678085452422,0.010252953358968427,0.0029567370628534573
6386.679085224345,0.009338353357415957,0.0029371990531074097
6386.680084996268,0.008461788292566956,0.002918007133253837
6386.681084768191,0.0076290571464796356,0.0028992895713468763
6386.6820845401135,0.006845419654012117,0.0028811913499392403
6386.683084312036,0.006115570983136769,0.0028638727447502237
6386.684084083959,0.0054436239128032825,0.002847507887244283
6386.685083855881,0.004833097821209302,0.002832283367431519
6386.686083627805,0.004286913606296077,0.002818396942208863
6386.687083399727,0.0038073935918955725,0.0028060563972866714
6386.68808317165,0.0033962655253424825,0.0027954785672961373
6386.689082943572,0.0030546698915331944,0.002786888468168097
6386.690082715495,0.002783169909253492,0.0027805184492224015
6386.6910824874185,0.0025817637316593598,0.00277660723010769
6386.692082259341,0.00244989853397588,0.0027753986608081388
6386.693082031264,0.0023864862964556185,0.002777140047832136
6386.694081803186,0.0023899211507566447,0.0027820799231887197
6386.695081575109,0.0024580981751595775,0.002790465177235249
6386.696081347032,0.0025884335477115283,0.002802537526781368
6386.697081118955,0.0027778860284472994,0.0028185293569500916
6386.6980808908775,0.003022979832292088,0.0028386590638137415
6386.6990806628,0.003319829039102872,0.0028631261122240995
6386.700080434723,0.0036641637598164374,0.002892106068920795
6386.701080206645,0.0040513583663341875,0.0029257458512052864
6386.702079978569,0.0044764622041150795,0.0029641593625257573
6386.703079750491,0.004934233300400615,0.00300742361630525
6386.704079522414,0.005419175617473104,0.003055575424191444
6386.705079294336,0.0059255803720021935,0.003108608746353679
6386.706079066259,0.006447571853549231,0.0031664728217732025
6386.707078838183,0.0069791580314543565,0.0032290711682105735
6386.708078610105,0.007514286064132199,0.003296261462882568
6386.709078382028,0.008046902665437493,0.0033678562189987586
6386.71007815395,0.008571019157629074,0.003443624091167115
6386.711077925873,0.009080780911922671,0.003523291589491851
6386.712077697796,0.009570540707613344,0.003606544969213401
6386.713077469719,0.010034935336251445,0.003693032101517176
6386.7140772416415,0.010468964548798776,0.003782364215475992
6386.715077013564,0.010868071172859388,0.0038741174981199826
6386.716076785487,0.011228220911015389,0.003967834617496784
6386.71707655741,0.01154597999915061,0.004063026289875524
6386.718076329333,0.01181858856427792,0.004159173057096169
6386.719076101255,0.012044027149895463,0.004255727460749513
6386.720075873178,0.012221073474724545,0.00435211676540803
6386.7210756451,0.012349346151644828,0.004447746287805055
6386.722075417023,0.012429332040011227,0.004542003276594397
6386.7230751889465,0.012462394409582401,0.00463426122310055
6386.724074960869,0.01245076021725853,0.004723884502826223
6386.725074732792,0.01239748619293577,0.004810233331108724
6386.726074504714,0.012306404599481086,0.004892669105515595
6386.727074276637,0.012182050296010162,0.004970560247896831
6386.72807404856,0.01202957130280029,0.005043288636673
6386.729073820483,0.011854625645782803,0.00511025665593891
6386.7300735924055,0.011663267781958196,0.005170894803603615
6386.731073364328,0.011461828174030499,0.005224669699980806
6386.732073136251,0.011256789503907079,0.005271092221633208
6386.733072908174,0.011054662666897514,0.005309725377744812
6386.734072680097,0.010861865214055997,0.005340191501742674
6386.735072452019,0.010684604433199822,0.005362178384239271
6386.736072223942,0.010528766876962893,0.005375444088029331
6386.737071995864,0.010399815923091502,0.005379820288770044
6386.738071767787,0.01030269886567588,0.0053752140627975125
6386.739071539711,0.010241764961314574,0.0053616081552167825
6386.740071311633,0.01022069566303491,0.00533905992845758
6386.741071083556,0.010242447950390048,0.005307699330810391
6386.742070855478,0.010309211286259857,0.005267726238644074
6386.743070627401,0.010422378368496273,0.005219407415612899
6386.744070399324,0.0105825295162915,0.005163073176141783
6386.745070171247,0.010789430260553906,0.0050991137106193955
6386.7460699431695,0.011042041547282753,0.005027974961105852
6386.747069715092,0.011338541936994349,0.004950153941867966
6386.748069487015,0.011676361245298637,0.004866193466639831
6386.749069258938,0.012052225134274121,0.004776676328034279
6386.750069030861,0.012462210157185937,0.004682219025358127
6386.751068802783,0.01290180865603624,0.004583465156144629
6386.752068574706,0.013366002753721205,0.004481078615437656
6386.753068346628,0.013849346527026374,0.004375736796544093
6386.754068118551,0.014346055295589858,0.004268124015512304
6386.7550678904745,0.014850100773232205,0.004158925351107117
6386.756067662397,0.01535531057472127,0.004048821013956348
6386.75706743432,0.01585547027214033,0.003938481274234699
6386.758067206242,0.016344425918810048,0.003828561916292735
6386.759066978165,0.01681618477994868,0.00371970015190982
6386.760066750088,0.017265011924128278,0.003612510901149941
6386.761066522011,0.017685520268641012,0.0035075833435012
6386.7620662939335,0.018072751659017505,0.0034054776649507217
6386.763066065856,0.01842224678652199,0.003306721982844712
6386.764065837779,0.018730102371547395,0.0032118095039564724
6386.765065609702,0.01899301497351163,0.003121196030406342
6386.766065381625,0.019208311702279737,0.003035297941551107
6386.767065153547,0.01937396866532427,0.0029544907396586075
6386.76806492547,0.019488618036912764,0.0028791081777944645
6386.769064697392,0.019551544289910117,0.0028094419261130692
6386.770064469315,0.019562669712764623,0.0027457416947108825
6386.771064241239,0.01952252921132011,0.002688215711968302
6386.772064013161,0.01943223475188864,0.0026370314471218506
6386.773063785084,0.01929343051391522,0.002592316458215831
6386.774063557006,0.01910824052954713,0.002554159241173692
6386.775063328929,0.018879210955160625,0.0025226099678564763
6386.776063100852,0.01860924905157446,0.0024976810516738157
6386.777062872775,0.01830156057266594,0.0024793475616682586
6386.7780626446975,0.017959586748382675,0.0024675475791222107
6386.77906241662,0.01758694155260474,0.0024621826182358356
6386.780062188543,0.017187349653561772,0.0024631182121033434
6386.781061960466,0.016764585501984054,0.0024701847173235103
6386.782061732389,0.016322414381734915,0.0024831783334411696
6386.783061504311,0.015864536698212913,0.0025018622789630537
6386.784061276234,0.015394537041223011,0.002525968028567962
6386.785061048156,0.014915839481510946,0.002555196507667285
6386.78606082008,0.014431670176477946,0.002589219151951362
