Time,Filtered_ECG
6668.895369220202,0.005718111884280364
6668.896368992418,0.005794265584745315
6668.897368764632,0.005868756700803335
6668.898368536848,0.005941553320767509
6668.899368309063,0.006012623826893337
6668.900368081278,0.006081936909433946
6668.901367853494,0.006149461580680216
6668.902367625709,0.006215167188976755
6668.903367397924,0.006279023432704409
6668.904367170139,0.006341000374219798
6668.905366942355,0.0064010684537423295
6668.90636671457,0.006459198503179256
6668.907366486786,0.006515361759879534
6668.908366259,0.006569529880307584
6668.909366031216,0.006621674953628415
6668.910365803431,0.006671769515195954
6668.911365575646,0.006719786559936804
6668.912365347862,0.006765699555622042
6668.913365120077,0.006809482456020001
6668.914364892292,0.006851109713923331
6668.915364664507,0.00689055629404401
6668.916364436723,0.006927797685770252
6668.917364208938,0.006962809915779506
6668.918363981154,0.006995569560501886
6668.919363753368,0.007026053758428309
6668.920363525584,0.0070542402222575785
6668.921363297799,0.007080107250876428
6668.922363070014,0.007103633741166372
6668.92336284223,0.007124799199631162
6668.924362614444,0.00714358375383863
6668.92536238666,0.00715996816367091
6668.926362158875,0.007173933832377319
6668.927361931091,0.007185462817424639
6668.928361703306,0.007194537841140072
6668.929361475521,0.007201142301142687
6668.930361247736,0.0072052602805597245
6668.931361019952,0.007206876558024603
6668.932360792167,0.007205976617453906
6668.933360564382,0.007202546657600947
6668.934360336598,0.007196573601383845
6668.935360108812,0.007188045104986225
6668.936359881028,0.007176949566728915
6668.937359653243,0.007163276135711021
6668.938359425459,0.007147014720218802
6668.939359197674,0.007128155995900569
6668.940358969889,0.007106691413705607
6668.941358742104,0.007082613207584737
6668.94235851432,0.007055914401949772
6668.943358286535,0.007026588818888761
6668.94435805875,0.006994631085133638
6668.945357830966,0.006960036638776691
6668.94635760318,0.006922801735732232
6668.947357375396,0.006882923455939905
6668.948357147611,0.006840399709306223
6668.949356919827,0.006795229241381169
6668.950356692042,0.006747411638766854
6668.951356464257,0.006696947334255456
6668.952356236472,0.006643837611693772
6668.953356008688,0.006588084610571841
6668.954355780903,0.006529691330333167
6668.955355553118,0.006468661634404149
6668.956355325334,0.006405000253940358
6668.957355097548,0.006338712791287339
6668.958354869764,0.006269805723153493
6668.959354641979,0.006198286403492504
6668.960354414195,0.006124163066092502
6668.96135418641,0.006047444826868917
6668.962353958625,0.005968141685857792
6668.96335373084,0.005886264528906174
6668.964353503056,0.005801825129056193
6668.965353275271,0.005714836147619603
6668.966353047486,0.0056253111349398414
6668.967352819702,0.005533264530839114
6668.968352591916,0.005438711664748548
6668.969352364132,0.005341668755520042
6668.970352136347,0.005242152910919123
6668.971351908563,0.005140182126798726
6668.972351680778,0.005035775285954509
6668.973351452993,0.004928952156662821
6668.974351225208,0.004819733390903112
6668.975350997423,0.004708140522267113
6668.976350769639,0.0045941959635576535
6668.977350541854,0.004477923004080434
6668.97835031407,0.004359345806632356
6668.979350086284,0.004238489404190164
6668.9803498585,0.004115379696303103
6668.981349630715,0.003990043445193155
6668.982349402931,0.003862508271566134
6668.983349175146,0.0037328026501366254
6668.984348947361,0.0036009559048695242
6668.985348719576,0.003466998203940741
6668.986348491791,0.003330960554419656
6668.987348264007,0.0031928747966760173
6668.988348036222,0.003052773598514221
6668.989347808437,0.002910690449038279
6668.990347580652,0.0027666596522511687
6668.991347352868,0.0026207163203927205
6668.992347125083,0.0024728963670205863
6668.993346897299,0.0023232364998391716
6668.994346669513,0.002171774213281637
6668.9953464417285,0.0020185477808501644
6668.996346213944,0.0018635962472196667
6668.997345986159,0.0017069594201099758
6668.998345758375,0.0015486778619312528
6668.99934553059,0.0013887928812069622
6669.000345302805,0.0012273465237782333
6669.00134507502,0.0010643815637928536
6669.002344847236,0.0008999414944815256
6669.003344619451,0.0007340705187234326
6669.004344391667,0.0005668135394026925
6669.005344163881,0.00039821614955690913
6669.0063439360965,0.00022832462231878195
6669.007343708312,5.718590065158782e-05
6669.008343480527,-0.00011515241312073765
6669.009343252743,-0.00028864206798821096
6669.010343024958,-0.000463234175133367
6669.011342797173,-0.0006388792190129664
6669.012342569388,-0.0008155270686419021
6669.013342341604,-0.000993126989078197
6669.014342113819,-0.001171627653107778
6669.015341886035,-0.0013509771531275041
6669.016341658249,-0.0015311230132247404
6669.0173414304645,-0.0017120122014516535
6669.01834120268,-0.0018935911422923663
6669.019340974895,-0.0020758057293211764
6669.020340747111,-0.0022586013380501914
6669.021340519326,-0.002441922838964931
6669.022340291541,-0.002625714610746646
6669.023340063756,-0.0028099205536802844
6669.024339835972,-0.0029944841032471187
6669.025339608187,-0.0031793482439010485
6669.0263393804025,-0.0033644555230274474
6669.027339152617,-0.0035497480650831773
6669.0283389248325,-0.0037351675859160524
6669.029338697048,-0.003920655407261623
6669.030338469263,-0.004106152471414716
6669.031338241479,-0.004291599356072783
6669.032338013694,-0.004476936289347754
6669.033337785909,-0.0046621031649428215
6669.034337558124,-0.004847039557490361
6669.03533733034,-0.0050316847380470564
6669.036337102555,-0.005215977689742272
6669.0373368747705,-0.005399857123575819
6669.038336646985,-0.005583261494361458
6669.0393364192005,-0.005766129016812889
6669.040336191416,-0.005948397681769423
6669.041335963631,-0.006130005272558983
6669.042335735847,-0.00631088938149658
6669.043335508062,-0.006490987426516785
6669.044335280277,-0.0066702366679389355
6669.045335052492,-0.006848574225363923
6669.046334824708,-0.007025937094701342
6669.047334596923,-0.007202262165325588
6669.0483343691385,-0.007377486237359278
6669.049334141353,-0.007551546039082046
6669.0503339135685,-0.007724378244462512
6669.051333685784,-0.007895919490810985
6669.052333457999,-0.008066106396550256
6669.053333230215,-0.008234875579101679
6669.054333002429,-0.008402163672883578
6669.055332774645,-0.008567907347418913
6669.05633254686,-0.008732043325549083
6669.057332319076,-0.008894508401750741
6669.058332091291,-0.009055239460552651
6669.059331863506,-0.009214173495049901
6669.060331635721,-0.009371247625513121
6669.061331407936,-0.009526399118090789
6669.062331180152,-0.009679565403603032
6669.063330952367,-0.009830684096425667
6669.064330724583,-0.009979693013463305
6669.065330496797,-0.010126530193210399
6669.066330269013,-0.010271133914898931
6669.067330041228,-0.010413442717731104
6669.068329813444,-0.010553395420194978
6669.069329585659,-0.01069093113946054
6669.070329357874,-0.010825989310853192
6669.071329130089,-0.010958509707401101
6669.072328902304,-0.011088432459452398
6669.07332867452,-0.011215698074357698
6669.074328446735,-0.011340247456213022
6669.075328218951,-0.011462021925657663
6669.076327991165,-0.011580963239721217
6669.077327763381,-0.011697013611713646
6669.078327535596,-0.011810115731152026
6669.079327307812,-0.01192021278371755
6669.080327080027,-0.012027248471236462
6669.081326852242,-0.012131167031678778
6669.082326624457,-0.012231913259168933
6669.083326396672,-0.012329432524002763
6669.084326168888,-0.012423670792665428
6669.085325941103,-0.01251457464784494
6669.086325713319,-0.012602091308435849
6669.087325485533,-0.01268616864952742
6669.088325257749,-0.012766755222370358
6669.089325029964,-0.012843800274315755
6669.09032480218,-0.012917253768719652
6669.091324574395,-0.012987066404806282
6669.0923243466095,-0.013053189637482894
6669.093324118825,-0.013115575697098812
6669.09432389104,-0.013174177609141252
6669.095323663256,-0.013228949213860386
6669.096323435471,-0.013279845185816085
6669.097323207687,-0.013326821053338852
6669.098322979901,-0.013369833217897796
6669.099322752117,-0.013408838973368755
6669.100322524332,-0.01344379652519625
6669.101322296548,-0.01347466500944351
6669.102322068763,-0.013501404511725374
6669.1033218409775,-0.013523976086019374
6669.104321613193,-0.013542341773350682
6669.105321385408,-0.013556464620346799
6669.106321157624,-0.01356630869765787
6669.107320929839,-0.013571839118238328
6669.108320702055,-0.013573022055485256
6669.109320474269,-0.01356982476122845
6669.110320246485,-0.013562215583566635
6669.1113200187,-0.013550163984543832
6669.112319790916,-0.013533640557659423
6669.113319563131,-0.013512617045204987
6669.1143193353455,-0.013487066355420668
6669.115319107561,-0.013456962579463477
6669.116318879776,-0.013422281008179675
6669.117318651992,-0.01338299814867332
6669.118318424207,-0.013339091740663046
6669.119318196422,-0.013290540772619215
6669.120317968637,-0.013237325497673917
6669.121317740853,-0.013179427449296465
6669.122317513068,-0.013116829456727345
6669.123317285284,-0.013049515660163716
6669.124317057498,-0.012977471525689661
6669.1253168297135,-0.012900683859944296
6669.126316601929,-0.012819140824520568
6669.127316374144,-0.012732831950087271
6669.12831614636,-0.012641748150226319
6669.129315918575,-0.01254588173497686
6669.13031569079,-0.012445226424077298
6669.131315463005,-0.012339777359895806
6669.132315235221,-0.012229531120039567
6669.133315007436,-0.012114485729632519
6669.134314779652,-0.011994640673251145
6669.135314551866,-0.011869996906507432
6669.1363143240815,-0.011740556867267925
6669.137314096297,-0.011606324486497585
6669.138313868512,-0.01146730519871699
6669.139313640728,-0.01132350595206157
6669.140313412943,-0.011174935217931628
6669.141313185158,-0.011021603000222247
6669.142312957373,-0.010863520844122473
6669.143312729589,-0.010700701844473533
6669.144312501804,-0.010533160653676111
6669.14531227402,-0.010360913489136911
6669.146312046234,-0.010183978140244942
6669.147311818449,-0.010002373974867992
6669.148311590665,-0.009816121945359774
6669.14931136288,-0.009625244594068237
6669.150311135096,-0.009429766058335492
6669.151310907311,-0.009229712074979808
6669.152310679526,-0.009025109984250166
6669.153310451741,-0.008815988733243863
6669.154310223957,-0.008602378878777836
6669.155309996172,-0.008384312589704486
6669.156309768388,-0.008161823648663044
6669.157309540602,-0.007934947453257851
6669.158309312817,-0.007703721016655447
6669.159309085033,-0.007468182967592945
6669.160308857248,-0.007228373549790992
6669.161308629464,-0.006984334620765451
6669.162308401679,-0.006736109650032774
6669.163308173894,-0.006483743716704799
6669.164307946109,-0.006227283506469342
6669.165307718325,-0.005966777307953356
6669.16630749054,-0.005702275008465705
6669.167307262756,-0.005433828089116737
6669.16830703497,-0.005161489619311859
6669.169306807185,-0.0048853142506163315
6669.170306579401,-0.004605358209988555
6669.171306351616,-0.004321679292379194
6669.172306123832,-0.004034336852693657
6669.173305896047,-0.003743391797115608
6669.174305668262,-0.003448906573789377
6669.175305440477,-0.0031509451628593623
6669.176305212693,-0.0028495730658647136
6669.177304984908,-0.0025448572944879065
6669.178304757123,-0.002236866358656209
6669.179304529338,-0.0019256702539955613
6669.180304301553,-0.001611340448637026
6669.181304073769,-0.001293949869376635
6669.182303845984,-0.0009735728871901006
6669.1833036182,-0.0006502853021044058
6669.184303390414,-0.00032416432742869055
6669.18530316263,4.711426652944462e-06
6669.186302934845,0.00033626197012404525
6669.187302707061,0.0006704059508112684
6669.188302479276,0.0010070606726903498
6669.1893022514905,0.0013461421148204772
6669.190302023706,0.0016875649509051932
6669.191301795921,0.0020312425694781304
6669.192301568137,0.002377087094711968
6669.193301340352,0.002725009407848995
6669.194301112568,0.0030749191692515925
6669.195300884782,0.0034267248410707993
6669.196300656998,0.003780333710530961
6669.197300429213,0.004135651913828188
6669.1983002014285,0.0044925844606399715
6669.199299973644,0.004851035259242836
6669.2002997458585,0.005210907142234283
6669.201299518074,0.0055721018928546265
6669.202299290289,0.005934520271903681
6669.203299062505,0.006298062045246711
6669.20429883472,0.00666262601190351
6669.205298606936,0.007028110032714199
6669.20629837915,0.007394411059575095
6669.207298151366,0.007761425165237903
6669.208297923581,0.008129047573665492
6669.2092976957965,0.00849717269093753
6669.210297468012,0.008865694136699333
6669.2112972402265,0.00923450477614736
6669.212297012442,0.009603496752544743
6669.213296784657,0.009972561520260258
6669.214296556873,0.010341589878324073
6669.215296329088,0.010710472004493583
6669.216296101304,0.011079097489822503
6669.217295873518,0.011447355373726265
6669.218295645734,0.011815134179536503
6669.219295417949,0.012182321950537135
6669.2202951901645,0.012548806286474003
6669.22129496238,0.012914474380529633
6669.2222947345945,0.013279213056753995
6669.22329450681,0.013642908807941752
6669.224294279025,0.014005447833945958
6669.225294051241,0.014366716080417912
6669.226293823456,0.014726599277962658
6669.227293595672,0.015084982981699553
6669.228293367886,0.015441752611217354
6669.229293140102,0.015796793490913355
6669.230292912317,0.01614999089070632
6669.2312926845325,0.016501230067113126
6669.232292456748,0.016850396304679275
6669.2332922289625,0.017197374957753697
6669.234292001178,0.017542051492598465
6669.235291773393,0.017884311529824358
6669.236291545609,0.018224040887143342
6669.237291317824,0.018561125622429054
6669.23829109004,0.018895452077076283
6669.239290862254,0.019226906919650174
6669.24029063447,0.0195553771898153
6669.241290406685,0.0198807503425343
6669.2422901789005,0.020202914292524993
6669.243289951116,0.02052175745896449
6669.24428972333,0.02083716881042812
6669.245289495546,0.021149037910050843
6669.246289267761,0.02145725496089841
6669.247289039977,0.02176171085153551
6669.248288812192,0.022062297201777957
6669.249288584407,0.0223589064086162
6669.250288356622,0.022651431692297063
6669.251288128838,0.022939767142550804
6669.252287901053,0.023223807764950134
6669.2532876732685,0.023503449527387397
6669.254287445483,0.023778589406655563
6669.255287217698,0.024049125435117703
6669.256286989914,0.024314956747448734
6669.257286762129,0.024575983627431755
6669.258286534345,0.024832107554789918
6669.25928630656,0.025083231252032774
6669.260286078775,0.025329258731294053
6669.26128585099,0.025570095341135343
6669.262285623206,0.025805647813287515
6669.263285395421,0.02603582430929896
6669.264285167636,0.02626053446705689
6669.265284939851,0.026479689447145047
6669.266284712066,0.026693201978998528
6669.267284484282,0.02690098640681356
6669.268284256497,0.02710295873516764
6669.269284028713,0.027299036674302765
6669.270283800928,0.027489139685022125
6669.271283573143,0.02767318902314804
6669.272283345358,0.027851107783486727
6669.273283117574,0.028022820943243088
6669.274282889789,0.02818825540482661
6669.275282662004,0.028347340037987622
6669.276282434219,0.0285000057212211
6669.277282206434,0.028646185382373766
6669.27828197865,0.028785814038388917
6669.279281750865,0.028918828834122088
6669.280281523081,0.029045169080160055
6669.281281295296,0.029164776289575253
6669.282281067511,0.029277594213547985
6669.283280839726,0.02938356887578944
6669.2842806119415,0.0294826486057
6669.285280384157,0.029574784070199197
6669.286280156372,0.02965992830416596
6669.287279928587,0.029738036739430606
6669.288279700802,0.02980906723226273
6669.289279473018,0.029872980089302403
6669.290279245233,0.029929738091885386
6669.291279017449,0.029979306518716973
6669.292278789664,0.03002165316685287
6669.293278561879,0.030056748370950244
6669.294278334094,0.030084565020756574
6669.2952781063095,0.03010507857680883
6669.296277878525,0.030118267084320336
6669.29727765074,0.0301241111852376
6669.298277422955,0.030122594128453844
6669.29927719517,0.03011370177817044
6669.300276967386,0.030097422620401746
6669.301276739601,0.030073747767622533
6669.302276511817,0.030042670961561352
6669.303276284032,0.030004188574146776
6669.304276056247,0.02995829960661759
6669.305275828462,0.029905005686811724
6669.3062756006775,0.029844311064652802
6669.307275372893,0.029776222605857168
6669.308275145108,0.029700749783888022
6669.309274917323,0.029617904670187
6669.310274689538,0.029527701922716622
6669.311274461754,0.029430158772850018
6669.312274233969,0.029325295010646766
6669.313274006185,0.029213132968555735
6669.314273778399,0.029093697503587777
6669.315273550615,0.02896701597800231
6669.31627332283,0.028833118238553165
6669.3172730950455,0.0286920365943396
6669.318272867261,0.028543805793308875
6669.319272639476,0.02838846299745682
6669.320272411691,0.028226047756772586
6669.321272183906,0.028056601981973243
6669.322271956122,0.027880169916073345
6669.323271728337,0.02769679810483383
6669.324271500553,0.027506535366133903
6669.325271272767,0.02730943275830904
6669.326271044983,0.027105543547497876
6669.327270817198,0.026894923174040387
6669.3282705894135,0.026677629217969564
6669.329270361629,0.026453721363638768
6669.330270133843,0.02622326136352678
6669.331269906059,0.025986313001262255
6669.332269678274,0.025742942053909278
6669.33326945049,0.025493216253555384
6669.334269222705,0.025237205248243123
6669.335268994921,0.024974980562285833
6669.336268767135,0.024706615556007845
6669.337268539351,0.024432185384948825
6669.338268311566,0.02415176695857118
6669.3392680837815,0.023865438898508482
6669.340267855997,0.02357328149639212
6669.341267628211,0.023275376671291984
6669.342267400427,0.022971807926806156
6669.343267172642,0.022662660307833336
6669.344266944858,0.022348020357061047
6669.345266717073,0.022027976071201827
6669.346266489289,0.021702616857009138
6669.347266261503,0.021372033487104387
6669.348266033719,0.02103631805564606
6669.349265805934,0.02069556393387183
6669.350265578149,0.020349865725544283
6669.351265350365,0.0199993192223306
6669.352265122579,0.01964402135914643
6669.353264894795,0.019284070169493694
6669.35426466701,0.018919564740821886
6669.355264439226,0.018550605169941885
6669.356264211441,0.01817729251852084
6669.357263983657,0.017799728768686008
6669.358263755871,0.01741801677876453
6669.359263528087,0.01703226023918507
6669.360263300302,0.016642563628566153
6669.361263072517,0.01624903217001478
6669.362262844733,0.015851771787657586
6669.363262616947,0.015450889063425568
6669.364262389163,0.015046491194112454
6669.365262161378,0.0146386859487258
6669.366261933594,0.014227581626149129
6669.367261705809,0.013813287013132978
6669.368261478025,0.0133959113426322
6669.369261250239,0.012975564252506606
6669.370261022455,0.012552355744601732
6669.37126079467,0.01212639614422627
6669.372260566885,0.011697796060042382
6669.373260339101,0.011266666344384843
6669.374260111315,0.010833118054024517
6669.375259883531,0.010397262411391248
6669.376259655746,0.009959210766270587
6669.377259427962,0.009519074557988026
6669.378259200177,0.009076965278093572
6669.379258972392,0.008632994433558293
6669.380258744607,0.008187273510493356
6669.381258516823,0.007739913938400705
6669.382258289038,0.007291027054963354
6669.383258061253,0.006840724071382011
6669.384257833468,0.006389116038263734
6669.385257605683,0.005936313812067453
6669.386257377899,0.005482428022110541
6669.387257150114,0.005027569038140082
6669.38825692233,0.004571846938472117
6669.389256694545,0.004115371478701801
6669.39025646676,0.0036582520609870963
6669.391256238975,0.0032005977039082957
6669.392256011191,0.0027425170129052844
6669.393255783406,0.0022841181512940935
6669.394255555621,0.0018255088118638754
6669.395255327836,0.0013667961890550492
6669.396255100051,0.0009080869517189748
6669.397254872267,0.00044948721645905157
6669.398254644482,-8.897478447384287e-06
6669.399254416698,-0.0004669621985476324
6669.400254188913,-0.0009246026381346919
6669.401253961128,-0.0013817151445936538
6669.402253733343,-0.0018381967421770774
6669.403253505559,-0.002293945155213731
6669.404253277774,-0.0027488588307556616
6669.405253049989,-0.0032028369606689447
6669.406252822204,-0.0036557795031736955
6669.407252594419,-0.00410758720383898
6669.408252366635,-0.004558161616038211
6669.40925213885,-0.0050074051208705
6669.410251911066,-0.005455220946553301
6669.411251683281,-0.005901513187291551
6669.412251455496,-0.006346186821628381
6669.413251227711,-0.006789147730282391
6669.414250999927,-0.0072303027134763284
6669.415250772142,-0.007669559507761935
6669.416250544357,-0.00810682680234555
6669.417250316572,-0.008542014254918975
6669.418250088787,-0.008975032507000099
6669.419249861003,-0.009405793198787907
6669.420249633218,-0.009834208983536773
6669.421249405434,-0.01026019354145538
6669.422249177649,-0.010683661593136105
6669.423248949864,-0.011104528912521262
6669.424248722079,-0.01152271233941295
6669.425248494295,-0.011938129791533603
6669.42624826651,-0.012350700276144443
6669.427248038725,-0.012760343901229045
6669.42824781094,-0.013166981886249077
6669.429247583155,-0.013570536572479142
6669.430247355371,-0.013970931432927294
6669.431247127586,-0.014368091081847601
6669.432246899802,-0.014761941283850834
6669.433246672017,-0.015152408962619048
6669.434246444232,-0.015539422209229575
6669.435246216447,-0.015922910290093635
6669.436245988662,-0.01630280365451453
6669.437245760878,-0.016679033941870387
6669.438245533093,-0.017051533988426355
6669.439245305308,-0.017420237833781566
6669.440245077523,-0.017785080726956514
6669.441244849739,-0.018145999132127066
6669.442244621954,-0.018502930734011908
6669.44324439417,-0.01885581444292082
6669.444244166384,-0.019204590399471623
6669.4452439386,-0.019549199978983946
6669.446243710815,-0.01988958579555816
6669.44724348303,-0.02022569170584784
6669.448243255246,-0.02055746281253398
6669.44924302746,-0.020884845467508927
6669.450242799676,-0.0212077872747778
6669.451242571891,-0.021526237093084922
6669.452242344107,-0.021840145038272436
6669.453242116322,-0.022149462485378135
6669.454241888538,-0.022454142070479324
6669.455241660752,-0.02275413769228927
6669.456241432968,-0.023049404513512783
6669.457241205183,-0.023339898961967375
6669.458240977398,-0.023625578731476568
6669.459240749614,-0.02390640278254194
6669.460240521828,-0.024182331342800827
6669.461240294044,-0.024453325907276925
6669.462240066259,-0.024719349238431252
6669.463239838475,-0.024980365366021193
6669.46423961069,-0.025236339586775545
6669.465239382906,-0.025487238463893308
6669.46623915512,-0.02573302982637364
6669.467238927336,-0.025973682768183973
6669.468238699551,-0.026209167647272623
6669.469238471766,-0.026439456084431538
6669.470238243982,-0.026664520962013875
6669.471238016196,-0.026884336422510525
6669.472237788412,-0.027098877866988818
6669.473237560627,-0.027308121953395922
6669.474237332843,-0.027512046594728768
6669.475237105058,-0.027710630957071648
6669.476236877274,-0.027903855457502222
6669.477236649488,-0.028091701761866088
6669.478236421704,-0.02827415278241989
6669.479236193919,-0.028451192675342834
6669.480235966134,-0.028622806838116552
6669.48123573835,-0.028788981906773498
6669.482235510564,-0.028949705753014258
6669.48323528278,-0.02910496748119435
6669.484235054995,-0.029254757425181268
6669.485234827211,-0.029399067145082346
6669.486234599426,-0.029537889423844062
6669.4872343716415,-0.02967121826372281
6669.488234143856,-0.02979904888262692
6669.489233916072,-0.0299213777103291
6669.490233688287,-0.030038202384548112
6669.491233460502,-0.03014952174689782
6669.492233232718,-0.030255335838701467
6669.493233004932,-0.030355645896668604
6669.494232777148,-0.030450454348431834
6669.495232549363,-0.03053976480794018
6669.496232321579,-0.03062358207070592
6669.497232093794,-0.030701912108901594
6669.4982318660095,-0.03077476206630417
6669.499231638224,-0.03084214025308357
6669.50023141044,-0.030904056140433296
6669.501231182655,-0.030960520355041384
6669.50223095487,-0.031011544673400455
6669.503230727086,-0.031057142015955982
6669.5042304993,-0.031097326441092286
6669.505230271516,-0.031132113138955857
6669.506230043731,-0.031161518425115567
6669.507229815947,-0.031185559734059128
6669.508229588162,-0.03120425561252479
6669.509229360377,-0.03121762571266705
6669.510229132592,-0.031225690785054504
6669.511228904808,-0.031228472671497764
6669.512228677023,-0.03122599429770485
6669.513228449238,-0.031218279665761278
6669.514228221453,-0.031205353846431676
6669.515227993668,-0.03118724297127965
6669.516227765884,-0.03116397422460226
6669.517227538099,-0.031135575835175622
6669.518227310315,-0.031102077067808164
6669.51922708253,-0.03106350821469834
6669.520226854745,-0.031019900586594023
6669.52122662696,-0.03097128650375158
6669.522226399175,-0.030917699286692805
6669.523226171391,-0.030859173246758666
6669.524225943606,-0.03079574367645901
6669.525225715821,-0.03072744683961761
6669.526225488036,-0.030654319961311877
6669.527225260252,-0.03057640121760629
6669.528225032467,-0.030493729725078397
6669.529224804683,-0.030406345530135697
6669.530224576898,-0.030314289598121446
6669.531224349113,-0.030217603802206998
6669.532224121328,-0.03011633091206791
6669.533223893543,-0.030010514582340688
6669.534223665759,-0.02990019934085684
6669.535223437974,-0.02978543057665064
6669.536223210189,-0.029666254527736868
6669.537222982404,-0.029542718268654948
6669.53822275462,-0.02941486969777601
6669.539222526835,-0.029282757524369867
6669.540222299051,-0.029146431255429494
6669.541222071266,-0.02900594118225126
6669.542221843481,-0.02886133836676997
6669.543221615696,-0.02871267462764848
6669.544221387911,-0.02856000252612221
6669.545221160127,-0.028403375351599446
6669.546220932342,-0.028242847107018656
6669.547220704557,-0.028078472493964182
6669.548220476772,-0.02791030689754164
6669.549220248988,-0.02773840637101447
6669.550220021203,-0.027562827620202884
6669.551219793419,-0.02738362798764634
6669.552219565634,-0.02720086543653068
6669.5532193378485,-0.027014598534380985
6669.554219110064,-0.02682488643652125
6669.555218882279,-0.026631788869301985
6669.556218654495,-0.026435366113097054
6669.55721842671,-0.026235678985071228
6669.558218198925,-0.026032788821720387
6669.55921797114,-0.02582675746118689
6669.560217743356,-0.025617647225353344
6669.561217515571,-0.02540552090171895
6669.562217287787,-0.02519044172506348
6669.563217060002,-0.024972473358904703
6669.5642168322165,-0.02475167987675592
6669.565216604432,-0.024528125743190944
6669.566216376647,-0.024301875794724266
6669.567216148863,-0.024072995220514634
6669.568215921078,-0.02384154954290051
6669.569215693293,-0.023607604597776
6669.570215465508,-0.023371226514816074
6669.571215237724,-0.02313248169755978
6669.572215009939,-0.022891436803360265
6669.5732147821545,-0.022648158723210483
6669.574214554369,-0.022402714561453447
6669.5752143265845,-0.02215517161538594
6669.5762140988,-0.02190559735476467
6669.577213871015,-0.021654059401224106
6669.578213643231,-0.02140062550761547
6669.579213415446,-0.021145363537276782
6669.580213187661,-0.020888341443244366
6669.581212959876,-0.020629627247416998
6669.582212732092,-0.020369289019684385
6669.583212504307,-0.020107394857032338
6669.5842122765225,-0.019844012862637365
6669.585212048737,-0.01957921112496374
6669.5862118209525,-0.019313057696876034
6669.587211593168,-0.019045620574780035
6669.588211365383,-0.01877696767780452
6669.589211137599,-0.018507166827035935
6669.590210909813,-0.018236285724817666
6669.591210682029,-0.017964391934124906
6669.592210454244,-0.01769155285802574
6669.59321022646,-0.017417835719238575
6669.594209998675,-0.01714330753979544
6669.5952097708905,-0.016868035120820298
6669.596209543105,-0.016592085022430966
6669.5972093153205,-0.016315523543772945
6669.598209087536,-0.01603841670319324
6669.599208859751,-0.015760830218562068
6669.600208631967,-0.015482829487750498
6669.601208404181,-0.015204479569272122
6669.602208176397,-0.01492584516309711
6669.603207948612,-0.014646990591647166
6669.604207720828,-0.014367979780980013
6669.605207493043,-0.014088876242172034
6669.6062072652585,-0.013809743052907405
6669.607207037473,-0.013530642839281699
6669.608206809688,-0.013251637757827436
6669.609206581904,-0.01297278947776839
6669.610206354119,-0.012694159163508833
6669.611206126335,-0.01241580745736328
6669.612205898549,-0.01213779446253164
6669.613205670765,-0.011860179726324143
6669.61420544298,-0.011583022223639872
6669.615205215196,-0.011306380340702206
6669.616204987411,-0.011030311859054136
6669.6172047596265,-0.010754873939816187
6669.618204531841,-0.010480123108209494
6669.619204304056,-0.01020611523834679
6669.620204076272,-0.009932905538294208
6669.621203848487,-0.0096605485354072
6669.622203620703,-0.00938909806194411
6669.623203392917,-0.009118607240961342
6669.624203165133,-0.008849128472494078
6669.625202937348,-0.008580713420026602
6669.626202709564,-0.008313412997256074
6669.627202481779,-0.008047277355153273
6669.6282022539945,-0.007782355869323426
6669.629202026209,-0.007518697127669747
6669.630201798424,-0.007256348918361757
6669.63120157064,-0.006995358218109926
6669.632201342855,-0.006735771180747709
6669.633201115071,-0.006477633126121639
6669.634200887285,-0.006220988529289851
6669.635200659501,-0.0059658810100292285
6669.636200431716,-0.005712353322651338
6669.637200203932,-0.005460447346127404
6669.638199976147,-0.005210204074522911
6669.6391997483615,-0.004961663607742845
6669.640199520577,-0.004714865142589253
6669.641199292792,-0.004469846964133472
6669.642199065008,-0.0042266464374060885
6669.643198837223,-0.003985299999408364
6669.644198609439,-0.0037458431514493023
6669.645198381653,-0.0035083104518128946
6669.646198153869,-0.0032727355087602103
6669.647197926084,-0.0030391509738709886
6669.6481976983,-0.002807588535729251
6669.649197470515,-0.0025780789139571905
6669.6501972427295,-0.0023506518536012956
6669.651197014945,-0.0021253361198743004
6669.65219678716,-0.0019021594932561682
6669.653196559376,-0.0016811487649569168
6669.654196331591,-0.001462329732743696
6669.655196103806,-0.0012457271971341181
6669.656195876021,-0.001031364957957466
6669.657195648237,-0.0008192658112851261
6669.658195420452,-0.0006094515467314456
6669.659195192668,-0.0004019429451262349
6669.660194964883,-0.00019675977656029276
6669.6611947370975,6.079201194418813e-06
6669.662194509313,0.00020655624388806173
6669.663194281528,0.00040465462161757675
6669.664194053744,0.0006003586192705211
6669.665193825959,0.0007936535365859768
6669.666193598174,0.0009845256878306652
6669.667193370389,0.0011729624010888094
6669.668193142605,0.0013589520171648113
6669.66919291482,0.0015424838880984128
6669.670192687036,0.0017235483752926204
6669.671192459251,0.0019021368472553015
6669.6721922314655,0.0020782416769559407
6669.673192003681,0.0022518562387996064
6669.674191775896,0.002422974905220667
6669.675191548112,0.0025915930428991947
6669.676191320327,0.002757707008603287
6669.677191092542,0.002921314144660678
6669.678190864757,0.0030824127740629514
6669.679190636973,0.0032410021952054033
6669.680190409188,0.003397082676265191
6669.681190181404,0.0035506554492198586
6669.682189953619,0.003701722703507796
6669.6831897258335,0.0038502875793317267
6669.684189498049,0.003996354160605962
6669.685189270264,0.004139927467548071
6669.68618904248,0.0042810134489156835
6669.687188814695,0.004419618973889472
6669.68818858691,0.004555751823603833
6669.689188359125,0.004689420682327357
6669.690188131341,0.004820635128295797
6669.691187903556,0.00494940562420084
6669.692187675772,0.005075743507338585
6669.693187447987,0.005199660979422193
6669.6941872202015,0.005321171096063633
6669.695186992417,0.005440287755929871
6669.696186764632,0.005557025689579171
6669.697186536848,0.005671400447983357
6669.698186309063,0.005783428390741899
6669.699186081278,0.005893126673993553
6669.700185853493,0.006000513238030937
6669.701185625709,0.0061056067946230145
6669.702185397924,0.006208426814050024
6669.70318517014,0.006308993511854994
6669.704184942354,0.006407327835315726
6669.705184714569,0.006503451449640999
6669.706184486785,0.00659738672389476
6669.707184259,0.006689156716652297
6669.708184031216,0.006778785161392602
6669.709183803431,0.006866296451631512
6669.710183575646,0.006951715625800599
6669.711183347861,0.007035068351877235
6669.712183120077,0.007116380911771708
6669.713182892292,0.007195680185477727
6669.714182664508,0.007272993634993159
6669.715182436722,0.007348349288018265
6669.716182208937,0.007421775721439136
6669.717181981153,0.007493302044604229
6669.718181753368,0.007562957882402075
6669.719181525584,0.007630773358148167
6669.720181297798,0.007696779076288855
6669.721181070014,0.007761006104929796
6669.722180842229,0.007823485958196166
6669.723180614445,0.007884250578431649
6669.72418038666,0.007943332318242959
6669.725180158875,0.008000763922396646
6669.72617993109,0.008056578509574999
6669.727179703305,0.0081108095539981
6669.728179475521,0.008163490866919445
6669.729179247736,0.008214656578002934
6669.730179019952,0.00826434111658952
6669.731178792166,0.008312579192862272
6669.732178564382,0.008359405778919032
6669.733178336597,0.008404856089762349
6669.734178108813,0.008448965564216664
6669.735177881028,0.008491769845783094
6669.736177653243,0.008533304763442435
6669.737177425458,0.00857360631241707
6669.738177197673,0.008612710634902484
6669.739176969889,0.008650654000778748
6669.740176742104,0.008687472788312106
6669.74117651432,0.00872320346485625
6669.742176286534,0.008757882567562452
6669.74317605875,0.008791546684107478
6669.744175830965,0.00882423243344797
6669.7451756031805,0.00885597644661004
6669.746175375396,0.008886815347522892
6669.747175147611,0.008916785733905483
6669.748174919826,0.00894592415821559
6669.749174692041,0.008974267108670877
6669.750174464257,0.00900185099035197
6669.751174236472,0.009028712106397812
6669.752174008688,0.009054886639303882
6669.753173780902,0.009080410632334055
6669.754173553118,0.009105319971057086
6669.755173325333,0.009129650365018775
6669.7561730975485,0.009153437329560846
6669.757172869764,0.00917671616779742
6669.758172641979,0.009199521952759648
6669.759172414194,0.009221889509718573
6669.760172186409,0.009243853398695647
6669.761171958625,0.009265447897169547
6669.76217173084,0.009286706982987251
6669.763171503056,0.009307664317486548
6669.76417127527,0.009328353228836591
6669.765171047486,0.009348806695602655
6669.766170819701,0.009369057330540932
6669.7671705919165,0.009389137364629185
6669.768170364132,0.009409078631339067
6669.7691701363465,0.009428912551156111
6669.770169908562,0.009448670116353645
6669.771169680777,0.009468381876027084
6669.772169452993,0.009488077921395313
6669.773169225208,0.009507787871376
6669.774168997424,0.009527540858441796
6669.775168769638,0.009547365514764494
6669.776168541854,0.009567289958654133
6669.777168314069,0.009587341781300055
6669.7781680862845,0.009607548033820641
6669.7791678585,0.009627935214628167
6669.7801676307145,0.009648529257114697
6669.78116740293,0.009669355517664405
6669.782167175145,0.009690438763997096
6669.783166947361,0.009711803163847245
6669.784166719576,0.009733472273982406
6669.785166491791,0.009755469029564598
6669.786166264006,0.00977781573385813
6669.787166036222,0.00980053404828736
6669.788165808437,0.009823644982847999
6669.7891655806525,0.009847168886875703
6669.790165352868,0.009871125440175946
6669.791165125082,0.00989553364451927
6669.792164897298,0.00992041181550621
6669.793164669513,0.009945777574806209
6669.794164441729,0.009971647842774921
6669.795164213944,0.009998038831454337
6669.796163986159,0.010024966037960064
6669.797163758374,0.01005244423825997
6669.79816353059,0.010080487481348039
6669.799163302805,0.010109109083816821
6669.8001630750205,0.010138321624831236
6669.801162847236,0.010168136941505698
6669.80216261945,0.010198566124685813
6669.803162391666,0.010229619515135136
6669.804162163881,0.010261306700126807
6669.805161936097,0.0102936365104394
6669.806161708312,0.010326617017756003
6669.807161480527,0.010360255532465307
6669.808161252742,0.010394558601863457
6669.809161024958,0.010429532008755403
6669.810160797173,0.010465180770454467
6669.811160569388,0.010501509138178888
6669.812160341604,0.010538520596844004
6669.813160113818,0.01057621786524868
6669.814159886034,0.01061460289665438
6669.815159658249,0.010653676879755122
6669.816159430465,0.010693440240036276
6669.81715920268,0.010733892641519787
6669.818158974895,0.010775032988893022
6669.81915874711,0.010816859430017839
6669.820158519326,0.01085936935881598
6669.821158291541,0.01090255941852612
6669.822158063756,0.010946425505327352
6669.823157835972,0.010990962772323302
6669.824157608186,0.011036165633880586
6669.825157380402,0.011082027770315079
6669.826157152617,0.01112854213291931
6669.827156924833,0.011175700949324394
6669.828156697048,0.01122349572919012
6669.829156469263,0.011271917270217074
6669.830156241478,0.011320955664475016
6669.8311560136935,0.011370600305041967
6669.832155785909,0.011420839892948825
6669.833155558124,0.011471662444424595
6669.834155330339,0.011523055298437612
6669.835155102554,0.011575005124528269
6669.83615487477,0.011627497930928992
6669.837154646985,0.011680519072967127
6669.838154419201,0.011734053261746393
6669.839154191416,0.011788084573102311
6669.840153963631,0.011842596456826658
6669.841153735846,0.011897571746155588
6669.8421535080615,0.011952992667515592
6669.843153280277,0.012008840850521077
6669.844153052492,0.012065097338216951
6669.845152824707,0.012121742597559416
6669.846152596922,0.01217875653012804
6669.847152369138,0.012236118483062199
6669.848152141353,0.012293807260215159
6669.849151913569,0.012351801133519169
6669.850151685783,0.012410077854555343
6669.851151457999,0.012468614666322344
6669.852151230214,0.012527388315198246
6669.8531510024295,0.012586375063090322
6669.854150774645,0.012645550699767666
6669.85515054686,0.012704890555371901
6669.856150319075,0.012764369513101143
6669.85715009129,0.012823962022062447
6669.858149863506,0.01288364211028772
6669.859149635721,0.012943383397907737
6669.860149407937,0.013003159110478486
6669.861149180151,0.013062942092453603
6669.862148952367,0.013122704820796196
6669.863148724582,0.013182419418723
6669.8641484967975,0.01324205766957353
6669.865148269013,0.01330159103079684
6669.866148041228,0.013360990648048616
6669.867147813443,0.013420227369391574
6669.868147585658,0.013479271759592423
6669.869147357874,0.013538094114509007
6669.870147130089,0.0135966644755616
6669.871146902305,0.01365495264428259
6669.872146674519,0.013712928196939155
6669.873146446735,0.01377056049922387
6669.87414621895,0.013827818721008422
6669.8751459911655,0.013884671851155923
6669.876145763381,0.013941088712387507
6669.877145535596,0.013997037976199026
6669.878145307811,0.014052488177823636
6669.879145080026,0.014107407731235828
6669.880144852242,0.014161764944192282
6669.881144624457,0.014215528033304373
6669.882144396673,0.014268665139136815
6669.883144168887,0.014321144341326518
6669.884143941103,0.014372933673715418
6669.885143713318,0.014424001139490954
6669.8861434855335,0.014474314726327788
6669.887143257749,0.01452384242152453
6669.888143029964,0.014572552227129462
6669.889142802179,0.014620412175049502
6669.890142574394,0.014667390342137024
6669.89114234661,0.014713454865249498
6669.892142118825,0.014758573956277237
6669.893141891041,0.014802715917134855
6669.894141663255,0.014845849154712302
6669.895141435471,0.014887942195781498
6669.896141207686,0.014928963701854737
6669.897140979901,0.01496888248399094
6669.898140752117,0.015007667517545781
6669.899140524331,0.015045287956861384
6669.900140296547,0.01508171314989087
6669.901140068762,0.01511691265275258
6669.902139840978,0.015150856244208302
6669.903139613193,0.015183513940059389
6669.904139385409,0.015214856007454433
6669.905139157623,0.015244852979101954
6669.906138929839,0.015273475667381764
6669.907138702054,0.015300695178348823
6669.908138474269,0.01532648292562377
6669.909138246485,0.015350810644164693
6669.910138018699,0.015373650403915144
6669.911137790915,0.01539497462332378
6669.91213756313,0.015414756082731537
6669.913137335346,0.015432967937622586
6669.914137107561,0.015449583731735822
6669.915136879776,0.015464577410033984
6669.916136651991,0.01547792333152786
6669.917136424207,0.015489596281953155
6669.918136196422,0.015499571486297688
6669.919135968637,0.01550782462117633
6669.920135740853,0.015514331827050752
6669.921135513067,0.015519069720290614
6669.922135285283,0.01552201540507228
6669.923135057498,0.015523146485110637
6669.924134829714,0.015522441075219256
6669.925134601929,0.015519877812693926
6669.926134374144,0.015515435868514645
6669.927134146359,0.015509094958361396
6669.928133918575,0.015500835353439525
6669.92913369079,0.015490637891111127
6669.930133463005,0.015478483985329567
6669.931133235221,0.015464355636874944
6669.932133007435,0.015448235443388969
6669.933132779651,0.015430106609208339
6669.934132551866,0.015409952954996087
6669.935132324082,0.015387758927170746
6669.936132096297,0.015363509607133237
6669.937131868512,0.015337190720291325
6669.938131640727,0.015308788644881237
6669.939131412943,0.01527829042058566
6669.940131185158,0.015245683756946782
6669.941130957373,0.015210957041572468
6669.942130729589,0.015174099348133121
6669.943130501803,0.015135100444146296
6669.944130274019,0.015093950798545813
6669.945130046234,0.015050641589031981
6669.94612981845,0.015005164709199529
6669.947129590665,0.014957512775439923
6669.94812936288,0.014907679133615048
6669.949129135095,0.014855657865499345
6669.950128907311,0.014801443794987875
6669.951128679526,0.014745032494067846
6669.952128451741,0.014686420288551428
6669.953128223957,0.014625604263567783
6669.954127996171,0.014562582268812402
6669.955127768387,0.014497352923551894
6669.956127540602,0.014429915621382353
6669.957127312818,0.014360270534739485
6669.958127085033,0.014288418619158397
6669.959126857248,0.014214361617280798
6669.960126629463,0.014138102062607004
6669.961126401679,0.014059643282989814
6669.962126173894,0.013978989403866883
6669.963125946109,0.013896145351228045
6669.964125718324,0.013811116854313703
6669.965125490539,0.013723910448040413
6669.966125262755,0.01363453347514984
6669.96712503497,0.013542994088077508
6669.968124807186,0.013449301250538092
6669.969124579401,0.013353464738824402
6669.970124351616,0.013255495142817573
6669.971124123831,0.013155403866706458
6669.972123896047,0.013053203129414504
6669.973123668262,0.012948905964732776
6669.974123440477,0.012842526221158073
6669.975123212692,0.012734078561435278
6669.976122984907,0.012623578461803286
6669.977122757123,0.012511042210943861
6669.978122529338,0.012396486908632686
6669.979122301554,0.01227993046409166
6669.980122073768,0.012161391594041072
6669.981121845984,0.012040889820449832
6669.982121618199,0.011918445467981499
6669.983121390414,0.011794079661133387
6669.98412116263,0.011667814321065811
6669.985120934845,0.011539672162118477
6669.98612070706,0.011409676688011025
6669.987120479275,0.011277852187725087
6669.988120251491,0.011144223731065543
6669.989120023706,0.011008817163899075
6669.990119795922,0.01087165910306859
6669.991119568136,0.010732776930982511
6669.992119340352,0.010592198789878276
6669.993119112567,0.010449953575759783
6669.994118884782,0.010306070932008814
6669.995118656998,0.01016058124267071
6669.996118429213,0.010013515625414852
6669.997118201428,0.009864905924170636
6669.998117973643,0.009714784701439565
6669.999117745859,0.009563185230284094
6670.000117518074,0.00941014148599361
6670.00111729029,0.009255688137427776
6670.002117062504,0.009099860538037234
6670.00311683472,0.008942694716561608
6670.004116606935,0.008784227367404735
6670.00511637915,0.008624495840687375
6670.006116151366,0.00846353813197792
6670.007115923581,0.008301392871702236
6670.008115695796,0.008138099314234412
6670.009115468011,0.007973697326670828
6670.010115240227,0.007808227377290655
6670.011115012442,0.007641730523706582
6670.012114784658,0.007474248400710123
6670.013114556872,0.007305823207816494
6670.014114329088,0.007136497696514493
6670.015114101303,0.006966315157227344
6670.016113873518,0.00679531940599077
6670.017113645734,0.006623554770854801
6670.018113417949,0.0064510660780158335
6670.019113190164,0.0062778986376852515
6670.020112962379,0.006104098229700539
6670.021112734595,0.0059297110888842505
6670.02211250681,0.005754783890155717
6670.023112279026,0.005579363733399809
6670.02411205124,0.005403498128096778
6670.025111823456,0.005227234977716945
6670.026111595671,0.005050622563883995
6670.027111367886,0.004873709530310724
6670.028111140102,0.004696544866511325
6670.029110912316,0.004519177891294659
6670.030110684532,0.004341658236043249
6670.031110456747,0.004164035827783159
6670.032110228963,0.003986360872050219
6670.033110001178,0.0038086838355583935
6670.0341097733935,0.003631055428676354
6670.035109545608,0.0034535265877185606
6670.036109317824,0.0032761484570573043
6670.037109090039,0.003098972371062246
6670.038108862254,0.0029220498358739
6670.03910863447,0.0027454325110173104
6670.040108406684,0.0025691721908618413
6670.0411081789,0.0023933207859325872
6670.042107951115,0.0022179303040784806
6670.043107723331,0.002043052831501721
6670.044107495546,0.0018687405136527942
6670.045107267761,0.0016950455359950824
6670.046107039976,0.0015220201046429317
6670.047106812192,0.0013497164268770653
6670.048106584407,0.0011781866915413605
6670.049106356622,0.0010074830493252411
6670.050106128838,0.000837657592936194
6670.051105901052,0.0006687623371672168
6670.052105673268,0.0005008491988642944
6670.053105445483,0.0003339699767992856
6670.054105217699,0.00016817633145389558
6670.055104989914,3.519764720689369e-06
6670.056104762129,-0.00015994840047264708
6670.057104534344,-0.0003221770406093927
6670.05810430656,-0.0004831152520937224
6670.059104078775,-0.0006427123718180114
6670.06010385099,-0.0008009179977811951
6670.061103623206,-0.0009576820097521209
6670.06210339542,-0.0011129545899721258
6670.063103167636,-0.0012666862438913485
6670.064102939851,-0.0014188278209334869
6670.065102712067,-0.0015693305352837855
6670.066102484282,-0.0017181459866949746
6670.067102256497,-0.0018652261813056794
6670.068102028712,-0.002010523552465485
6670.069101800928,-0.0021539909815604307
6670.070101573143,-0.002295581818832235
6670.071101345358,-0.0024352499041840714
6670.072101117574,-0.00257294958796521
6670.073100889788,-0.0027086357517263587
6670.074100662004,-0.0028422638289370395
6670.075100434219,-0.002973789825655899
6670.076100206435,-0.0031031703411444423
6670.07709997865,-0.003230362588414398
6670.078099750865,-0.003355324414698756
6670.07909952308,-0.0034780143218365337
6670.080099295295,-0.003598391486561461
6670.081099067511,-0.0037164157806850264
6670.082098839726,-0.0038320477911646072
6670.083098611942,-0.003945248840047658
6670.084098384156,-0.004055981004283089
6670.085098156372,-0.00416420713539099
6670.086097928587,-0.004269890878981781
6670.087097700803,-0.0043729966941156665
6670.088097473018,-0.004473489872493033
6670.089097245233,-0.004571336557466095
6670.090097017448,-0.004666503762861773
6670.091096789663,-0.0047589593916054496
6670.092096561879,-0.00484867225413482
6670.093096334094,-0.004935612086592765
6670.094096106309,-0.005019749568787801
6670.095095878524,-0.005101056341910429
6670.09609565074,-0.005179505025993518
6670.097095422955,-0.005255069237104807
6670.098095195171,-0.005327723604259656
6670.099094967386,-0.005397443786042371
6670.1000947396005,-0.00546420648692477
6670.101094511816,-0.005527989473271041
6670.102094284031,-0.0055887715890184505
6670.103094056247,-0.005646532771023849
6670.104093828462,-0.0057012540640663505
6670.105093600677,-0.005752917635496745
6670.106093372892,-0.0058015067895243605
6670.107093145108,-0.005847005981132133
6670.108092917323,-0.005889400829610543
6670.109092689539,-0.005928678131700977
6670.110092461753,-0.0059648258743389025
6670.1110922339685,-0.005997833246987059
6670.112092006184,-0.006027690653548724
6670.113091778399,-0.0060543897238509925
6670.114091550615,-0.00607792332468786
6670.11509132283,-0.006098285570412883
6670.116091095045,-0.0061154718330711216
6670.11709086726,-0.006129478752060144
6670.118090639476,-0.006140304243309998
6670.119090411691,-0.006147947507972284
6670.1200901839065,-0.006152409040608856
6670.121089956121,-0.006153690636871095
6670.1220897283365,-0.0061517954006612445
6670.123089500552,-0.006146727750767811
6670.124089272767,-0.006138493426967435
6670.125089044983,-0.006127099495585995
6670.126088817198,-0.0061125543545118375
6670.127088589413,-0.006094867737654015
6670.128088361628,-0.006074050718838324
6670.129088133844,-0.006050115715133726
6670.130087906059,-0.006023076489601496
6670.1310876782745,-0.005992948153459251
6670.132087450489,-0.005959747167651744
6670.1330872227045,-0.005923491343820167
6670.13408699492,-0.005884199844661568
6670.135086767135,-0.005841893183669892
6670.136086539351,-0.005796593224250244
6670.137086311566,-0.005748323178198149
6670.138086083781,-0.0056971076035358965
6670.139085855996,-0.005642972401698596
6670.140085628212,-0.0055859448140631
6670.141085400427,-0.005526053417813616
6670.1420851726425,-0.005463328121138424
6670.143084944857,-0.005397800157752629
6670.1440847170725,-0.005329502080742298
6670.145084489288,-0.005258467755725662
6670.146084261503,-0.005184732353327196
6670.147084033719,-0.0051083323409605265
6670.148083805934,-0.005029305473916083
6670.149083578149,-0.0049476907857493885
6670.150083350364,-0.00486352857796585
6670.15108312258,-0.004776860408997864
6670.152082894795,-0.004687729082470047
6670.1530826670105,-0.004596178634748425
6670.154082439225,-0.004502254321769497
6670.1550822114405,-0.004406002605145202
6670.156081983656,-0.004307471137540075
6670.157081755871,-0.004206708747317201
6670.158081528087,-0.004103765422450142
6670.159081300301,-0.003998692293698619
6670.160081072517,-0.0038915416170465598
6670.161080844732,-0.003782366755401965
6670.162080616948,-0.0036712221595589347
6670.163080389163,-0.0035581633484230387
6670.1640801613785,-0.003443246888501968
6670.165079933593,-0.0033265303726640184
6670.166079705808,-0.00320807239816748
6670.167079478024,-0.003087932543964358
6670.168079250239,-0.002966171347282178
6670.169079022455,-0.0028428502794878674
6670.170078794669,-0.0027180317212379505
6670.171078566885,-0.0025917789369195227
6670.1720783391,-0.0024641560483867706
6670.173078111316,-0.0023352280079980687
6670.174077883531,-0.002205060570959057
6670.175077655746,-0.0020737202669774218
6670.176077427961,-0.0019412743712355237
6670.177077200176,-0.0018077908746874562
6670.178076972392,-0.0016733384536876772
6670.179076744607,-0.0015379864389589728
6670.180076516823,-0.001401804783908217
6670.181076289037,-0.0012648640322991177
6670.182076061253,-0.0011272352852918575
6670.183075833468,-0.0009889901678602072
6670.184075605684,-0.0008502007945972647
6670.185075377899,-0.0007109397349214269
6670.1860751501135,-0.0005712799776945224
6670.187074922329,-0.0004312948952642242
6670.188074694544,-0.00029105820694296056
6670.18907446676,-0.00015064394193556202
6670.190074238975,-1.0126401727901212e-05
6670.191074011191,0.00013041987805116834
6670.192073783405,0.00027092016628214784
6670.193073555621,0.0004112995755088779
6670.194073327836,0.00055148310158127
6670.195073100052,0.0006913956637735314
6670.196072872267,0.0008309621453641823
6670.1970726444815,0.0009701074346635799
6670.198072416697,0.0011087564664738782
6670.199072188912,0.0012468342639653364
6670.200071961128,0.0013842659809516161
6670.201071733343,0.0015209769445451876
6670.202071505559,0.0016568926981722636
6670.203071277773,0.001791939044924837
6670.204071049989,0.0019260420912255078
6670.205070822204,0.0020591282907788714
6670.20607059442,0.0021911244887813266
6670.207070366635,0.0023219579663592256
6670.2080701388495,0.002451556485203305
6670.209069911065,0.0025798483323652564
6670.21006968328,0.0027067623651800977
6670.211069455496,0.002832228056275697
6670.212069227711,0.0029561755386283643
6670.213068999927,0.003078535650620884
6670.214068772141,0.003199239981056744
6670.215068544357,0.003318220914081598
6670.216068316572,0.0034354116739602073
6670.217068088788,0.0035507463696542708
6670.218067861003,0.0036641600391436437
6670.2190676332175,0.003775588693430552
6670.220067405433,0.00388496936016356
6670.221067177648,0.00399224012681538
6670.222066949864,0.0040973401833461305
6670.223066722079,0.0042002098642815195
6670.224066494294,0.004300790690133636
6670.225066266509,0.004399025408090736
6670.226066038725,0.004494858031901612
6670.22706581094,0.004588233880879872
6670.228065583156,0.004679099617953815
6670.229065355371,0.004767403286688461
6670.2300651275855,0.004853094347207786
6670.231064899801,0.00493612371094717
6670.232064672016,0.005016443774168533
6670.233064444232,0.005094008450173412
6670.234064216447,0.005168773200152315
6670.235063988662,0.005240695062611879
6670.236063760877,0.005309732681324649
6670.237063533093,0.005375846331749622
6670.238063305308,0.0054389979458751925
6670.239063077524,0.005499151135439694
6670.240062849738,0.0055562712134885886
6670.2410626219535,0.005610325214231377
6670.242062394169,0.005661281911165553
6670.243062166384,0.005709111833439422
6670.2440619386,0.005753787280430237
6670.245061710815,0.005795282334518938
6670.24606148303,0.005833572872047624
6670.247061255245,0.005868636572450921
6670.248061027461,0.0059004529255573205
6670.249060799676,0.005929003237061493
6670.250060571892,0.005954270632173517
6670.251060344106,0.005976240057455748
6670.252060116321,0.005994898280862883
6670.253059888537,0.00601023389000539
6670.254059660752,0.006022237288661114
6670.255059432968,0.006030900691564144
6670.256059205183,0.006036218117504017
6670.257058977398,0.006038185380771821
6670.258058749613,0.0060368000809926745
6670.259058521829,0.006032061591386423
6670.260058294044,0.006023971045500234
6670.26105806626,0.006012531322458154
6670.262057838474,0.005997747030773735
6670.263057610689,0.005979624490772492
6670.264057382905,0.005958171715671467
6670.26505715512,0.005933398391363544
6670.266056927336,0.005905315854954414
6670.267056699551,0.005873937072100238
6670.268056471766,0.005839276613194139
6670.269056243981,0.005801350628449618
6670.270056016197,0.005760176821928873
6670.271055788412,0.005715774424563747
6670.272055560627,0.005668164166216695
6670.273055332842,0.0056173682468287954
6670.274055105057,0.005563410306701387
6670.275054877273,0.005506315395957472
6670.276054649488,0.0054461099432285545
6670.277054421704,0.0053828217236119615
6670.278054193919,0.00531647982594308
6670.279053966134,0.0052471146194260935
6670.280053738349,0.005174757719665951
6670.281053510565,0.0050994419541433205
6670.28205328278,0.005021201327173274
6670.283053054995,0.0049400709843875215
6670.28405282721,0.004856087176779121
6670.285052599425,0.004769287224347832
6670.286052371641,0.004679709479383658
6670.287052143856,0.004587393289425697
6670.288051916072,0.004492378959933057
6670.289051688286,0.004394707716704404
6670.290051460502,0.004294421668082479
6670.291051232717,0.004191563766979716
6670.292051004933,0.004086177772760894
6670.293050777148,0.003978308213018498
6670.294050549363,0.003868000345276213
6670.295050321578,0.00375530011865569
6670.296050093793,0.003640254135541387
6670.297049866009,0.003522909613277897
6670.298049638224,0.0034033143459335944
6670.29904941044,0.0032815166661636815
6670.300049182654,0.0031575654072047896
6670.30104895487,0.003031509865032212
6670.302048727085,0.0029033997607097323
6670.3030484993005,0.002773285202960938
6670.304048271516,0.0026412166509899174
6670.3050480437305,0.0025072448775784006
6670.306047815946,0.0023714209324856668
6670.307047588161,0.0022337961061769302
6670.308047360377,0.0020944218939053655
6670.309047132592,0.001953349960172402
6670.310046904808,0.001810632103590401
6670.311046677022,0.0016663202221712733
6670.312046449238,0.0015204662790640157
6670.313046221453,0.0013731222687635308
6670.3140459936685,0.0012243401838124936
6670.315045765884,0.001074171982017409
6670.3160455380985,0.00092266955419937
6670.317045310314,0.000769884692499306
6670.318045082529,0.0006158690592566814
6670.319044854745,0.0004606741564796373
6670.32004462696,0.00030435129592352756
6670.321044399176,0.00014695156979370588
6670.32204417139,-1.147417791261942e-05
6670.323043943606,-0.00017087537941159412
6670.324043715821,-0.00033120177047190957
6670.3250434880365,-0.0004924034170755166
6670.326043260252,-0.0006544307413878761
6670.3270430324665,-0.0008172345470261399
6670.328042804682,-0.0009807660436140003
6670.329042576897,-0.0011449768706123262
6670.330042349113,-0.0013098191204151523
6670.331042121328,-0.0014752453607011422
6670.332041893544,-0.001641208656031298
6670.333041665758,-0.0018076625886844354
6670.334041437974,-0.001974561278722739
6670.335041210189,-0.002141859403280563
6670.3360409824045,-0.002309512215070509
6670.33704075462,-0.002477475560101756
6670.338040526834,-0.0026457058946066443
6670.33904029905,-0.00281416030117261
6670.340040071265,-0.0029827965040777416
6670.341039843481,-0.003151572883829395
6670.342039615696,-0.003320448490906411
6670.343039387912,-0.0034893830587065175
6670.344039160126,-0.003658337015701409
6670.345038932342,-0.0038272714968027636
6670.346038704557,-0.00399614835394314
6670.3470384767725,-0.0041649301658762015
6670.348038248988,-0.004333580247201161
6670.349038021202,-0.004502062656616708
6670.350037793418,-0.004670342204409965
6670.351037565633,-0.0048383844591862925
6670.352037337849,-0.005006155753846059
6670.353037110064,-0.005173623190814645
6670.35403688228,-0.0053407546465322085
6670.355036654494,-0.005507518775209937
6670.35603642671,-0.005673885011859747
6670.357036198925,-0.005839823574604742
6670.35803597114,-0.006005305466278214
6670.359035743356,-0.006170302475319508
6670.36003551557,-0.006334787175975834
6670.361035287786,-0.006498732927819864
6670.362035060001,-0.006662113874593715
6670.363034832217,-0.006824904942390695
6670.364034604432,-0.00698708183718671
6670.365034376647,-0.007148621041733749
6670.366034148862,-0.007309499811828134
6670.367033921078,-0.007469696171966374
6670.368033693293,-0.00762918891040161
6670.369033465508,-0.007787957573613648
6670.370033237723,-0.007945982460205668
6670.371033009938,-0.00810324461424073
6670.372032782154,-0.00825972581803126
6670.373032554369,-0.008415408584394813
6670.374032326585,-0.008570276148389518
6670.3750320988,-0.008724312458542688
6670.376031871015,-0.008877502167586334
6670.37703164323,-0.009029830622713427
6670.378031415446,-0.00918128385536908
6670.379031187661,-0.009331848570591184
6670.380030959876,-0.009481512135915391
6670.381030732091,-0.00963026256985983
6670.382030504306,-0.009778088530005457
6670.383030276522,-0.00992497930068828
6670.384030048737,-0.010070924780320078
6670.385029820953,-0.010215915468354307
6670.386029593168,-0.010359942451913885
6670.387029365383,-0.010502997392097289
6670.388029137598,-0.010645072509979137
6670.3890289098135,-0.010786160572321056
6670.390028682029,-0.01092625487700827
6670.391028454244,-0.01106534923822711
6670.392028226459,-0.011203437971398323
6670.393027998674,-0.011340515877880882
6670.39402777089,-0.011476578229460922
6670.395027543105,-0.011611620752640321
6670.396027315321,-0.01174563961273949
6670.397027087536,-0.011878631397829078
6670.398026859751,-0.012010593102505527
6670.399026631966,-0.012141522111525867
6670.4000264041815,-0.012271416183317606
6670.401026176397,-0.012400273433380174
6670.402025948612,-0.012528092317594953
6670.403025720827,-0.012654871615461383
6670.404025493042,-0.012780610413276957
6670.405025265258,-0.012905308087279141
6670.406025037473,-0.01302896428676717
6670.407024809689,-0.013151578917221464
6670.408024581904,-0.013273152123438135
6670.409024354119,-0.013393684272695534
6670.410024126334,-0.01351317593796933
6670.4110238985495,-0.013631627881212048
6670.412023670765,-0.013749041036712505
6670.41302344298,-0.013865416494550028
6670.414023215195,-0.013980755484157892
6670.41502298741,-0.014095059358009886
6670.416022759626,-0.014208329575443601
6670.417022531841,-0.014320567686633678
6670.418022304057,-0.014431775316727994
6670.419022076272,-0.014541954150159611
6670.420021848487,-0.014651105915147275
6670.421021620702,-0.014759232368397024
6670.4220213929175,-0.014866335280017542
6670.423021165133,-0.014972416418661722
6670.424020937348,-0.015077477536906614
6670.425020709563,-0.015181520356883598
6670.426020481778,-0.015284546556170198
6670.427020253994,-0.01538655775395424
6670.428020026209,-0.015487555497480529
6670.429019798425,-0.015587541248789598
6670.430019570639,-0.015686516371757542
6670.431019342855,-0.015784482119445546
6670.43201911507,-0.0158814396217673
6670.4330188872855,-0.01597738987348223
6670.434018659501,-0.016072333722522116
6670.435018431715,-0.016166271858658536
6670.436018203931,-0.01625920480251822
6670.437017976146,-0.01635113289495329
6670.438017748362,-0.01644205628677327
6670.439017520577,-0.016531974928845786
6670.440017292793,-0.016620888562573002
6670.441017065007,-0.016708796710751043
6670.442016837223,-0.01679569866881986
6670.443016609438,-0.01688159349651103
6670.4440163816535,-0.016966480009901065
6670.445016153869,-0.01705035677387753
6670.446015926083,-0.017133222095025172
6670.447015698299,-0.017215074014938717
6670.448015470514,-0.017295910303968536
6670.44901524273,-0.017375728455404756
6670.450015014945,-0.017454525680104818
6670.451014787161,-0.017532298901568693
6670.452014559375,-0.017609044751465287
6670.453014331591,-0.01768475956561276
6670.454014103806,-0.017759439380414715
6670.455013876021,-0.01783307992975343
6670.456013648237,-0.01790567664234052
6670.457013420451,-0.017977224639524867
6670.458013192667,-0.018047718733557108
6670.459012964882,-0.018117153426309745
6670.460012737098,-0.018185522908451913
6670.461012509313,-0.018252821059077686
6670.462012281529,-0.018319041445786936
6670.463012053743,-0.018384177325217754
6670.464011825959,-0.01844822164402915
6670.465011598174,-0.018511167040332538
6670.466011370389,-0.01857300584557002
6670.467011142605,-0.018633730086837053
6670.468010914819,-0.018693331489646452
6670.469010687035,-0.018751801481130134
6670.47001045925,-0.018809131193674226
6670.471010231466,-0.018865311468982675
6670.472010003681,-0.018920332862563692
6670.473009775897,-0.018974185648632704
6670.474009548111,-0.019026859825424753
6670.475009320327,-0.01907834512090857
6670.476009092542,-0.019128630998893927
6670.477008864757,-0.01917770666552327
6670.478008636973,-0.01922556107613835
6670.479008409187,-0.019272182942512282
6670.480008181403,-0.01931756074043748
6670.481007953618,-0.019361682717659867
6670.482007725834,-0.01940453690214992
6670.483007498049,-0.019446111110701166
6670.484007270265,-0.019486392957846703
6670.485007042479,-0.019525369865084196
6670.486006814695,-0.019563029070399522
6670.48700658691,-0.0195993576380789
6670.488006359125,-0.019634342468798797
6670.489006131341,-0.019667970309982543
6670.490005903555,-0.019700227766412007
6670.491005675771,-0.019731101311082237
6670.492005447986,-0.019760577296286407
6670.493005220202,-0.019788641964917874
6670.494004992417,-0.01981528146197569
6670.495004764632,-0.019840481846259396
6670.496004536847,-0.019864229102238683
6670.497004309063,-0.019886509152083367
6670.498004081278,-0.019907307867839105
6670.499003853493,-0.019926611083734537
6670.500003625708,-0.01994440460860588
6670.501003397923,-0.019960674238425288
6670.502003170139,-0.019975405768919645
6670.503002942354,-0.0199885850082667
6670.50400271457,-0.02000019778985546
6670.505002486785,-0.020010229985097848
6670.506002259,-0.02001866751627833
6670.507002031215,-0.020025496369428006
6670.508001803431,-0.02003070260720944
6670.509001575646,-0.02003427238179816
6670.510001347861,-0.020036191947746605
6670.511001120076,-0.02003644767481598
6670.512000892291,-0.020035026060761546
6670.513000664507,-0.020031913744056693
6670.514000436722,-0.020027097516541234
6670.515000208938,-0.020020564335979457
6670.515999981153,-0.020012301338513686
6670.516999753368,-0.020002295850999392
6670.517999525583,-0.01999053540320836
6670.518999297799,-0.019977007739886952
6670.519999070014,-0.019961700832657168
6670.520998842229,-0.019944602891748903
6670.521998614444,-0.019925702377552618
6670.522998386659,-0.019904988011982153
6670.523998158875,-0.019882448789638144
6670.52499793109,-0.019858073988762798
6670.525997703306,-0.01983185318197728
6670.526997475521,-0.01980377624679313
6670.527997247736,-0.019773833375889397
6670.528997019951,-0.019742015087147353
6670.529996792167,-0.019708312233434812
6670.530996564382,-0.019672716012132455
6670.531996336597,-0.01963521797439471
6670.532996108812,-0.019595810034138177
6670.533995881027,-0.019554484476750903
6670.534995653243,-0.019511233967516278
6670.535995425458,-0.019466051559745786
6670.536995197674,-0.01941893070261536
6670.537994969889,-0.01936986524870079
6670.538994742104,-0.019318849461208352
6670.539994514319,-0.019265878020897634
6670.540994286534,-0.019210946032694354
6670.54199405875,-0.019154049031991933
6670.542993830965,-0.019095182990641273
6670.54399360318,-0.019034344322628845
6670.544993375395,-0.01897152988944371
6670.545993147611,-0.018906737005134355
6670.546992919826,-0.01883996344105649
6670.547992692042,-0.01877120743031301
6670.548992464257,-0.018700467671887287
6670.549992236472,-0.018627743334471182
6670.550992008687,-0.01855303405998887
6670.551991780902,-0.018476339966817957
6670.552991553118,-0.018397661652709098
6670.553991325333,-0.018317000197405613
6670.554991097548,-0.018234357164964615
6670.555990869763,-0.018149734605781405
6670.556990641979,-0.018063135058319257
6670.557990414194,-0.017974561550547132
6670.55899018641,-0.017884017601088584
6670.559989958624,-0.017791507220085732
6670.56098973084,-0.0176970349097831
6670.561989503055,-0.017600605664836764
6670.56298927527,-0.017502224972355013
6670.563989047486,-0.0174018988116772
6670.5649888197,-0.01729963365389785
6670.565988591916,-0.017195436461143243
6670.566988364131,-0.017089314685607766
6670.567988136347,-0.01698127626835718
6670.568987908562,-0.016871329637905733
6670.569987680778,-0.01675948370857375
6670.570987452992,-0.01664574787863222
6670.571987225208,-0.01653013202824056
6670.572986997423,-0.016412646517183552
6670.573986769638,-0.016293302182413327
6670.574986541854,-0.016172110335402008
6670.575986314068,-0.01604908275931068
6670.576986086284,-0.01592423170598012
6670.577985858499,-0.015797569892748973
6670.578985630715,-0.01566911049910506
6670.57998540293,-0.015538867163175893
6670.5809851751455,-0.015406853978064638
6670.58198494736,-0.01527308548803794
6670.582984719576,-0.015137576684572237
6670.583984491791,-0.015000343002265113
6670.584984264006,-0.014861400314618186
6670.585984036222,-0.014720764929697773
6670.586983808436,-0.014578453585679179
6670.587983580652,-0.014434483446279974
6670.588983352867,-0.014288872096086968
6670.589983125083,-0.014141637535781015
6670.590982897298,-0.01399279817726323
6670.5919826695135,-0.013842372838685653
6670.592982441728,-0.013690380739389064
6670.593982213944,-0.013536841494750217
6670.594981986159,-0.013381775110940429
6670.595981758374,-0.013225201979597239
6670.59698153059,-0.013067142872410594
6670.597981302804,-0.012907618935624894
6670.59898107502,-0.012746651684458309
6670.599980847235,-0.012584262997440851
6670.600980619451,-0.012420475110672898
6670.601980391666,-0.012255310612006083
6670.6029801638815,-0.012088792435148592
6670.603979936096,-0.01192094385369701
6670.604979708312,-0.011751788475096735
6670.605979480527,-0.011581350234532736
6670.606979252742,-0.011409653388752083
6670.607979024958,-0.011236722509819237
6670.608978797172,-0.01106258247880466
6670.609978569388,-0.010887258479406843
6670.610978341603,-0.010710775991507417
6670.611978113819,-0.010533160784658704
6670.612977886034,-0.010354438911502784
6670.6139776582495,-0.010174636701121002
6670.614977430464,-0.00999378075231277
6670.61597720268,-0.009811897926802517
6670.616976974895,-0.009629015342373905
6670.61797674711,-0.00944516036593077
6670.618976519326,-0.009260360606484769
6670.61997629154,-0.009074643908070347
6670.620976063756,-0.008888038342588177
6670.621975835971,-0.008700572202578916
6670.622975608187,-0.008512273993929514
6670.623975380402,-0.008323172428514767
6670.624975152617,-0.008133296416776986
6670.625974924832,-0.007942675060246812
6670.626974697047,-0.007751337644008143
6670.627974469263,-0.007559313629109952
6670.628974241478,-0.007366632644927574
6670.629974013693,-0.007173324481475715
6670.630973785908,-0.006979419081675102
6670.631973558124,-0.006784946533574381
6670.632973330339,-0.006589937062528582
6670.633973102555,-0.006394421023335162
6670.63497287477,-0.006198428892328432
6670.635972646985,-0.006001991259432963
6670.6369724192,-0.005805138820176491
6670.637972191415,-0.005607902367662881
6670.638971963631,-0.005410312784505884
6670.639971735846,-0.005212401034724813
6670.640971508061,-0.005014198155603652
6670.641971280276,-0.004815735249515628
6670.642971052492,-0.004617043475715656
6670.643970824707,-0.004418154042103411
6670.644970596923,-0.004219098196959952
6670.645970369138,-0.00401990722066088
6670.6469701413525,-0.003820612417368868
6670.647969913568,-0.003621245106708208
6670.648969685783,-0.003421836615423683
6670.649969457999,-0.0032224182690257456
6670.650969230214,-0.0030230213834236434
6670.651969002429,-0.0028236772565477905
6670.652968774644,-0.0026244171599624122
6670.65396854686,-0.0024252723304692522
6670.654968319075,-0.002226273961702959
6670.655968091291,-0.0020274531957186945
6670.656967863506,-0.0018288411145725742
6670.6579676357205,-0.0016304687318957679
6670.658967407936,-0.0014323669844634648
6670.659967180151,-0.001234566723760405
6670.660966952367,-0.0010370987075452604
6670.661966724582,-0.0008399935914167113
6670.662966496797,-0.0006432819203845689
6670.663966269012,-0.00044699412044965295
6670.664966041228,-0.0002511604901963518
6670.665965813443,-5.5811192401845085e-05
6670.6669655856585,0.00013902375433409852
6670.667965357874,0.0003333144839349907
6670.6689651300885,0.0005270312911656118
6670.669964902304,0.0007201446399187802
6670.670964674519,0.0009126251714677519
6670.671964446735,0.0011044437126812273
6670.67296421895,0.0012955712841980062
6670.673963991165,0.0014859791085583183
6670.67496376338,0.0016756386182887758
6670.675963535596,0.0018645214639377297
6670.676963307811,0.00205259952205752
6670.6779630800265,0.0022398449031296856
6670.678962852242,0.0024262299594286114
6670.6799626244565,0.002611727292818432
6670.680962396672,0.00279630976247732
6670.681962168887,0.00297995049254261
6670.682961941103,0.003162622879669666
6670.683961713318,0.0033443006004969596
6670.684961485533,0.0035249576190095533
6670.685961257748,0.003704568193793089
6670.686961029964,0.0038831068851704247
6670.687960802179,0.004060548562213261
6670.6889605743945,0.004236868409621399
6670.689960346609,0.004412041934462673
6670.6909601188245,0.00458604497276705
6670.69195989104,0.0047588536959689
6670.692959663255,0.00493044461719201
6670.693959435471,0.005100794597372453
6670.694959207685,0.005269880851215029
6670.695958979901,0.005437680952979527
6670.696958752116,0.005604172842093451
6670.697958524332,0.0057693348285881105
6670.698958296547,0.005933145598355154
6670.6999580687625,0.006095584218220545
6670.700957840977,0.006256630140833017
6670.7019576131925,0.006416263209364001
6670.702957385408,0.006574463662016048
6670.703957157623,0.006731212136337054
6670.704956929839,0.006886489673337933
6670.705956702053,0.007040277721411928
6670.706956474269,0.007192558140054313
6670.707956246484,0.007343313203381908
6670.7089560187,0.007492525603452413
6670.709955790915,0.007640178453384191
6670.7109555631305,0.007786255290277659
6670.711955335345,0.007930740077939894
6670.71295510756,0.008073617209414494
6670.713954879776,0.008214871509319011
6670.714954651991,0.008354488235992528
6670.715954424207,0.008492453083456109
6670.716954196421,0.008628752183188884
6670.717953968637,0.008763372105722495
6670.718953740852,0.008896299862056384
6670.719953513068,0.00902752290489614
6670.720953285283,0.009157029129716705
6670.7219530574985,0.009284806875651865
6670.722952829713,0.009410844926211102
6670.723952601928,0.009535132509824655
6670.724952374144,0.009657659300217539
6670.725952146359,0.009778415416613359
6670.726951918575,0.00989739142376894
6670.727951690789,0.010014578331841098
6670.728951463005,0.010129967596087162
6670.72995123522,0.01024355111640128
6670.730951007436,0.010355321236688777
6670.731950779651,0.010465270744081252
6670.732950551866,0.01057339286799534
6670.733950324081,0.010679681279038445
6670.734950096296,0.010784130087765048
6670.735949868512,0.010886733843287422
6670.736949640727,0.010987487531744701
6670.737949412943,0.011086386574634264
6670.738949185157,0.011183426827009213
6670.739948957373,0.011278604575545354
6670.740948729588,0.011371916536480783
6670.741948501804,0.011463359853430716
6670.742948274019,0.011552932095079892
6670.743948046234,0.011640631252754623
6670.744947818449,0.011726455737876543
6670.745947590664,0.011810404379300117
6670.74694736288,0.011892476420536258
6670.747947135095,0.011972671516864665
6670.748946907311,0.012050989732337971
6670.749946679525,0.012127431536681063
6670.750946451741,0.012201997802089425
6670.751946223956,0.012274689799930669
6670.752945996172,0.012345509197353765
6670.753945768387,0.012414458053810664
6670.7549455406015,0.012481538817495131
6670.755945312817,0.012546754321703591
6670.756945085032,0.012610107781122573
6670.757944857248,0.012671602788047054
6670.758944629463,0.012731243308533391
6670.759944401678,0.012789033678490023
6670.760944173893,0.012844978599708349
6670.761943946109,0.012899083135835586
6670.762943718324,0.01295135270829096
6670.76394349054,0.01300179309212608
6670.764943262755,0.013050410411830414
6670.7659430349695,0.013097211137082697
6670.766942807185,0.013142202078449412
6670.7679425794,0.013185390383031785
6670.768942351616,0.013226783530063102
6670.769942123831,0.013266389326458598
6670.770941896046,0.013304215902320629
6670.771941668261,0.01334027170640221
6670.772941440477,0.013374565501532421
6670.773941212692,0.013407106360007566
6670.774940984908,0.013437903658952281
6670.775940757123,0.013466967075655072
6670.7769405293375,0.013494306582882728
6670.777940301553,0.013519932444178073
6670.778940073768,0.013543855209145271
6670.779939845984,0.01356608570872642
6670.780939618199,0.013586635050472771
6670.781939390414,0.013605514613813525
6670.782939162629,0.013622736045324673
6670.783938934845,0.013638311254000213
6670.78493870706,0.013652252406527954
6670.785938479276,0.013664571922572234
6670.786938251491,0.013675282470066073
6670.7879380237055,0.013684396960515516
6670.788937795921,0.0136919285443192
6670.789937568136,0.013697890606106444
6670.790937340352,0.013702296760097378
6670.791937112567,0.013705160845488762
6670.792936884782,0.013706496921869241
6670.793936656997,0.013706319264667968
6670.794936429213,0.013704642360640357
6670.795936201428,0.013701480903394826
6670.796935973644,0.013696849788964153
6670.797935745859,0.013690764111424792
6670.798935518073,0.013683239158567033
6670.799935290289,0.013674290407618389
6670.800935062504,0.013663933521022006
6670.80193483472,0.013652184342271289
6670.802934606935,0.01363905889180153
6670.80393437915,0.013624573362938977
6670.804934151365,0.013608744117907657
6670.805933923581,0.01359158768389418
6670.806933695796,0.013573120749170962
6670.807933468012,0.013553360159278445
6670.808933240227,0.013532322913267067
6670.809933012441,0.013510026159999966
6670.810932784657,0.013486487194517489
6670.811932556872,0.01346172345446474
6670.812932329088,0.013435752516583485
6670.813932101303,0.013408592093269764
6670.814931873518,0.013380260029198577
6670.815931645733,0.013350774298016873
6670.816931417949,0.01332015299910587
6670.817931190164,0.013288414354413379
6670.818930962379,0.013255576705356245
6670.819930734594,0.013221658509792374
6670.820930506809,0.013186678339061174
6670.821930279025,0.013150654875090565
6670.82293005124,0.013113606907568109
6670.823929823456,0.013075553331173453
6670.82492959567,0.013036513142868992
6670.825929367886,0.012996505439245569
6670.826929140101,0.012955549413920157
6670.827928912317,0.01291366435498253
6670.828928684532,0.012870869642488165
6670.829928456747,0.01282718474599487
6670.830928228962,0.012782629222140844
6670.831928001177,0.012737222712262193
6670.832927773393,0.01269098494004813
6670.833927545608,0.012643935709232411
6670.834927317824,0.012596094901319714
6670.835927090038,0.012547482473345868
6670.836926862254,0.012498118455670813
6670.837926634469,0.01244802294980312
6670.838926406685,0.012397216126254624
6670.8399261789,0.01234571822242347
6670.840925951115,0.012293549540503566
6670.84192572333,0.012240730445418149
6670.842925495545,0.012187281362774976
6670.843925267761,0.01213322277684056
6670.844925039976,0.012078575228530784
6670.845924812192,0.012023359313415347
6670.846924584406,0.011967595679733567
6670.847924356622,0.011911305026419313
6670.848924128837,0.011854508101133022
6670.8499239010525,0.011797225698299052
6670.850923673268,0.01173947865714693
6670.851923445483,0.011681287859755309
6670.852923217698,0.011622674229097641
6670.853922989913,0.011563658727088845
6670.854922762129,0.011504262352632357
6670.855922534344,0.011444506139667066
6670.85692230656,0.011384411155213636
6670.857922078774,0.011323998497419475
6670.85892185099,0.011263289293601347
6670.859921623205,0.011202304698284114
6670.8609213954205,0.011141065891233598
6670.861921167636,0.01107959407548111
6670.862920939851,0.011017910475336838
6670.863920712066,0.010956036334389014
6670.864920484281,0.010893992913485914
6670.865920256497,0.010831801488697826
6670.866920028712,0.010769483349256582
6670.867919800928,0.010707059795470554
6670.868919573142,0.010644552136613491
6670.869919345358,0.0105819816887859
6670.870919117573,0.010519369772747929
6670.8719188897885,0.01045673771172293
6670.872918662004,0.010394106829171055
6670.873918434219,0.010331498446532309
6670.874918206434,0.01026893388093861
6670.875917978649,0.010206434442894404
6670.876917750865,0.010144021433925286
6670.87791752308,0.010081716144193844
6670.878917295296,0.010019539850081584
6670.87991706751,0.009957513811735276
6670.880916839726,0.009895659270575492
6670.881916611941,0.009833997446764666
6670.8829163841565,0.009772549536631472
6670.883916156372,0.00971133671004812
6670.884915928586,0.009650380107757038
6670.885915700802,0.009589700838643448
6670.886915473017,0.009529319976950593
6670.887915245233,0.00946925855943467
6670.888915017448,0.009409537582456894
6670.889914789663,0.00935017799901056
6670.890914561878,0.009291200715681317
6670.891914334094,0.00923262658953931
6670.892914106309,0.009174476424962096
6670.8939138785245,0.009116770970387577
6670.89491365074,0.009059530914996375
6670.895913422954,0.009002776885323175
6670.89691319517,0.008946529441796603
6670.897912967385,0.008890809075207017
6670.898912739601,0.008835636203101287
6670.899912511816,0.008781031166103221
6670.900912284031,0.008727014224157914
6670.901912056246,0.008673605552697854
6670.902911828462,0.008620825238728326
6670.903911600677,0.0085686932768295
6670.9049113728925,0.008517229565072629
6670.905911145108,0.008466453900847968
6670.906910917322,0.00841638597660245
6670.907910689538,0.008367045375485598
6670.908910461753,0.008318451566902776
6670.909910233969,0.0082706239019755
6670.910910006184,0.008223581608909104
6670.911909778399,0.008177343788268704
6670.912909550614,0.00813192940816499
6670.91390932283,0.008087357299351887
6670.914909095045,0.008043646150238648
6670.91590886726,0.008000814501819227
6670.916908639476,0.007958880742522016
6670.91790841169,0.00791786310298303
6670.918908183906,0.007877779650745481
6670.919907956121,0.007838648284888377
6670.920907728337,0.007800486730586519
6670.921907500552,0.00776331253360392
6670.922907272767,0.007727143054722475
6670.923907044982,0.0076919954641076526
6670.924906817198,0.007657886735613059
6670.925906589413,0.007624833641025995
6670.926906361628,0.007592852744256508
6670.927906133844,0.007561960395472932
6670.928905906058,0.007532172725187377
6670.929905678274,0.007503505638295178
6670.930905450489,0.007475974808072764
6670.931905222705,0.0074495956701389485
6670.93290499492,0.0074243834163850286
6670.933904767135,0.007400352988879477
6670.93490453935,0.007377519073753309
6670.9359043115655,0.007355896095072419
6670.936904083781,0.007335498208703238
6670.937903855996,0.0073163392961779405
6670.938903628212,0.007298432958565145
6670.939903400426,0.007281792510351534
6670.940903172642,0.007266430973339247
6670.941902944857,0.007252361070563337
6670.942902717073,0.007239595220233042
6670.943902489288,0.007228145529700233
6670.944902261503,0.007218023789458267
6670.945902033718,0.0072092414671743816
6670.9469018059335,0.007201809701758951
6670.947901578149,0.007195739297475122
6670.948901350364,0.007191040718092645
6670.949901122579,0.0071877240810900266
6670.950900894794,0.007185799151909383
6670.95190066701,0.007185275338268637
6670.952900439225,0.0071861616845358064
6670.953900211441,0.007188466866170312
6670.954899983655,0.0071921991842361895
6670.955899755871,0.007197366559992087
6670.956899528086,0.007203976529562711
6670.9578993003015,0.007212036238696143
6670.958899072517,0.007221552437610987
6670.959898844732,0.007232531475936885
6670.960898616947,0.007244979297751417
6670.961898389162,0.007258901436715989
6670.962898161378,0.007274303011312975
6670.963897933593,0.0072911887201862055
6670.964897705809,0.007309562837586875
6670.965897478023,0.007329429208927048
6670.966897250239,0.0073507912464430706
6670.967897022454,0.007373651924971458
6670.9688967946695,0.007398013777840001
6670.969896566885,0.007423878892877028
6670.9708963391,0.0074512489085419185
6670.971896111315,0.007480125010180121
6670.97289588353,0.0075105079264059845
6670.973895655746,0.007542397925616787
6670.974895427961,0.007575794812641331
6670.975895200177,0.0076106979255263435
6670.976894972391,0.00764710613246368
6670.977894744607,0.007685017828860901
6670.978894516822,0.007724430934557152
6670.9798942890375,0.007765342891185534
6670.980894061253,0.007807750659682248
6670.981893833468,0.00785165071794192
6670.982893605683,0.007897039058617687
6670.983893377898,0.007943911187063956
6670.984893150114,0.007992262119419285
6670.985892922329,0.008042086380826565
6670.986892694545,0.008093378003787635
6670.987892466759,0.008146130526649533
6670.988892238975,0.00820033699221978
6670.98989201119,0.008255989946508367
6670.9908917834055,0.008313081437594341
6670.991891555621,0.00837160301461519
6670.992891327836,0.00843154572687739
6670.993891100051,0.008492900123086792
6670.994890872266,0.008555656250697577
6670.995890644482,0.008619803655378703
6670.996890416697,0.008685331380596671
6670.997890188913,0.00875222796731329
6670.998889961127,0.008820481453796665
6670.999889733343,0.008890079375543116
6671.000889505558,0.008961008765307055
6671.001889277773,0.009033256153235183
6671.002889049989,0.009106807567100788
6671.003888822204,0.009181648532633473
6671.004888594419,0.009257764073939415
6671.005888366634,0.009335138714007152
6671.00688813885,0.009413756475294056
6671.007887911065,0.009493600880388826
6671.008887683281,0.009574654952745593
6671.009887455495,0.009656901217485555
6671.010887227711,0.009740321702262338
6671.011886999926,0.009824897938187575
6671.012886772141,0.009910610960813554
6671.013886544357,0.009997441311170098
6671.014886316571,0.010085369036853246
6671.015886088787,0.010174373693163609
6671.016885861002,0.010264434344292512
6671.017885633218,0.010355529564554287
6671.018885405433,0.010447637439663067
6671.019885177648,0.010540735568052427
6671.020884949863,0.010634801062236104
6671.021884722079,0.010729810550207983
6671.022884494294,0.010825740176879461
6671.023884266509,0.010922565605552426
6671.024884038725,0.011020262019426288
6671.025883810939,0.011118804123137972
6671.026883583155,0.011218166144334225
6671.02788335537,0.011318321835276276
6671.028883127586,0.011419244474477624
6671.029882899801,0.01152090686837634
6671.030882672016,0.011623281353043913
6671.031882444231,0.011726339795933249
6671.032882216447,0.01183005359766901
6671.033881988662,0.011934393693883839
6671.034881760877,0.012039330557104547
6671.035881533093,0.01214483419869265
6671.036881305307,0.012250874170843907
6671.037881077523,0.012357419568651709
6671.038880849738,0.012464439032239096
6671.039880621954,0.012571900748964087
6671.040880394169,0.012679772455702797
6671.041880166384,0.012788021441214544
6671.042879938599,0.012896614548593028
6671.043879710815,0.013005518177807644
6671.04487948303,0.013114698288339091
6671.045879255245,0.013224120401913755
6671.046879027461,0.01333374960534168
6671.047878799675,0.013443550553463421
6671.048878571891,0.013553487472211488
6671.049878344106,0.013663524161792626
6671.050878116322,0.013773623999997492
6671.051877888537,0.01388374994564467
6671.052877660752,0.013993864542166213
6671.053877432967,0.014103929921342215
6671.054877205183,0.014213907807192016
6671.055876977398,0.014323759520029865
6671.056876749613,0.014433445980692884
6671.057876521829,0.014542927714948977
6671.058876294043,0.014652164858092141
6671.059876066259,0.014761117159732186
6671.060875838474,0.01486974398878535
6671.06187561069,0.014978004338671764
6671.062875382905,0.015085856832725298
6671.06387515512,0.015193259729820911
6671.064874927335,0.015300170930224474
6671.065874699551,0.015406547981670009
6671.066874471766,0.015512348085669361
6671.067874243981,0.015617528104059647
6671.068874016197,0.015722044565794104
6671.069873788411,0.01582585367398234
6671.070873560627,0.015928911313186262
6671.071873332842,0.016031173056978227
6671.072873105058,0.01613259417576815
6671.073872877273,0.016233129644906544
6671.074872649488,0.01633273415307048
6671.075872421703,0.01643136211093957
6671.076872193919,0.01652896766016883
6671.077871966134,0.016625504682665146
6671.078871738349,0.016720926810173432
6671.079871510564,0.016815187434178133
6671.080871282779,0.016908239716124856
6671.081871054995,0.017000036597966263
6671.08287082721,0.01709053081303566
6671.083870599426,0.017179674897251234
6671.08487037164,0.017267421200653575
6671.085870143856,0.017353721899278907
6671.086869916071,0.017438529007370543
6671.087869688286,0.017521794389931202
6671.088869460502,0.01760346977561897
6671.089869232717,0.017683506769989962
6671.090869004932,0.0177618568690909
6671.091868777147,0.01783847147340487
6671.092868549363,0.01791330190215376
6671.093868321578,0.01798629940796076
6671.094868093794,0.018057415191876255
6671.095867866008,0.018126600418770403
6671.096867638224,0.018193806233095203
6671.097867410439,0.01825898377501861
6671.098867182654,0.018322084196932535
6671.09986695487,0.018383058680335802
6671.100866727085,0.018441858453092357
6671.1018664993,0.018498434807064163
6671.102866271515,0.01855273911611737
6671.103866043731,0.01860472285449982
6671.104865815946,0.01865433761558739
6671.105865588162,0.018701535130996576
6671.106865360376,0.01874626729006045
6671.107865132592,0.018788486159665333
6671.108864904807,0.018828144004445612
6671.109864677022,0.018865193307334122
6671.110864449238,0.018899586790465713
6671.111864221453,0.018931277436431457
6671.112863993668,0.018960218509880836
6671.113863765883,0.018986363579469045
6671.114863538099,0.019009666540146204
6671.115863310314,0.019030081635784936
6671.11686308253,0.019047563482142225
6671.117862854744,0.019062067090150975
6671.11886262696,0.01907354788953595
6671.119862399175,0.01908196175274798
6671.12086217139,0.019087265019209522
6671.121861943606,0.019089414519863988
6671.122861715821,0.019088367602020474
6671.123861488036,0.01908408215448509
6671.124861260251,0.01907651663296973
6671.125861032467,0.019065630085768816
6671.126860804682,0.019051382179694553
6671.127860576898,0.019033733226261094
6671.128860349112,0.019012644208108078
6671.129860121328,0.01898807680565405
6671.130859893543,0.0189599934239702
6671.131859665758,0.01892835721986471
6671.132859437974,0.018893132129167683
6671.133859210189,0.018854282894206213
6671.134858982404,0.018811775091458302
6671.135858754619,0.01876557515937357
6671.136858526835,0.018715650426347336
6671.13785829905,0.018661969138833192
6671.1388580712655,0.018604500489577316
6671.13985784348,0.01854321464595563
6671.140857615696,0.01847808277839258
6671.141857387911,0.01840907708883759
6671.142857160126,0.018336170839272803
6671.143856932342,0.01825933838022272
6671.144856704556,0.01817855517923399
6671.145856476772,0.018093797849290855
6671.146856248987,0.0180050441771293
6671.147856021203,0.01791227315141048
6671.148855793418,0.017815464990711544
6671.149855565633,0.017714601171289465
6671.150855337848,0.017609664454571183
6671.151855110064,0.017500638914320858
6671.152854882279,0.01738750996343282
6671.153854654494,0.017270264380296642
6671.15485442671,0.017148890334678844
6671.155854198924,0.017023377413063936
6671.15685397114,0.016893716643396183
6671.157853743355,0.016759900519162044
6671.158853515571,0.016621923022752217
6671.159853287786,0.016479779648041478
6671.160853060001,0.016333467422124177
6671.161852832216,0.0161829849261434
6671.162852604432,0.016028332315152546
6671.163852376647,0.01586951133694939
6671.164852148862,0.01570652534982454
6671.165851921078,0.01553937933916855
6671.166851693292,0.01536807993288459
6671.167851465508,0.015192635415556517
6671.168851237723,0.015013055741325526
6671.169851009939,0.01482935254543207
6671.170850782154,0.014641539154383638
6671.171850554369,0.014449630594713148
6671.172850326584,0.014253643600297164
6671.173850098799,0.014053596618207835
6671.174849871015,0.013849509813077105
6671.17584964323,0.013641405069956439
6671.176849415446,0.013429305995659889
6671.17784918766,0.013213237918582643
6671.178848959876,0.012993227886991256
6671.179848732091,0.012769304665785684
6671.180848504307,0.01254149873173693
6671.181848276522,0.012309842267207712
6671.182848048737,0.012074369152367193
6671.183847820952,0.011835114955914487
6671.184847593167,0.011592116924329404
6671.185847365383,0.011345413969672704
6671.186847137598,0.011095046655961826
6671.187846909814,0.010841057184151523
6671.188846682028,0.010583489375751924
6671.189846454244,0.010322388655119339
6671.190846226459,0.010057802030457483
6671.191845998675,0.009789778073568773
6671.19284577089,0.009518366898396984
6671.1938455431045,0.00924362013840385
6671.19484531532,0.008965590922823221
6671.195845087535,0.008684333851837039
6671.196844859751,0.008399904970717789
6671.197844631966,0.008112361742982056
6671.198844404182,0.007821763022599551
6671.199844176396,0.007528169025301396
6671.200843948612,0.0072316412990307555
6671.201843720827,0.006932242693578013
6671.202843493043,0.006630037329441871
6671.203843265258,0.0063250905659569265
6671.2048430374725,0.006017468968727588
6671.205842809688,0.005707240276407623
6671.206842581903,0.005394473366864159
6671.207842354119,0.005079238222764574
6671.208842126334,0.004761605896624382
6671.209841898549,0.004441648475353952
6671.210841670764,0.004119439044341558
6671.21184144298,0.0037950516511099557
6671.212841215195,0.0034685612685833337
6671.213840987411,0.0031400437580011114
6671.214840759626,0.00280957583151463
6671.2158405318405,0.0024772350145022917
6671.216840304056,0.0021430996076381077
6671.217840076271,0.001807248648747849
6671.218839848487,0.0014697618744860606
6671.219839620702,0.0011307196818661142
6671.220839392917,0.0007902030896742699
6671.221839165132,0.0004482936997975298
6671.222838937348,0.0001050736584939163
6671.223838709563,-0.00023937438236721676
6671.2248384817785,-0.0005849673040681243
6671.225838253993,-0.0009316215597829021
6671.2268380262085,-0.0012792532132696519
6671.227837798424,-0.0016277779774897046
6671.228837570639,-0.001977111253129418
6671.229837342855,-0.002327168167000406
6671.23083711507,-0.002677863610294395
6671.231836887285,-0.0030291122766692813
6671.2328366595,-0.0033808287001433203
6671.233836431716,-0.0037329272927748187
6671.234836203931,-0.004085322382105182
6671.2358359761465,-0.0044379282483437196
6671.236835748361,-0.004790659161273304
6671.2378355205765,-0.005143429416856916
6671.238835292792,-0.005496153373526151
6671.239835065007,-0.005848745488134025
6671.240834837223,-0.006201120351555742
6671.241834609438,-0.006553192723922399
6671.242834381653,-0.006904877569473823
6671.243834153868,-0.007256090091017781
6671.244833926084,-0.0076067457639835846
6671.245833698299,-0.007956760370058748
6671.2468334705145,-0.008306050030397673
6671.247833242729,-0.00865453123839166
6671.2488330149445,-0.009002120891989667
6671.24983278716,-0.00934873632555939
6671.250832559375,-0.009694295341278436
6671.251832331591,-0.0100387162400455
6671.252832103806,-0.010381917851901698
6671.253831876021,-0.010723819565952378
6671.254831648236,-0.01106434135977996
6671.255831420452,-0.011403403828338593
6671.256831192667,-0.011740928212321864
6671.2578309648825,-0.012076836425995214
6671.258830737097,-0.012411051084485463
6671.259830509312,-0.012743495530520692
6671.260830281528,-0.013074093860614536
6671.261830053743,-0.013402770950689879
6671.262829825959,-0.013729452481137735
6671.263829598174,-0.014054064961307714
6671.264829370389,-0.01437653575342697
6671.265829142604,-0.0146967930959447
6671.26682891482,-0.015014766126299326
6671.267828687035,-0.015330384903105518
6671.2688284592505,-0.015643580427758007
6671.269828231465,-0.01595428466544905
6671.27082800368,-0.01626243056559641
6671.271827775896,-0.016567952081678574
6671.272827548111,-0.016870784190473873
6671.273827320327,-0.01717086291070037
6671.274827092541,-0.01746812532105324
6671.275826864757,-0.017762509577636632
6671.276826636972,-0.018053954930787187
6671.277826409188,-0.018342401741286617
6671.278826181403,-0.01862779149596138
6671.2798259536185,-0.018910066822667965
6671.280825725833,-0.019189171504663077
6671.281825498048,-0.0194650504943587
6671.282825270264,-0.01973764992646263
6671.283825042479,-0.0200069171305056
6671.284824814695,-0.020272800642756557
6671.285824586909,-0.020535250217527647
6671.286824359125,-0.020794216837870607
6671.28782413134,-0.021049652725666213
6671.288823903556,-0.021301511351108065
6671.289823675771,-0.02154974744158204
6671.2908234479855,-0.021794316989942438
6671.291823220201,-0.022035177262185818
6671.292822992416,-0.022272286804523513
6671.293822764632,-0.022505605449854027
6671.294822536847,-0.022735094323636722
6671.295822309063,-0.022960715849168607
6671.296822081277,-0.02318243375226655
6671.297821853493,-0.023400213065357833
6671.298821625708,-0.023614020130982537
6671.299821397924,-0.023823822604712233
6671.300821170139,-0.02402958945749004
6671.3018209423535,-0.024231290977397908
6671.302820714569,-0.024428898770857573
6671.303820486784,-0.02462238576327192
6671.304820259,-0.024811726199113735
6671.305820031215,-0.024996895641468588
6671.306819803431,-0.025177870971038487
6671.307819575645,-0.025354630384612543
6671.308819347861,-0.025527153393010617
6671.309819120076,-0.025695420818505586
6671.310818892292,-0.025859414791729728
6671.311818664507,-0.026019118748070547
6671.3128184367215,-0.026174517423561455
6671.313818208937,-0.026325596850272713
6671.314817981152,-0.026472344351208214
6671.315817753368,-0.026614748534713954
6671.316817525583,-0.026752799288404374
6671.317817297799,-0.026886487772613224
6671.318817070013,-0.027015806413376146
6671.319816842229,-0.02714074889495295
6671.320816614444,-0.02726131015189839
6671.32181638666,-0.02737748636069084
6671.322816158875,-0.027489274930929175
6671.3238159310895,-0.02759667449610835
6671.324815703305,-0.027699684903984712
6671.32581547552,-0.02779830720654181
6671.326815247736,-0.027892543649567548
6671.327815019951,-0.02798239766185323
6671.328814792167,-0.028067873844024573
6671.329814564381,-0.02814897795701453
6671.330814336597,-0.02822571691018721
6671.331814108812,-0.028298098749121946
6671.332813881028,-0.0283661326430662
6671.333813653243,-0.028429828872065705
6671.3348134254575,-0.028489198813779988
6671.335813197673,-0.028544254929991283
6671.336812969888,-0.028595010752814835
6671.337812742104,-0.028641480870618546
6671.338812514319,-0.02868368091366021
6671.339812286534,-0.02872162753945101
6671.340812058749,-0.028755338417854305
6671.341811830965,-0.028784832215929184
6671.34281160318,-0.02881012858252865
6671.343811375396,-0.02883124813266244
6671.344811147611,-0.028848212431634594
6671.345810919825,-0.028861043978965818
6671.346810692041,-0.02886976619211045
6671.347810464256,-0.028874403389977474
6671.348810236472,-0.028874980776264773
6671.349810008687,-0.02887152442261539
6671.350809780902,-0.028864061251604414
6671.351809553117,-0.02885261901956472
6671.352809325333,-0.02883722629925955
6671.353809097548,-0.028817912462409945
6671.354808869764,-0.028794707662084737
6671.355808641978,-0.028767642814960973
6671.356808414193,-0.028736749583462593
6671.357808186409,-0.028702060357785608
6671.358807958624,-0.028663608237818182
6671.35980773084,-0.02862142701496473
6671.360807503055,-0.028575551153883553
6671.36180727527,-0.028526015774148265
6671.362807047485,-0.028472856631843586
6671.363806819701,-0.02841611010110664
6671.364806591916,-0.028355813155624868
6671.365806364132,-0.028292003350101787
6671.366806136346,-0.028224718801701656
6671.367805908561,-0.028153998171483924
6671.368805680777,-0.028079880645837916
6671.369805452992,-0.028002405917927964
6671.370805225208,-0.027921614169158906
6671.371804997423,-0.027837546050671486
6671.372804769638,-0.02775024266487696
6671.373804541853,-0.027659745547040118
6671.374804314069,-0.027566096646919655
6671.375804086284,-0.02746933831047484
6671.376803858499,-0.02736951326164736
6671.377803630714,-0.027266664584227503
6671.378803402929,-0.027160835703813956
6671.379803175145,-0.027052070369877043
6671.38080294736,-0.026940412637935417
6671.381802719576,-0.02682590685185668
6671.382802491791,-0.02670859762629259
6671.383802264006,-0.026588529829259543
6671.384802036221,-0.0264657485648748
6671.385801808437,-0.026340299156258684
6671.386801580652,-0.02621222712861229
6671.387801352867,-0.026081578192479745
6671.388801125082,-0.02594839822720342
6671.389800897297,-0.025812733264579595
6671.390800669513,-0.025674629472721804
6671.391800441728,-0.02553413314013821
6671.392800213944,-0.025391290660028917
6671.393799986159,-0.025246148514808595
6671.394799758374,-0.025098753260859304
6671.395799530589,-0.02494915151351801
6671.3967993028045,-0.024797389932302915
6671.39779907502,-0.024643515206382582
6671.398798847235,-0.024487574040291754
6671.39979861945,-0.02432961313989783
6671.400798391665,-0.024169679198622052
6671.401798163881,-0.024007818883919563
6671.402797936096,-0.023844078824022372
6671.403797708312,-0.023678505594949235
6671.404797480526,-0.02351114570778612
6671.405797252742,-0.02334204559624039
6671.406797024957,-0.023171251604471414
6671.4077967971725,-0.02299880997519954
6671.408796569388,-0.022824766838094746
6671.409796341603,-0.022649168198445417
6671.410796113818,-0.022472059926107173
6671.411795886033,-0.022293487744730764
6671.412795658249,-0.022113497221267663
6671.413795430464,-0.02193213375575134
6671.41479520268,-0.02174944257135194
6671.415794974894,-0.021565468704701805
6671.41679474711,-0.02138025699648916
6671.417794519325,-0.0211938520823175
6671.4187942915405,-0.021006298383828427
6671.419794063756,-0.020817640100086
6671.4207938359705,-0.02062792119922114
6671.421793608186,-0.02043718541033507
6671.422793380401,-0.020245476215661067
6671.423793152617,-0.020052836842983937
6671.424792924832,-0.019859310258316745
6671.425792697048,-0.019664939158833876
6671.426792469262,-0.019469765966059233
6671.427792241478,-0.01927383281930773
6671.428792013693,-0.0190771815693776
6671.4297917859085,-0.018879853772490372
6671.430791558124,-0.018681890684474727
6671.4317913303385,-0.018483333255189714
6671.432791102554,-0.01828422212318235
6671.433790874769,-0.018084597610574002
6671.434790646985,-0.017884499718169616
6671.4357904192,-0.017683968120783437
6671.436790191416,-0.017483042162774798
6671.43778996363,-0.01728176085378754
6671.438789735846,-0.01708016286468679
6671.439789508061,-0.01687828652368721
6671.4407892802765,-0.016676169812667275
6671.441789052492,-0.01647385036366456
6671.442788824706,-0.016271365455547568
6671.443788596922,-0.016068752010859815
6671.444788369137,-0.015866046592832084
6671.445788141353,-0.01566328540255871
6671.446787913568,-0.015460504276333584
6671.447787685784,-0.015257738683141226
6671.448787457998,-0.015055023722298017
6671.449787230214,-0.014852394121238196
6671.450787002429,-0.01464988423343888
6671.4517867746445,-0.014447528036478016
6671.45278654686,-0.014245359130218816
6671.453786319074,-0.014043410735113865
6671.45478609129,-0.01384171569062197
6671.455785863505,-0.013640306453730522
6671.456785635721,-0.013439215097576214
6671.457785407936,-0.013238473310157131
6671.458785180152,-0.013038112393129554
6671.459784952366,-0.012838163260683391
6671.460784724582,-0.012638656438490782
6671.461784496797,-0.012439622062723142
6671.462784269012,-0.0122410898791326
6671.463784041228,-0.012043089242194289
6671.464783813442,-0.011845649114306385
6671.465783585658,-0.011648798065044971
6671.466783357873,-0.011452564270470917
6671.467783130089,-0.011256975512485877
6671.468782902304,-0.011062059178234438
6671.469782674519,-0.01086784225954933
6671.470782446734,-0.0106743513524365
6671.47178221895,-0.01048161265659669
6671.472781991165,-0.010289651974980149
6671.47378176338,-0.010098494713371129
6671.474781535596,-0.009908165879998808
6671.47578130781,-0.009718690085171426
6671.476781080026,-0.009530091540930657
6671.477780852241,-0.009342394060723631
6671.478780624457,-0.009155621059090594
6671.479780396672,-0.008969795551366823
6671.480780168887,-0.00878494015339814
6671.481779941102,-0.008601077081270066
6671.4827797133175,-0.008418228151051216
6671.483779485533,-0.008236414778551953
6671.484779257748,-0.008055657979099493
6671.485779029963,-0.00787597836733063
6671.486778802178,-0.0076973961570030655
6671.487778574394,-0.007519931160825962
6671.488778346609,-0.007343602790309948
6671.489778118825,-0.007168430055636505
6671.49077789104,-0.006994431565546331
6671.491777663255,-0.006821625527246142
6671.49277743547,-0.006650029746333251
6671.4937772076855,-0.006479661626737246
6671.494776979901,-0.006310538170678066
6671.495776752116,-0.006142675978639879
6671.496776524331,-0.005976091249360347
6671.497776296546,-0.005810799779835231
6671.498776068762,-0.005646816965338753
6671.499775840977,-0.005484157799460766
6671.500775613193,-0.005322836874162472
6671.501775385408,-0.005162868379853058
6671.502775157623,-0.005004266105490203
6671.503774929838,-0.004847043438707813
6671.5047747020535,-0.004691213365974556
6671.505774474269,-0.004536788472786748
6671.506774246484,-0.004383780943899002
6671.507774018699,-0.004232202563595728
6671.508773790914,-0.004082064716006173
6671.50977356313,-0.003933378385465241
6671.510773335345,-0.0037861541569219137
6671.511773107561,-0.0036404022163965748
6671.512772879776,-0.003496132351488135
6671.513772651991,-0.0033533539519313995
6671.514772424206,-0.003212076010204755
6671.5157721964215,-0.0030723071221879597
6671.516771968637,-0.002934055487869671
6671.517771740852,-0.002797328912104391
6671.518771513067,-0.0026621348054187356
6671.519771285282,-0.002528480184867344
6671.520771057498,-0.002396371674939288
6671.521770829713,-0.002265815508516401
6671.522770601929,-0.0021368175278854954
6671.523770374144,-0.0020093831858068577
6671.524770146359,-0.0018835175466416882
6671.525769918574,-0.0017592252875412945
6671.5267696907895,-0.0016365106997008405
6671.527769463005,-0.001515377689680326
6671.52876923522,-0.001395829780795261
6671.529769007435,-0.0012778701145791823
6671.53076877965,-0.0011615014523197842
6671.531768551866,-0.0010467261766700358
6671.532768324081,-0.0009335462933352522
6671.533768096297,-0.0008219634328367235
6671.534767868511,-0.0007119788523522172
6671.535767640727,-0.000603593437633487
6671.536767412942,-0.0004968077050008971
6671.5377671851575,-0.00039162180341542884
6671.538766957373,-0.00028803551662868744
6671.539766729588,-0.00018604826541200373
6671.540766501803,-8.565910986625839e-05
6671.541766274018,1.3133248185447345e-05
6671.542766046234,0.00011033046271978582
6671.543765818449,0.00020593454094718417
6671.544765590665,0.0002999478406551279
6671.545765362879,0.0003923730674583191
6671.546765135095,0.00048321327195356104
6671.54776490731,0.0005724718467776747
6671.548764679525,0.0006601525235672295
6671.549764451741,0.000746259369819364
6671.550764223955,0.0008307967856534643
6671.551763996171,0.0009137695004739442
6671.552763768386,0.0009951825695348286
6671.553763540602,0.0010750413704072612
6671.554763312817,0.0011533515993514267
6671.555763085033,0.001230119267594655
6671.556762857247,0.0013053506975176149
6671.557762629463,0.0013790525187504972
6671.558762401678,0.0014512316641809024
6671.559762173893,0.0015218953658748633
6671.560761946109,0.001591051150912094
6671.561761718323,0.0016587068371362536
6671.562761490539,0.0017248705288208253
6671.563761262754,0.0017895506122511799
6671.56476103497,0.001852755751223525
6671.565760807185,0.0019144948824617474
6671.566760579401,0.001974777210953579
6671.567760351615,0.00203361220520803
6671.568760123831,0.0020910095924365733
6671.569759896046,0.0021469793536610937
6671.570759668261,0.002201531718752125
6671.571759440477,0.0022546771614013416
6671.572759212691,0.00230642639403267
6671.573758984907,0.0023567903626567233
6671.574758757122,0.002405780241673489
6671.575758529338,0.0024534074286283593
6671.576758301553,0.002499683538926537
6671.577758073769,0.0025446204005106295
6671.578757845983,0.0025882300485057927
6671.579757618199,0.002630524719836194
6671.580757390414,0.0026715168478158593
6671.581757162629,0.0027112190567162645
6671.582756934845,0.0027496441563124095
6671.583756707059,0.0027868051364086347
6671.584756479275,0.0028227151613451572
6671.58575625149,0.0028573875644861938
6671.586756023706,0.002890835842690629
6671.587755795921,0.0029230736507663926
6671.588755568137,0.002954114795910004
6671.589755340351,0.002983973232133128
6671.590755112567,0.0030126630546783457
6671.591754884782,0.0030401984944267283
6671.592754656997,0.0030665939123001437
6671.593754429213,0.0030918637936615365
6671.594754201427,0.0031160227427166408
6671.595753973643,0.003139085476920738
6671.596753745858,0.003161066821394075
6671.597753518074,0.0031819817033494043
6671.598753290289,0.003201845146534852
6671.599753062504,0.0032206722656949044
6671.600752834719,0.0032384782610518498
6671.601752606935,0.0032552784128095664
6671.60275237915,0.0032710880756811308
6671.603752151365,0.0032859226734414143
6671.604751923581,0.0032997976935056706
6671.605751695795,0.003312728681535064
6671.606751468011,0.0033247312360701817
6671.607751240226,0.00333582100319376
6671.608751012442,0.0033460136712241367
6671.609750784657,0.003355324965441221
6671.610750556872,0.0033637706428471126
6671.611750329087,0.003371366486963789
6671.612750101303,0.0033781283026705954
6671.613749873518,0.003384071911084583
6671.614749645733,0.0033892131444870173
6671.615749417948,0.0033935678412996026
6671.616749190163,0.0033971518411140687
6671.617748962379,0.003399980979778675
6671.618748734594,0.003402071084544913
6671.61974850681,0.003403437969277271
6671.620748279025,0.003404097429728339
6671.62174805124,0.003404065238880997
6671.622747823455,0.003403357142358903
6671.623747595671,0.0034019888539061393
6671.624747367886,0.0033999760509366983
6671.625747140101,0.0033973343701544597
6671.626746912316,0.0033940794032444504
6671.627746684531,0.003390226692636379
6671.628746456747,0.003385791727341733
6671.629746228962,0.003380789938866006
6671.630746001178,0.0033752366971979133
6671.631745773393,0.0033691473068777175
6671.632745545608,0.003362537003147024
6671.633745317823,0.0033554209481825403
6671.634745090038,0.0033478142274164287
6671.635744862254,0.003339731845945844
6671.636744634469,0.0033311887250341093
6671.637744406684,0.0033221996987056585
6671.638744178899,0.0033127795104363586
6671.639743951115,0.0033029428099401845
6671.64074372333,0.0032927041500525143
6671.641743495546,0.003282077983709653
6671.642743267761,0.0032710786610236167
6671.643743039976,0.0032597204264508167
6671.644742812191,0.003248017416053047
6671.645742584406,0.003235983654849148
6671.646742356622,0.0032236330542558234
6671.647742128837,0.003210979409616272
6671.648741901052,0.003198036397815575
6671.649741673267,0.0031848175749820003
6671.650741445483,0.003171336374273648
6671.651741217698,0.003157606103750042
6671.652740989914,0.0031436399443284762
6671.653740762129,0.003129450947825096
6671.654740534344,0.00311505203508083
6671.655740306559,0.003100455994172406
6671.656740078774,0.003085675478708649
6671.65773985099,0.0030707230062121315
6671.658739623205,0.0030556109565859748
6671.65973939542,0.0030403515706652036
6671.660739167635,0.003024956948851616
6671.661738939851,0.0030094390498307208
6671.662738712066,0.00299380968936896
6671.663738484282,0.0029780805391892372
6671.664738256496,0.00296226312592272
6671.665738028712,0.0029463688301349994
6671.666737800927,0.0029304088854249046
6671.667737573142,0.0029143943775945956
6671.668737345358,0.002898336243889931
6671.669737117573,0.002882245272310485
6671.670736889788,0.0028661321009889884
6671.671736662003,0.002850007217640328
6671.672736434219,0.002833880959080585
6671.673736206434,0.002817763510816903
6671.67473597865,0.0028016649067092543
6671.675735750864,0.002785595028705372
6671.67673552308,0.002769563606650194
6671.677735295295,0.0027535802181710895
6671.67873506751,0.002737654288639871
6671.679734839726,0.002721795091212179
6671.68073461194,0.002706011746944337
6671.681734384156,0.002690313224987278
6671.682734156371,0.0026747083428566984
6671.683733928587,0.002659205766778369
6671.684733700802,0.002643814012107391
6671.6857334730175,0.0026285414438202447
6671.686733245232,0.0026133962770786457
6671.687733017448,0.00259838657786445
6671.688732789663,0.0025835202636851537
6671.689732561878,0.0025688051043497844
6671.690732334094,0.002554248722815239
6671.691732106308,0.002539858596103318
6671.692731878524,0.0025256420562888623
6671.693731650739,0.0025116062915595434
6671.694731422955,0.0024977583473479565
6671.69573119517,0.002484105127536704
6671.6967309673855,0.0024706533957371117
6671.6977307396,0.002457409776642011
6671.698730511816,0.002444380757452702
6671.699730284031,0.0024315726893797637
6671.700730056246,0.002418991789216895
6671.701729828462,0.002406644140986484
6671.702729600676,0.002394535697655198
6671.703729372892,0.0023826722829176222
6671.704729145107,0.0023710595930458342
6671.705728917323,0.0023597031988028313
6671.706728689538,0.00234860854741787
6671.7077284617535,0.0023377809646220045
6671.708728233968,0.002327225656742382
6671.709728006184,0.0023169477128541617
6671.710727778399,0.002306952106989217
6671.711727550614,0.002297243700401091
6671.71272732283,0.0022878272438859506
6671.713727095044,0.002278707380159533
6671.71472686726,0.0022698886462902386
6671.715726639475,0.002261375476188601
6671.716726411691,0.002253172203153202
6671.717726183906,0.0022452830624727815
6671.7187259561215,0.002237712194083721
6671.719725728336,0.002230463645281373
6671.720725500551,0.0022235413734829285
6671.721725272767,0.002216949249038759
6671.722725044982,0.002210691058088545
6671.723724817198,0.0022047705054581476
6671.724724589412,0.0021991912175930717
6671.725724361628,0.0021939567455245756
6671.726724133843,0.0021890705678648584
6671.727723906059,0.0021845360938283335
6671.728723678274,0.0021803566662765787
6671.729723450489,0.002176535564785161
6671.730723222704,0.0021730760087310345
6671.731722994919,0.0021699811603996073
6671.732722767135,0.002167254128110815
6671.73372253935,0.002164897969363634
6671.734722311566,0.002162915693998497
6671.73572208378,0.0021613102673769913
6671.736721855996,0.0021600846135780474
6671.737721628211,0.002159241618609527
6671.738721400427,0.0021587841336336484
6671.739721172642,0.0021587149782041236
6671.740720944857,0.002159036943512237
6671.741720717072,0.002159752795638495
6671.742720489287,0.0021608652788059905
6671.743720261503,0.002162377118631316
6671.744720033718,0.002164291025368727
6671.745719805933,0.0021666096971433256
6671.746719578148,0.0021693358231692286
6671.747719350364,0.0021724720869489593
6671.748719122579,0.002176021169450612
6671.749718894795,0.002179985752259637
6671.75071866701,0.002184368520702358
6671.7517184392245,0.0021891721669385733
6671.75271821144,0.0021943993930208104
6671.753717983655,0.002200052913917988
6671.754717755871,0.0022061354605014635
6671.755717528086,0.002212649782491597
6671.756717300301,0.0022195986513630257
6671.757717072516,0.002226984863206768
6671.758716844732,0.002234811241546976
6671.759716616947,0.0022430806401097145
6671.760716389163,0.0022517959455405287
6671.761716161378,0.0022609600800669043
6671.7627159335925,0.002270576004101061
6671.763715705808,0.002280646718777984
6671.764715478023,0.002291175268423231
6671.765715250239,0.0023021647429449063
6671.766715022454,0.002313618280144259
6671.767714794669,0.0023255390679396033
6671.768714566884,0.0023379303464986295
6671.7697143391,0.0023507954102745966
6671.770714111315,0.002364137609942381
6671.7717138835305,0.002377960354230822
6671.772713655746,0.0023922671116482484
6671.7737134279605,0.0024070614120985
6671.774713200176,0.0024223468483850997
6671.775712972391,0.0024381270776015146
6671.776712744607,0.002454405822405605
6671.777712516822,0.0024711868721763977
6671.778712289037,0.0024884740840512153
6671.779712061252,0.0025062713838409933
6671.780711833468,0.0025245827668213365
6671.781711605683,0.002543412298396585
6671.7827113778985,0.00256276411463394
6671.783711150114,0.002582642422664617
6671.7847109223285,0.0026030515009490642
6671.785710694544,0.002623995699403536
6671.786710466759,0.002645479439385699
6671.787710238975,0.0026675072135374425
6671.78871001119,0.002690083585483555
6671.789709783405,0.0027132131893854382
6671.79070955562,0.00273690072934947
6671.791709327836,0.0027611509786900357
6671.792709100051,0.0027859687790476135
6671.7937088722665,0.0028113590393626883
6671.794708644481,0.0028373267347065884
6671.7957084166965,0.002863876904970636
6671.796708188912,0.0028910146534151695
6671.797707961127,0.0029187451450799705
6671.798707733343,0.0029470736050574782
6671.799707505558,0.002976005316629795
6671.800707277773,0.003005545619270077
6671.801707049988,0.0030356999065084636
6671.802706822204,0.003066473623662338
6671.803706594419,0.003097872265430491
6671.8047063666345,0.0031299013733506937
6671.805706138849,0.003162566533120365
6671.8067059110645,0.0031958733717803284
6671.80770568328,0.003229827554762073
6671.808705455495,0.0032644347827994677
6671.809705227711,0.0032997007887063863
6671.810704999925,0.0033356313340222226
6671.811704772141,0.003372232205527786
6671.812704544356,0.003409509211634548
6671.813704316572,0.0034474681786507005
6671.814704088787,0.0034861149469278996
6671.8157038610025,0.003525455366892934
6671.816703633217,0.003565495294968806
6671.817703405432,0.003606240589389793
6671.818703177648,0.0036476971059149813
6671.819702949863,0.003689870693444491
6671.820702722079,0.0037327671895422566
6671.821702494293,0.003776392415868791
6671.822702266509,0.0038207521735270085
6671.823702038724,0.003865852238323903
6671.82470181094,0.003911698355950791
6671.825701583155,0.003958296237084869
6671.8267013553705,0.004005651552415047
6671.827701127585,0.00405376992759532
6671.8287008998,0.004102656938129302
6671.829700672016,0.004152318104189932
6671.830700444231,0.004202758885378713
6671.831700216447,0.004253984675429183
6671.832699988661,0.004306000796859567
6671.833699760877,0.004358812495579865
6671.834699533092,0.004412424935458832
6671.835699305308,0.004466843192856569
6671.836699077523,0.00452207225112852
6671.837698849738,0.004578116995106703
6671.838698621953,0.004634982205563813
6671.839698394168,0.004692672553665488
6671.840698166384,0.004751192595415539
6671.841697938599,0.004810546766098434
6671.842697710815,0.004870739374722783
6671.843697483029,0.004931774598469178
6671.844697255245,0.004993656477145416
6671.84569702746,0.0050563889076521
6671.846696799676,0.005119975638461626
6671.847696571891,0.0051844202641137946
6671.848696344106,0.005249726219731539
6671.849696116321,0.0053158967755605685
6671.850695888536,0.0053829350315370535
6671.851695660752,0.005450843911887738
6671.852695432967,0.005519626159767125
6671.853695205183,0.005589284331936545
6671.854694977397,0.005659820793490042
6671.855694749613,0.005731237712631964
6671.856694521828,0.005803537055511053
6671.857694294044,0.005876720581115476
6671.858694066259,0.005950789836232775
6671.8596938384735,0.006025746150478067
6671.860693610689,0.006101590631393146
6671.861693382904,0.0061783241596184086
6671.86269315512,0.0062559473841389355
6671.863692927335,0.006334460717605634
6671.864692699551,0.00641386433173207
6671.865692471765,0.0064941581527676075
6671.866692243981,0.006575341857047615
6671.867692016196,0.0066574148666217045
6671.868691788412,0.006740376344961266
6671.869691560627,0.00682422519274789
6671.8706913328415,0.00690896004374451
6671.871691105057,0.006994579260751399
6671.872690877272,0.0070810809316493245
6671.873690649488,0.007168462865532377
6671.874690421703,0.007256722588933141
6671.875690193918,0.007345857342142931
6671.876689966133,0.007435864075629811
6671.877689738349,0.007526739446556912
6671.878689510564,0.0076184798154032935
6671.87968928278,0.00771108124268909
6671.880689054995,0.007804539485806178
6671.8816888272095,0.007898849995955078
6671.882688599425,0.007994007915188275
6671.88368837164,0.00809000807355983
6671.884688143856,0.008186844986380894
6671.885687916071,0.008284512851580743
6671.886687688286,0.00838300554717301
6671.887687460501,0.00848231662882705
6671.888687232717,0.008582439327544598
6671.889687004932,0.008683366547442301
6671.890686777148,0.00878509086364082
6671.891686549363,0.008887604520261563
6671.8926863215775,0.008990899428532206
6671.893686093793,0.009094967165002191
6671.894685866008,0.009199798969869414
6671.895685638224,0.00930538574541909
6671.896685410439,0.00941171805457543
6671.897685182654,0.009518786119566247
6671.898684954869,0.009626579820699834
6671.899684727085,0.009735088695252648
6671.9006844993,0.009844301936465325
6671.901684271516,0.009954208392643736
6671.902684043731,0.010064796566361006
6671.903683815945,0.010176054613755856
6671.904683588161,0.01028797034392238
6671.905683360376,0.01040053121838633
6671.906683132592,0.01051372435066309
6671.907682904807,0.010627536505892977
6671.908682677022,0.010741954100549908
6671.909682449237,0.010856963202220156
6671.910682221453,0.010972549529448454
6671.911681993668,0.011088698451649419
6671.912681765884,0.011205394989082754
6671.913681538099,0.011322623812891246
6671.914681310313,0.011440369245200964
6671.915681082529,0.01155861525928336
6671.916680854744,0.011677345479779236
6671.91768062696,0.011796543182984507
6671.918680399175,0.011916191297197497
6671.91968017139,0.012036272403127176
6671.920679943605,0.012156768734361221
6671.921679715821,0.01227766217789229
6671.922679488036,0.01239893427470037
6671.923679260251,0.012520566220388735
6671.924679032466,0.012642538865870849
6671.925678804681,0.012764832718105627
6671.926678576897,0.012887427940878694
6671.927678349112,0.013010304355627604
6671.928678121328,0.01313344144230935
6671.929677893543,0.013256818340308996
6671.930677665758,0.013380413849388723
6671.931677437973,0.013504206430676983
6671.932677210189,0.013628174207697885
6671.933676982404,0.013752294967441347
6671.934676754619,0.01387654616147492
6671.935676526834,0.014000904907098486
6671.936676299049,0.014125347988543356
6671.937676071265,0.01424985185821719
6671.93867584348,0.014374392637996187
6671.939675615696,0.01449894612056579
6671.94067538791,0.014623487770810765
