Time,Filtered_EMG_Bicep,Filtered_EMG_Tricep
6448.942482544423,0.0015568532603838863,0.001037984657309843
6448.943482316638,0.0016323980651283278,0.0010966363875334548
6448.944482088853,0.0017108619060228194,0.0011555014507878966
6448.945481861068,0.0017919868995924658,0.0012141797871312839
6448.946481633284,0.0018754996213144633,0.001272276003610648
6448.947481405499,0.0019611144129026946,0.001329406731108173
6448.948481177715,0.002048536702631108,0.0013852078609847543
6448.949480949929,0.0021374662958437308,0.0014393413907770034
6448.950480722145,0.0022276006028145675,0.0014915016118449687
6448.95148049436,0.0023186378028377907,0.0015414204125564158
6448.952480266576,0.0024102799841222242,0.001588871536549673
6448.953480038791,0.0025022363225478215,0.0016336737004066459
6448.9544798110055,0.002594226362095795,0.0016756925201736872
6448.955479583221,0.0026859834454298517,0.0017148412289406363
6448.956479355436,0.002777258314705148,0.0017510802097625237
6448.957479127652,0.002867822848512421,0.001784415428063367
6448.958478899867,0.002957473817929206,0.001814895914504665
6448.959478672083,0.00304603645304302,0.001842610506254178
6448.960478444297,0.0031333675475588812,0.0018676840847264722
6448.961478216513,0.00321935781958892,0.0018902735372074968
6448.962477988728,0.003303933284177389,0.0019105636189665166
6448.963477760944,0.0033870554450757422,0.001928762820935178
6448.964477533159,0.0034687201582822027,0.0019450992806085545
6448.9654773053735,0.003548955071402137,0.0019598167258408454
6448.966477077589,0.0036278156293549735,0.001973170412662938
6448.967476849804,0.0037053797585599024,0.001985422996893448
6448.96847662202,0.003781741459518513,0.001996840256908936
6448.969476394235,0.003857003611116197,0.002007686573239587
6448.970476166451,0.003931270315144399,0.0020182200913915448
6448.971475938665,0.00400463911242645,0.0020286875557260138
6448.972475710881,0.004077193406930178,0.0020393188930250146
6448.973475483096,0.004148995450455878,0.0020503217191754496
6448.974475255312,0.004220080259327085,0.0020618760097457717
6448.975475027527,0.004290450826593756,0.0020741291960181996
6448.9764747997415,0.004360074923551961,0.002087191928109886
6448.977474571957,0.00442888364285685,0.0021011347043218232
6448.978474344172,0.0044967716487836805,0.0021159855135589635
6448.979474116388,0.004563598919695181,0.002131728583895703
6448.980473888603,0.004629193651313062,0.0021483042880923375
6448.981473660819,0.004693355967872572,0.00216561023682196
6448.982473433033,0.004755862132418514,0.002183503582591056
6448.983473205249,0.004816468995409382,0.0022018045343204615
6448.984472977464,0.004874918452227502,0.0022203010288619736
6448.98547274968,0.004930941732606139,0.0022387544348627464
6448.986472521895,0.004984263448448219,0.002256906102229095
6448.9874722941095,0.005034605458674409,0.002274484531697982
6448.988472066325,0.005081690723291724,0.0022912129220942594
6448.98947183854,0.005125247382626845,0.0023068168474930846
6448.990471610756,0.005165013300146133,0.0023210318126799315
6448.991471382971,0.005200741241995041,0.0023336104301686406
6448.992471155186,0.005232204731340789,0.0023443289622036107
6448.993470927401,0.005259204426719304,0.002352992991028718
6448.994470699617,0.0052815746686413504,0.002359442035584246
6448.995470471832,0.005299189660342138,0.002363553019843451
6448.996470244048,0.005311968629869796,0.002365242585982587
6448.997470016263,0.005319879298075372,0.0023644683013006812
6448.998469788477,0.005322939099445356,0.0023612288285490635
6448.999469560693,0.005321213888490975,0.0023555631385459397
6449.000469332908,0.005314814244054914,0.002347548864216611
6449.001469105124,0.005303889823169869,0.0023372999294347077
6449.002468877339,0.005288622411520419,0.0023249636166298264
6449.003468649554,0.005269218351948276,0.0023107172421397413
6449.004468421769,0.00524590095094341,0.002294764583846142
6449.005468193985,0.005218903336857526,0.002277332172958038
6449.0064679662,0.005188462147226278,0.0022586655451130914
6449.007467738416,0.005154812390362453,0.0022390255418388715
6449.008467510631,0.0051181838183101454,0.0022186847338887174
6449.009467282845,0.005078799091902732,0.0021979239871023127
6449.010467055061,0.005036873887252314,0.002177029124583315
6449.011466827276,0.0049926189226041804,0.0021562875825775854
6449.012466599492,0.004946243725372143,0.002135984926531714
6449.013466371707,0.00489796183176322,0.002116401095435227
6449.014466143922,0.004847997006607875,0.0020978062823129
6449.015465916137,0.004796589982270414,0.0020804564317549817
6449.016465688353,0.0047440051639624945,0.0020645884230167826
6449.017465460568,0.004690536767509678,0.002050415090302983
6449.018465232784,0.00463651395023723,0.002038120297970463
6449.019465004998,0.0045823046300842146,0.0020278543270201514
6449.020464777213,0.00452831780335953,0.002019729832706371
6449.021464549429,0.004475004215577815,0.0020138186056710993
6449.022464321644,0.004422855202526725,0.002010149326207554
6449.02346409386,0.004372399456236744,0.0020087064543503393
6449.024463866075,0.004324197478367397,0.0020094303460353644
6449.02546363829,0.004278833619955498,0.002012218623184656
6449.026463410505,0.0042369058354870485,0.0020169287567084583
6449.027463182721,0.0041990135030003485,0.002023381757154287
6449.028462954936,0.004165743813128156,0.002031366819860325
6449.029462727151,0.004137657309383197,0.002040646743054431
6449.030462499366,0.004115273187087241,0.002050963920633176
6449.031462271581,0.004099054926192012,0.0020620466991239515
6449.032462043797,0.004089396747488829,0.0020736158810877306
6449.033461816012,0.004086611270031054,0.0020853911557792175
6449.034461588228,0.004090918643073097,0.002097097239635229
6449.035461360443,0.004102437361362409,0.002108469518227158
6449.036461132658,0.004121176976262941,0.0021192590127550284
6449.037460904873,0.004147032973609465,0.0021292365557696296
6449.038460677089,0.004179784134454167,0.002138196134709742
6449.039460449304,0.004219092659866037,0.0021459574184283735
6449.040460221519,0.0042645072171139395,0.0021523675097661977
6449.041459993734,0.004315468892486112,0.0021573019766754254
6449.042459765949,0.0043713198590047886,0.0021606652150672014
6449.043459538165,0.004431314409653989,0.002162390186969018
6449.04445931038,0.004494631886522027,0.0021624375596698176
6449.045459082596,0.004560390979944845,0.0021607942617472018
6449.046458854811,0.004627664901365524,0.0021574714863791407
6449.047458627026,0.004695497043403148,0.002152502207900987
6449.048458399241,0.004762916899546311,0.0021459383153807515
6449.0494581714565,0.004828956178517235,0.002137847491258505
6449.050457943672,0.0048926651508779655,0.002128309972334611
6449.051457715887,0.00495312924946467,0.0021174153340654967
6449.052457488102,0.005009485808522595,0.002105259445551499
6449.053457260317,0.005060940629714618,0.0020919417489274317
6449.054457032533,0.005106783895688752,0.002077563009964489
6449.055456804748,0.005146404898821184,0.0020622236536117816
6449.056456576964,0.005179305145727435,0.002046022735754057
6449.057456349178,0.005205109568503089,0.0020290575206085653
6449.058456121394,0.005223575698343265,0.0020114235544900555
6449.059455893609,0.005234600680124422,0.0019932150780952833
6449.0604556658245,0.005238225985151836,0.0019745256163385076
6449.06145543804,0.005234639693079224,0.0019554486226680276
6449.062455210255,0.005224176269818314,0.001936078114266085
6449.06345498247,0.0052073138275294745,0.001916509288231518
6449.064454754685,0.005184668903597756,0.0018968391350311724
6449.065454526901,0.005156988849209499,0.0018771670658780035
6449.066454299116,0.005125141970170527,0.0018575955665701778
6449.067454071332,0.005090105599710671,0.0018382308974200137
6449.068453843546,0.005052952308077513,0.001819183871722928
6449.069453615762,0.005014834471786804,0.0018005707456769005
6449.070453387977,0.004976967417082655,0.0017825142310987955
6449.0714531601925,0.00494061128731919,0.0017651446058178
6449.072452932408,0.004907051666019607,0.0017486008577704186
6449.073452704623,0.0048775788747075855,0.0017330317677187676
6449.074452476838,0.0048534658379491315,0.0017185968196910626
6449.075452249053,0.004835944504434137,0.001705466825080047
6449.076452021269,0.004826180994759345,0.0016938241467854933
6449.077451793484,0.004825249851371366,0.001683862419172005
6449.0784515657,0.004834107970466481,0.0016757856917373184
6449.079451337914,0.0048535689954420725,0.0016698069712625845
6449.08045111013,0.004884279103305164,0.0016661461739128957
6449.081450882345,0.004926695152732588,0.001665027515745539
6449.0824506545605,0.004981066064787242,0.0016666763761269336
6449.083450426776,0.005047418120714096,0.0016713156733112132
6449.08445019899,0.005125544659638279,0.0016791618010958903
6449.085449971206,0.005215000496689633,0.001690420190366135
6449.086449743421,0.0053151012720062465,0.0017052805707293902
6449.087449515637,0.005424927871023743,0.001723912008572772
6449.088449287852,0.0055433360086559105,0.0017464577944618141
6449.089449060068,0.0056689710099171306,0.0017730302559189357
6449.090448832282,0.005800287700565757,0.0018037055848011112
6449.091448604498,0.005935575129530404,0.001838518784591486
6449.092448376713,0.0060729856176454594,0.0018774588569194868
6449.0934481489285,0.006210567418830438,0.0019204643693168755
6449.094447921144,0.006346300121831287,0.001967419587597168
6449.095447693358,0.00647813180743808,0.002018151396961646
6449.096447465574,0.006604016889982271,0.002072427241172478
6449.097447237789,0.006721953540615628,0.0021299542683905883
6449.098447010005,0.00683001969187607,0.0021903798059683863
6449.09944678222,0.006926406885561352,0.0022532932231348413
6449.100446554436,0.0070094515384233795,0.002318229196888653
6449.10144632665,0.007077663387364485,0.002384672366678361
6449.102446098866,0.007129750849725798,0.002452063326338199
6449.103445871081,0.0071646428463928115,0.002519805847364947
6449.1044456432965,0.007181506422171125,0.00258727517054559
6449.105445415512,0.007179759417849339,0.002653827162314728
6449.106445187726,0.0071590776166041425,0.0027188081072675534
6449.107444959942,0.007119396190807678,0.002781564884312678
6449.108444732157,0.007060905754045362,0.0028414552514935336
6449.109444504373,0.006984043678521293,0.002897857966299962
6449.110444276588,0.006889481473120807,0.0029501825084706085
6449.111444048804,0.0067781089762595755,0.0029978782342119934
6449.112443821018,0.006651016016409393,0.003040442846193489
6449.113443593234,0.006509472132445198,0.003077430098359618
6449.114443365449,0.006354904956559973,0.0031084566690488917
6449.115443137664,0.006188877895023937,0.003133208137226652
6449.11644290988,0.006013067713653219,0.0031514439933199674
6449.117442682094,0.00582924250575021,0.0031630016098732547
6449.11844245431,0.005639240325856625,0.0031677990813332273
6449.119442226525,0.005444948585714117,0.003165836816240707
6449.120441998741,0.005248284182968502,0.003157197743965237
6449.121441770956,0.005051174282540613,0.003142045999174569
6449.122441543171,0.004855537687468304,0.003120623978257885
6449.123441315386,0.004663266801566514,0.0030932477291091584
6449.124441087602,0.004476210262104277,0.0030603007428690403
6449.125440859817,0.004296156360727034,0.0030222263413296115
6449.126440632032,0.00412481735509366,0.0029795189491558117
6449.127440404248,0.003963814722435567,0.002932714575993888
6449.128440176462,0.003814665362402817,0.002882380820981934
6449.129439948678,0.0036787687528371557,0.0028291066765367286
6449.130439720893,0.003557395094282497,0.0027734923675787632
6449.131439493109,0.0034516745117946614,0.0027161394363161904
6449.132439265324,0.0033625873857568963,0.0026576412898248417
6449.133439037539,0.003290955855219704,0.002598574457402801
6449.134438809754,0.003237436492001404,0.002539490815356093
6449.1354385819695,0.0032025140940704277,0.0024809109975476216
6449.136438354185,0.003186496507678964,0.0024233191305679746
6449.1374381264,0.0031895103855765633,0.0023671589442988273
6449.138437898616,0.0032114978482071996,0.002312831232715481
6449.13943767083,0.003252214129277979,0.0022606925790021127
6449.140437443046,0.0033112264090452426,0.0022110552073538784
6449.141437215261,0.0033879141177253634,0.002164187772690365
6449.142436987477,0.0034814710168227818,0.0021203168484098564
6449.143436759692,0.003590909358965913,0.0020796288400942065
6449.144436531907,0.0037150664032392627,0.0020422720666308097
6449.145436304122,0.0038526135249784543,0.0020083588142377766
6449.1464360763375,0.004002068112097815,0.001977967254303964
6449.147435848553,0.004161808397066866,0.0019511431853846838
6449.148435620768,0.004330091336257877,0.0019279016005530353
6449.149435392983,0.004505073597480413,0.0019082281069359181
6449.150435165198,0.0046848356288437445,0.0018920802468574078
6449.151434937414,0.0048674086505594155,0.0018793887861381583
6449.152434709629,0.005050804243738299,0.0018700590368344867
6449.153434481845,0.005233046018173207,0.0018639722672553923
6449.15443425406,0.005412202642987647,0.001860987224959672
6449.155434026275,0.005586421348353472,0.0018609417679412846
6449.15643379849,0.005753960871525751,0.0018636545801092262
6449.1574335707055,0.0059132227184984345,0.0018689269488599818
6449.158433342921,0.006062779534357733,0.0018765446015855864
6449.159433115136,0.006201399354078893,0.001886279625537219
6449.160432887351,0.006328064623154399,0.0018978925252331035
6449.161432659566,0.006441985195120153,0.0019111344968162577
6449.162432431782,0.00654260497287777,0.0019257500090486565
6449.163432203997,0.006629602293417406,0.0019414797675370347
6449.164431976213,0.006702884422954565,0.0019580641038953166
6449.165431748428,0.006762576628716894,0.0019752467855883057
6449.166431520643,0.006809006305285307,0.0019927791945655274
6449.167431292858,0.006842682634059053,0.0020104247758378595
6449.1684310650735,0.006864272307032444,0.0020279636144675236
6449.169430837289,0.00687457199627858,0.0020451969716587227
6449.170430609504,0.006874478476395355,0.0020619516039844642
6449.171430381719,0.006864957516282431,0.0020780836964161514
6449.172430153934,0.0068470127720672526,0.002093482246227844
6449.17342992615,0.00682165593180737,0.0021080717331770794
6449.174429698365,0.006789879310690563,0.002121813905928051
6449.175429470581,0.006752631970550382,0.002134708525149114
6449.176429242796,0.006710800228794969,0.002146792948927142
6449.177429015011,0.006665193153514606,0.0021581405199503027
6449.178428787226,0.006616533365643966,0.002168857793046228
6449.1794285594415,0.0065654532259212086,0.0021790807117214256
6449.180428331657,0.006512496277074931,0.002188969898048775
6449.181428103872,0.0064581236103709175,0.002198705251788151
6449.182427876087,0.006402724600003348,0.002208480054767922
6449.183427648302,0.006346631198190176,0.002218494758095092
6449.184427420518,0.006290134734081238,0.0022289506184264172
6449.185427192733,0.006233503951185218,0.0022400433538614277
6449.186426964949,0.006177002908100617,0.0022519569919026905
6449.187426737163,0.00612090740626568,0.0022648580627305276
6449.188426509379,0.0060655187860212826,0.002278890252051598
6449.189426281594,0.006011174168815123,0.0022941695820091405
6449.1904260538095,0.00595825244104007,0.0023107801486715695
6449.191425826025,0.005907175479696688,0.002328770421512278
6449.19242559824,0.005858404397068287,0.0023481501114829663
6449.193425370455,0.005812430987891827,0.0023688876365457094
6449.19442514267,0.005769765027431391,0.0023909082429659076
6449.195424914886,0.0057309184370185305,0.0024140928635250506
6449.196424687101,0.005696387507220804,0.002438277804764577
6449.197424459317,0.005666634366730468,0.0024632553534491533
6449.198424231531,0.005642068773218292,0.0024887753755740644
6449.199424003747,0.005623031127559024,0.002514547950576161
6449.200423775962,0.005609777406246466,0.0025402470468202953
6449.201423548177,0.0056024665002555535,0.002565515210635843
6449.202423320393,0.005601150269513517,0.0025899692153832816
6449.203423092608,0.005605766479146424,0.0026132066022147966
6449.204422864823,0.005616134661775511,0.002634813039121616
6449.205422637038,0.00563195484221952,0.0026543704212722064
6449.206422409254,0.005652809004001169,0.002671465621462536
6449.207422181469,0.00567816521625423,0.0026856997660902496
6449.208421953685,0.005707384448943235,0.0026966978618993736
6449.209421725899,0.005739730186072487,0.0027041185455925387
6449.210421498115,0.005774380923039461,0.0027076636861230073
6449.21142127033,0.0058104455068044274,0.0027070875445644143
6449.212421042545,0.005846981096573219,0.0027022051913906833
6449.213420814761,0.005883013337736,0.002692899892208033
6449.214420586975,0.0059175581830855405,0.0026791291851707595
6449.215420359191,0.0059496446814817595,0.0026609293717124176
6449.216420131406,0.005978338001406483,0.002638418135239855
6449.217419903622,0.006002761964591467,0.002611795023944587
6449.218419675837,0.006022120404206835,0.002581339617470537
6449.219419448053,0.00603571670914177,0.002547407344743366
6449.220419220267,0.006042970981345053,0.002510423096829143
6449.2214189924825,0.006043434327605684,0.0024708729386682064
6449.222418764698,0.006036799897139542,0.0024292943337199087
6449.223418536913,0.006022910315700443,0.002386265337534804
6449.224418309129,0.006001761171217194,0.0023423931891998016
6449.225418081343,0.0059735002604280624,0.002298302656219296
6449.226417853559,0.005938422479196592,0.0022546244068390752
6449.227417625774,0.005896960505860898,0.002211983626075165
6449.22841739799,0.005849671697530689,0.0021709890671671576
6449.229417170205,0.005797221829131988,0.002132222728500434
6449.230416942421,0.005740366442619817,0.0020962303498980343
6449.231416714635,0.00567993064008812,0.0020635129145380195
6449.2324164868505,0.0056167881497951625,0.0020345193131067474
6449.233416259066,0.005551840440304602,0.0020096402770487173
6449.234416031281,0.005485996583140853,0.0019892036276958932
6449.235415803497,0.0054201544670550526,0.001973470825991758
6449.236415575711,0.005355183828634005,0.001962634749052107
6449.237415347927,0.005291911385588352,0.0019568185732453114
6449.238415120142,0.005231108164981634,0.0019560756211249525
6449.239414892358,0.005173478942888169,0.0019603900376457812
6449.240414664573,0.005119653595663049,0.001969678190481976
6449.241414436789,0.005070180137778609,0.0019837907260551674
6449.242414209003,0.005025519265522909,0.0020025152551042583
6449.2434139812185,0.0049860402632155194,0.0020255796907139544
6449.244413753434,0.004952018108117288,0.0020526563026980814
6449.245413525649,0.0049236315681906,0.0020833665611312132
6449.246413297865,0.004900962094449453,0.0021172868127389455
6449.247413070079,0.004883993388999032,0.002153954785343256
6449.248412842295,0.004872611651046273,0.002192876868172788
6449.24941261451,0.00486660662686511,0.0022335360742080637
6449.250412386726,0.004865673677817077,0.0022754005503930613
6449.251412158941,0.004869417093500871,0.0023179324606583023
6449.252411931156,0.004877354806210154,0.002360597026679361
6449.253411703371,0.00488892455921159,0.0024028714780718282
6449.2544114755865,0.004903491513570188,0.002444253649507879
6449.255411247802,0.00492035725750512,0.002484269977764334
6449.256411020017,0.004938770161107649,0.0025224827002884374
6449.257410792233,0.0049579369651712715,0.0025584961339626105
6449.258410564447,0.0049770354276121075,0.002591961997639917
6449.259410336663,0.004995227815146308,0.0026225837970999012
6449.260410108878,0.005011675036574471,0.002650120290004919
6449.261409881094,0.005025551243592256,0.0026743880029386825
6449.262409653309,0.005036058725073482,0.002695262722144796
6449.263409425524,0.005042442858312279,0.0027126798617128542
6449.264409197739,0.0050440067906515895,0.0027266336418691867
6449.2654089699545,0.005040125491687076,0.0027371750666576084
6449.26640874217,0.0050302588880000365,0.002744408735822383
6449.267408514385,0.005013963926106261,0.002748488539759018
6449.268408286601,0.004990905510158455,0.0027496122849543247
6449.269408058815,0.004960866268629009,0.002748015304580434
6449.270407831031,0.004923755026746166,0.0027439631305671112
6449.271407603246,0.00487961373599587,0.002737743340318561
6449.272407375462,0.004828622477246292,0.002729656754283962
6449.273407147677,0.0047711020665359176,0.002720008251514629
6449.274406919892,0.004707513810077537,0.0027090975619098417
6449.275406692107,0.004638456079507726,0.0026972104467053388
6449.2764064643225,0.004564657559781519,0.002684610670931729
6449.277406236538,0.004486967218835704,0.002671533106843193
6449.278406008753,0.004406341232680511,0.00265817820607948
6449.279405780968,0.0043238272322803075,0.0026447079694922205
6449.280405553183,0.00424054630537836,0.0026312434572688817
6449.281405325399,0.004157673230150684,0.002617863832349574
6449.282405097614,0.0040764154733901,0.002604606901301445
6449.28340486983,0.003997991522749026,0.002591471080258594
6449.284404642045,0.003923609088601039,0.002578418662537218
6449.28540441426,0.0038544436035357703,0.0025653802176669746
6449.286404186475,0.0037916173188285367,0.002552259922521165
6449.28740395869,0.0037361792156264846,0.002538941607379744
6449.288403730906,0.0036890859488406913,0.0025252952864918345
6449.289403503121,0.003651184092966469,0.0025111839472910505
6449.290403275336,0.0036231939910410086,0.0024964704107789796
6449.291403047551,0.003605695488121849,0.002481024132059082
6449.292402819767,0.0035991157972875736,0.0024647278393805957
6449.293402591982,0.0036037197439520415,0.0024474838817328593
6449.294402364198,0.00361960264735841,0.0024292200841300724
6449.295402136413,0.003646686078523509,0.002409894842304774
6449.296401908628,0.0036847166672345087,0.002389501169761808
6449.297401680843,0.0037332680419929682,0.0023680694610681632
6449.298401453058,0.0037917459024481752,0.002345668836810824
6449.299401225274,0.003859396150498597,0.0023224070410893007
6449.300400997489,0.003935315939473509,0.0022984289417995194
6449.301400769704,0.004018467440637929,0.0022739137413505923
6449.302400541919,0.004107694076140986,0.0022490710497021704
6449.303400314135,0.004201738922613814,0.0022241360003025976
6449.30440008635,0.004299264939223178,0.0021993636027115493
6449.305399858566,0.00439887661733784,0.002175022531998783
6449.306399630781,0.004499142600402074,0.002151388565006688
6449.307399402996,0.004598618801523335,0.0021287378942448343
6449.308399175211,0.004695871566983139,0.0021073405759592795
6449.309398947426,0.004789500497670279,0.002087454377171717
6449.310398719642,0.004878160628925586,0.0020693192548921603
6449.311398491857,0.004960583753864595,0.0020531526293595314
6449.312398264072,0.005035598734589534,0.002039145521369849
6449.313398036287,0.00510215066460466,0.0020274595313298023
6449.314397808503,0.005159318711033809,0.0020182245595966684
6449.315397580718,0.005206332381947045,0.002011537120095176
6449.316397352934,0.005242585869116048,0.0020074590958059414
6449.317397125148,0.005267650067561009,0.002006016822814245
6449.318396897364,0.005281281916627368,0.002007200447265936
6449.319396669579,0.005283430840738992,0.0020109635533100516
6449.320396441794,0.0052742422331706965,0.0020172231012999804
6449.32139621401,0.005254058046580556,0.0020258597427826675
6449.322395986225,0.00522341458357678,0.002036718583507713
6449.32339575844,0.005183037526577855,0.0020496104397084206
6449.324395530655,0.00513383416039784,0.0020643135862261366
6449.325395302871,0.0050768826904333915,0.002080575954223367
6449.326395075086,0.005013418588572414,0.0020981177263342905
6449.327394847302,0.004944818002020639,0.002116634306404855
6449.328394619516,0.0048725783921906496,0.002135799694429077
6449.329394391732,0.004798296691053428,0.0021552703420543765
6449.330394163947,0.00472364535316715,0.0021746895727725825
6449.331393936162,0.004650346728000404,0.0021936926249092915
6449.332393708378,0.004580146164067592,0.00221191233582211
6449.333393480593,0.0045147841983406885,0.002228985442147496
6449.334393252808,0.00445596813426399,0.002244559414957328
6449.335393025023,0.004405343321342879,0.0022582996782450453
6449.336392797239,0.004364464522773322,0.002269896993872079
6449.337392569454,0.004334767848220655,0.0022790747590949816
6449.3383923416695,0.0043175437815941775,0.0022855959537829776
6449.339392113884,0.0043139118281540914,0.002289269470070314
6449.3403918861,0.004324797261132803,0.0022899555412348132
6449.341391658315,0.004350910393751735,0.0022875699723969504
6449.34239143053,0.004392728746916106,0.0022820868911693245
6449.343391202746,0.004450482426049685,0.0022735397940937523
6449.34439097496,0.0045241429800567355,0.002262020756447239
6449.345390747176,0.00461341601504443,0.0022476777859649394
6449.346390519391,0.00471773787110412,0.002230710420865715
6449.347390291607,0.004836276710038498,0.002211363778509015
6449.348390063822,0.004967938375456746,0.0021899213389171826
6449.3493898360375,0.005111377357335666,0.0021666968004204544
6449.350389608252,0.005265013105675767,0.002142025377343763
6449.351389380468,0.005427051782361121,0.002116254916859658
6449.352389152683,0.005595513331114124,0.0020897371926963653
6449.353388924898,0.005768263516226929,0.002062819695794902
6449.354388697114,0.005943050354958536,0.002035838193434468
6449.355388469328,0.006117544145312438,0.002009110272058925
6449.356388241544,0.0062893800632440235,0.0019829300188062486
6449.357388013759,0.006456202081688177,0.001957563935168504
6449.358387785975,0.006615706783620309,0.0019332481142321644
6449.35938755819,0.006765685561651805,0.001910186654000423
6449.3603873304055,0.006904063785894994,0.0018885512292041858
6449.36138710262,0.007028935804725613,0.001868481704192772
6449.362386874836,0.007138595043736592,0.0018500876326447073
6449.363386647051,0.007231558840685039,0.0018334504485290157
6449.364386419266,0.007306587898643739,0.0018186261145018586
6449.365386191482,0.007362700378155388,0.001805647980077596
6449.366385963696,0.007399180772327939,0.0017945296255008603
6449.367385735912,0.007415583859793171,0.0017852675201093934
6449.368385508127,0.007411734169850748,0.001777843393581993
6449.369385280343,0.007387721467257376,0.0017722263013268424
6449.370385052558,0.0073438927665768535,0.0017683744480723798
6449.3713848247735,0.007280841352914377,0.0017662368829782966
6449.372384596988,0.00719939324355103,0.0017657551736822157
6449.373384369203,0.007100591475729506,0.0017668651231580752
6449.374384141419,0.006985678541140562,0.0017694985494803893
6449.375383913634,0.006856077188483462,0.0017735851296225788
6449.37638368585,0.0067133696648707395,0.0017790543171966704
6449.377383458064,0.006559275301419354,0.001785837364583975
6449.37838323028,0.006395626269573918,0.0017938694864516865
6449.379383002495,0.006224341419053574,0.0018030921776049401
6449.380382774711,0.006047398316947869,0.001813455648101116
6449.381382546926,0.005866803826147709,0.0018249212794817712
6449.382382319141,0.005684563720011029,0.001837463953899193
6449.383382091356,0.005502651938773272,0.0018510740756224125
6449.384381863571,0.005322980172675672,0.0018657591005241355
6449.385381635787,0.005147368494073234,0.0018815444111854973
6449.386381408002,0.004977517733180126,0.0018984734094310114
6449.387381180218,0.004814984198944877,0.0019166067341508449
6449.388380952432,0.004661157220544868,0.0019360205547261978
6449.389380724648,0.004517239882197073,0.001956803948135872
6449.390380496863,0.004384233278272501,0.0019790554345677836
6449.391380269079,0.0042629245991574576,0.0020028787995758487
6449.392380041294,0.004153879314364097,0.002028378355463735
6449.393379813509,0.004057437632065107,0.002055653801739495
6449.394379585724,0.003973715314028983,0.002084794856764049
6449.395379357939,0.003902608831540538,0.0021158758571887338
6449.396379130155,0.003843804744950761,0.002148950549146229
6449.39737890237,0.003796793064925887,0.0021840473159132775
6449.398378674586,0.0037608842312756383,0.002221165092788793
6449.3993784468,0.0037352292549295636,0.00226027019941133
6449.400378219016,0.0037188425021763396,0.002301294266597524
6449.401377991231,0.0037106265258381233,0.002344133358529079
6449.402377763447,0.0037093982612894398,0.0023886483095513418
6449.403377535662,0.0037139158485319334,0.002434666222400898
6449.4043773078765,0.0037229053675916692,0.0024819830185902995
6449.405377080092,0.0037350868937930668,0.0025303668919415723
6449.406376852307,0.0037491994505103217,0.0025795624881663165
6449.407376624523,0.0037640246040437876,0.0026292956132495985
6449.408376396738,0.003778408562814681,0.0026792782631827935
6449.409376168953,0.0037912826773400655,0.0027292137732303845
6449.410375941168,0.0038016821887688576,0.0027788019055862245
6449.411375713384,0.003808762992128708,0.0028277437172656407
6449.412375485599,0.0038118161294792255,0.002875746069227105
6449.413375257815,0.003810279737667613,0.0029225256685543616
6449.41437503003,0.0038037482269826397,0.002967812590537881
6449.4153748022445,0.003791978513052692,0.003011353288297539
6449.41637457446,0.0037748931352454616,0.0030529131345937
6449.417374346675,0.0037525800995122224,0.0030922785450511535
6449.418374118891,0.0037252893433651997,0.003129258714553525
6449.419373891106,0.0036934258555488546,0.003163686974044322
6449.420373663321,0.0036575396485265576,0.00319542175867753
6449.421373435536,0.0036183129213398883,0.0032243471799380946
6449.422373207752,0.0035765448364081945,0.0032503732102567174
6449.423372979967,0.003533134358823693,0.0032734355038291476
6449.424372752183,0.0034890615729092143,0.00329349488064366
6449.425372524398,0.003445367821643128,0.0033105364961683852
6449.4263722966125,0.0034031349546951584,0.0033245687155657884
6449.427372068828,0.003363463965568828,0.0033356217075975153
6449.428371841043,0.0033274533636010887,0.0033437457681335806
6449.429371613259,0.0032961777264742215,0.0033490093905507575
6449.430371385474,0.0032706669469354157,0.003351497137579005
6449.431371157689,0.0032518866863659505,0.0033513074268325727
6449.432370929904,0.00324072049449146,0.003348550381734316
6449.43337070212,0.0032379539792156374,0.0033433458895053628
6449.434370474335,0.0032442613208831035,0.0033358219545455725
6449.435370246551,0.003260194320942784,0.0033261133707526355
6449.436370018766,0.0032861740674942803,0.003314360685497703
6449.4373697909805,0.0033224851995337715,0.003300709394212874
6449.438369563196,0.003369272654965328,0.0032853092763946296
6449.439369335411,0.0034265406940533886,0.0032683137528745866
6449.440369107627,0.0034941539153523506,0.0032498791159931025
6449.441368879842,0.0035718399502467314,0.0032301634748778275
6449.442368652057,0.003659193550802953,0.00320932528245103
6449.443368424272,0.003755681860535541,0.003187521370729677
6449.444368196488,0.003860650746298171,0.0031649045026728457
6449.445367968703,0.003973332159657186,0.0031416205402270683
6449.446367740919,0.004092852598779759,0.0031178054245435995
6449.447367513133,0.0042182428412387745,0.003093582243767431
6449.4483672853485,0.004348449161235617,0.0030690586886695176
6449.449367057564,0.0044823461990861155,0.003044325157049375
6449.450366829779,0.00461875153919545,0.0030194536939992587
6449.451366601995,0.004756441922546356,0.002994497875984146
6449.45236637421,0.004894170903051326,0.002969493667482292
6449.453366146425,0.005030687663087208,0.002944461198004444
6449.45436591864,0.005164756623443324,0.0029194073368561326
6449.455365690856,0.005295177390319945,0.002894328906299524
6449.456365463071,0.00542080445356928,0.0028692163808877965
6449.457365235287,0.005540565916960897,0.0028440579504686765
6449.458365007501,0.005653480496884327,0.002818843840237071
6449.459364779716,0.005758672139544208,0.002793570763556725
6449.460364551932,0.005855381832481858,0.002768246337097117
6449.461364324147,0.005942976401744527,0.002742893229356831
6449.462364096363,0.006020954208009811,0.0027175527643107846
6449.463363868578,0.00608894768494858,0.0026922876901981376
6449.464363640793,0.006146722658013122,0.00266718387020177
6449.465363413008,0.006194174429010924,0.0026423507437383803
6449.466363185224,0.006231320783451036,0.0026179205006462863
6449.467362957439,0.0062582923470123645,0.0025940459725816416
6449.468362729655,0.00627532095675385,0.002570897280357497
6449.469362501869,0.0062827268172346564,0.0025486573084814814
6449.470362274084,0.006280905184131373,0.0025275161282671444
6449.4713620463,0.00627031320958871,0.0025076645602036996
6449.472361818515,0.006251457421662866,0.0024892871418365093
6449.473361590731,0.006224882111639588,0.0024725548258654573
6449.474361362945,0.00619115870257735,0.0024576177479149613
6449.475361135161,0.006150876005028529,0.00244459836895859
6449.476360907376,0.006104631143886338,0.0024335852445971445
6449.477360679592,0.006053020869861498,0.002424627638626293
6449.478360451807,0.0059966329808591595,0.0024177311826701874
6449.479360224023,0.005936037709256769,0.0024128547623192918
6449.480359996237,0.005871779156894705,0.0024099087691958373
6449.481359768452,0.005804367078553999,0.002408754801838553
6449.482359540668,0.005734269424062389,0.0024092068338953426
6449.483359312883,0.005661906023953984,0.0024110338035867834
6449.484359085099,0.005587643689895536,0.002413963523557194
6449.485358857313,0.005511792858675442,0.002417687772591129
6449.486358629529,0.0054346057793199475,0.0024218684144530875
6449.487358401744,0.0053562761588271165,0.0024261443948026887
6449.48835817396,0.005276940167667843,0.002430139483861994
6449.489357946175,0.005196678752745928,0.0024334706386784986
6449.49035771839,0.005115521260070684,0.002435756839581441
6449.491357490605,0.005033450377011622,0.0024366282166181107
6449.49235726282,0.004950408354910602,0.0024357352439765187
6449.493357035036,0.004866304395723736,0.0024327577583129092
6449.494356807251,0.004781023010153966,0.0024274135454782934
6449.495356579467,0.004694433092021531,0.0024194662272255074
6449.496356351681,0.0046063974101414685,0.0024087321675441086
6449.497356123897,0.004516782199577039,0.0023950861221363738
6449.498355896112,0.004425466535434961,0.002378465386113367
6449.499355668328,0.004332351187005015,0.002358872262914096
6449.500355440543,0.004237366685642501,0.0023363747839044717
6449.501355212758,0.004140480409176337,0.0023111057285962007
6449.502354984973,0.0040417025717799735,0.002283260084242917
6449.503354757188,0.003941091067054467,0.0022530911187591918
6449.504354529404,0.0038387551166812715,0.0022209052455133627
6449.505354301619,0.003734857644606602,0.0021870558656254787
6449.506354073835,0.003629616273482164,0.0021519363893582793
6449.507353846049,0.0035233028695454854,0.00211597265047836
6449.508353618265,0.0034162416629540267,0.002079614928986649
6449.50935339048,0.003308806122584875,0.0020433297907495266
6449.510353162696,0.003201414905546327,0.0020075919402425396
6449.511352934911,0.003094527263222749,0.0019728762636083085
6449.5123527071255,0.0029886382470191318,0.0019396502106805203
6449.513352479341,0.002884273956127914,0.0019083666297181425
6449.514352251556,0.0027819869623989923,0.0018794571386902585
6449.515352023772,0.0026823519694275217,0.0018533261025530606
6449.516351795987,0.0025859617170523293,0.0018303452877596086
6449.517351568203,0.0024934231061085233,0.0018108492733563007
6449.518351340417,0.0024053534712441724,0.0017951316969937268
6449.519351112633,0.002322376880522647,0.001783442392426314
6449.520350884848,0.002245120321794647,0.001775985433636681
6449.521350657064,0.002174209666323679,0.0017729180516327949
6449.522350429279,0.002110265356375098,0.0017743503456256278
6449.5233502014935,0.002053897799716084,0.001780345675324161
6449.524349973709,0.002005702452521774,0.0017909215952366133
6449.525349745924,0.0019662545619206404,0.0018060511806714911
6449.52634951814,0.0019361035594476375,0.001825664608350591
6449.527349290355,0.001915767150642415,0.0018496508882078723
6449.528349062571,0.0019057252042310804,0.0018778596788166877
6449.529348834785,0.001906413581540642,0.001910103148993875
6449.530348607001,0.0019182180583149752,0.001946157879313057
6449.531348379216,0.0019414684816998072,0.0019857668274178486
6449.532348151432,0.001976433282477224,0.00202864139575834
6449.533347923647,0.002023314436961985,0.002074463637966302
6449.5343476958615,0.0020822429556761426,0.002122888638508786
6449.535347468077,0.002153274974969973,0.0021735471157831626
6449.536347240292,0.002236388536992394,0.0022260483297004948
6449.537347012508,0.002331481140817923,0.002279983402027969
6449.538346784723,0.0024383681185266054,0.0023349291555158007
6449.539346556938,0.002556781849785815,0.0023904525328036206
6449.540346329153,0.0026863718084251358,0.002446115580356939
6449.541346101369,0.002826705447666529,0.002501480902369612
6449.542345873584,0.0029772699597643195,0.002556117426463047
6449.5433456458,0.0031374749624540257,0.0026096062915909554
6449.544345418015,0.003306656153367154,0.0026615466767747594
6449.545345190229,0.003484079945011806,0.002711561431329139
6449.546344962445,0.0036689490776520184,0.002759302421277655
6449.54734473466,0.0038604092221994754,0.002804455543788296
6449.548344506876,0.004057556605817498,0.0028467453612204376
6449.549344279091,0.004259446684267778,0.00288593927342954
6449.550344051306,0.004465103848891872,0.0029218511080448114
6449.551343823521,0.004673532114669174,0.002954343984932464
6449.552343595737,0.0048837266827602335,0.002983332303851814
6449.553343367952,0.00509468618120657,0.003008782707018634
6449.554343140168,0.005305425266711456,0.0030307138809099144
6449.555342912383,0.0055149871582191885,0.0030491950906726653
6449.556342684597,0.005722455594036417,0.0030643433935129026
6449.557342456813,0.005926965642723942,0.0030763195513557897
6449.558342229028,0.006127712734116188,0.0030853227381271316
6449.559342001244,0.006323959240699852,0.00309158419278044
6449.560341773459,0.006515038014136094,0.003095360001430746
6449.561341545674,0.006700352530915359,0.0030969232106065
6449.562341317889,0.006879373677053931,0.0030965554938329957
6449.563341090105,0.007051633542870374,0.00309453862383628
6449.56434086232,0.007216716759815997,0.0030911460346195758
6449.565340634536,0.007374249889005756,0.003086634777166235
6449.566340406751,0.00752388928827134,0.0030812381741431557
6449.567340178965,0.00766530788396332,0.00307515946320453
6449.568339951181,0.007798181432765346,0.003068566683638507
6449.569339723396,0.007922175138386688,0.003061589007682253
6449.570339495612,0.008036931741059263,0.0030543146532406506
6449.571339267827,0.008142062275759096,0.003046790445862167
6449.572339040042,0.0082371405601002,0.0030390230246122273
6449.573338812257,0.008321702190124442,0.003030981606773807
6449.574338584473,0.008395248468301421,0.0030226021421709314
6449.575338356688,0.008457255300232122,0.0030137926088509106
6449.576338128903,0.008507186696488917,0.003004439143160986
6449.577337901118,0.008544512139355349,0.002994412667944993
6449.578337673333,0.008568726765906759,0.0029835756804983266
6449.579337445549,0.008579373122932424,0.002971788888138464
6449.580337217764,0.008576063205937361,0.0029589174373871314
6449.58133698998,0.008558499624180878,0.002944836553615925
6449.582336762195,0.008526495005747614,0.0029294364560841037
6449.58333653441,0.00847998907348691,0.0029126264361210795
6449.584336306625,0.008419063061447286,0.0028943380248609763
6449.585336078841,0.008343951239879183,0.0028745272530717168
6449.586335851056,0.0082550493076977,0.002853176078454767
6449.587335623271,0.008152919371390182,0.002830293071512728
6449.588335395486,0.008038291229052209,0.002805913410106818
6449.589335167701,0.007912059771663454,0.0027800981837131705
6449.590334939917,0.007775278522624993,0.0027529329960809283
6449.591334712132,0.007629149615107032,0.0027245258912875435
6449.592334484348,0.007475010740223489,0.00269500469509795
6449.593334256563,0.007314319676112921,0.002664513927120393
6449.594334028778,0.00714863690980909,0.0026332114661398102
6449.595333800993,0.006979606661677271,0.002601265131709783
6449.5963335732085,0.0068089363968514005,0.002568849307447156
6449.597333345424,0.006638374721348535,0.0025361417151973566
6449.598333117639,0.006469687496024833,0.0025033204588045923
6449.599332889854,0.0063046321404189925,0.002470561454934234
6449.600332662069,0.006144930410856031,0.0024380363263918183
6449.601332434285,0.0059922402627935354,0.0024059107638546838
6449.6023322065,0.005848127594787789,0.0023743433013173193
6449.603331978716,0.0057140386970724885,0.0023434844187196586
6449.60433175093,0.005591274166865254,0.0023134758759612056
6449.605331523146,0.005480964995820126,0.0022844501837675
6449.606331295361,0.005384051538142654,0.002256530129468728
6449.6073310675765,0.005301266113425468,0.002229828309556857
6449.608330839792,0.005233120000864951,0.00220444667317674
6449.609330612007,0.00517989547034436,0.0021804761262840854
6449.610330384222,0.005141643279408767,0.0021579962585087944
6449.611330156437,0.005118185799853879,0.002137075230761266
6449.612329928653,0.005109125668815806,0.0021177698189303435
6449.613329700868,0.0051138596110546965,0.002100125566780627
6449.614329473084,0.005131596875029314,0.0020841769722660486
6449.615329245298,0.0051613815935834155,0.002069947627729377
6449.616329017514,0.005202118332597348,0.0020574502630198396
6449.617328789729,0.005252600100837335,0.00204668669039768
6449.6183285619445,0.005311538110742787,0.0020376476958505734
6449.61932833416,0.005377592573093925,0.002030312944841942
6449.620328106375,0.005449403780399501,0.0020246509685015283
6449.62132787859,0.0055256226905209555,0.002020619274662875
6449.622327650805,0.005604940173034722,0.0020181645991366724
6449.623327423021,0.005686114064145267,0.002017223293160827
6449.624327195236,0.005767993235447343,0.0020177218454998876
6449.625326967452,0.005849538009130713,0.0020195775576510857
6449.626326739666,0.005929836389705603,0.0020226994058211117
6449.627326511882,0.006008115694674703,0.00202698911341861
6449.628326284097,0.006083749274645092,0.0020323424243525096
6449.6293260563125,0.006156258147006064,0.002038650530396147
6449.630325828528,0.006225307529803286,0.0020458015847423247
6449.631325600743,0.006290698462776459,0.0020536822319325364
6449.632325372958,0.006352354964786367,0.002062179088600182
6449.633325145173,0.006410307476184007,0.0020711801117107146
6449.634324917389,0.0064646735741719025,0.002080575800905986
6449.635324689604,0.006515637043835172,0.0020902602046712192
6449.63632446182,0.006563426335098244,0.002100131719159035
6449.637324234034,0.006608293287451442,0.002110093666243747
6449.63832400625,0.00665049281677092,0.0021200546219196305
6449.639323778465,0.006690264095214344,0.002129928460577423
6449.6403235506805,0.006727813670746505,0.0021396340970258236
6449.641323322896,0.00676330095423958,0.0021490949389430672
6449.64232309511,0.006796826460404039,0.002158238091272924
6449.643322867326,0.006828423053407576,0.002166993370928517
6449.644322639541,0.0068580502539118,0.002175292199389429
6449.645322411757,0.00688559151878207,0.0021830664519411824
6449.646322183972,0.006910854377566261,0.0021902473550932306
6449.647321956188,0.006933573372754558,0.0021967645295841885
6449.648321728402,0.006953415816097557,0.0022025452709529617
6449.649321500618,0.006969990370041569,0.0022075141445396683
6449.650321272833,0.006982858375416892,0.0022115929506850893
6449.6513210450485,0.0069915476975181265,0.0022147010936362484
6449.652320817264,0.006995568686140209,0.0022167563654888244
6449.653320589478,0.0069944316717944445,0.00221767613037705
6449.654320361694,0.006987665276265436,0.002217378866900683
6449.655320133909,0.006974834711216793,0.002215786016564191
6449.656319906125,0.006955559169354252,0.0022128241080234777
6449.65731967834,0.006929527393395674,0.0022084271659656737
6449.658319450556,0.006896510589477105,0.002202539430081598
6449.65931922277,0.006856372070285331,0.00219511837952705
6449.660318994986,0.006809073327115542,0.0021861379919636166
6449.661318767201,0.006754676525547976,0.0021755920926040872
6449.662318539416,0.006693343586110424,0.0021634975971042904
6449.663318311632,0.006625332020631705,0.0021498974409638366
6449.664318083846,0.0065509876332693765,0.0021348630101301874
6449.665317856062,0.0064707342103822564,0.002118495916016535
6449.666317628277,0.006385060500308587,0.0021009289784659924
6449.667317400493,0.006294505070111148,0.002082326305031782
6449.668317172708,0.006199639890700485,0.0020628824024117583
6449.669316944923,0.006101053639434988,0.002042820322808111
6449.670316717138,0.005999335686334777,0.002022388914235623
6449.671316489354,0.005895061581092581,0.002001859294458002
6449.672316261569,0.0057887806595032934,0.0019815206966449493
6449.673316033784,0.005681006205530054,0.001961675835195778
6449.674315806,0.005572208455648252,0.001942635918817083
6449.675315578214,0.005462810595367327,0.0019247154184379265
6449.67631535043,0.005353187753352392,0.0019082266942005174
6449.677315122645,0.005243668844923497,0.0018934745886602555
6449.678314894861,0.0051345409730205105,0.0018807510922098565
6449.679314667076,0.005026055985791106,0.001870330187213673
6449.680314439291,0.0049184387208275355,0.0018624629821439376
6449.681314211506,0.004811896421608704,0.0018573732428829237
6449.6823139837215,0.0047066287788197925,0.001855253402782405
6449.683313755937,0.004602838015216752,0.0018562610906531457
6449.684313528152,0.00450073838459491,0.0018605161742468203
6449.685313300368,0.0044005644234982565,0.0018680982960894684
6449.686313072582,0.004302577360156214,0.0018790448902440435
6449.687312844798,0.004207069288315321,0.0018933497029750748
6449.688312617013,0.0041143649833492845,0.0019109618691218575
6449.689312389229,0.004024821468468958,0.0019317855977357384
6449.690312161444,0.0039388255913580085,0.0019556804975938685
6449.691311933659,0.0038567899629153245,0.0019824625411069864
6449.692311705874,0.0037791476520753326,0.00201190563819936
6449.6933114780895,0.003706346022244268,0.0020437437813549497
6449.694311250305,0.0036388400423232525,0.0020776737322566884
6449.69531102252,0.003577085334374742,0.002113358235326134
6449.696310794736,0.003521531162039063,0.0021504297443058875
6449.69731056695,0.003472613526617458,0.002188494633876445
6449.698310339166,0.003430748506242918,0.0022271378584858862
6449.699310111381,0.003396325943944356,0.002265928028615173
6449.700309883597,0.003369703574624227,0.002304422891552401
6449.701309655812,0.00335120167582083,0.0023421752090651165
6449.702309428027,0.0033410983132436856,0.0023787390056705625
6449.703309200242,0.003339625226611467,0.0024136761219390084
6449.7043089724575,0.0033469643830192834,0.002446562962083453
6449.705308744673,0.0033632452249804544,0.002476997287617261
6449.706308516888,0.0033885426487107978,0.002504604882689906
6449.707308289103,0.003422875749196,0.002529045897614017
6449.708308061318,0.0034662073527960448,0.002550020663574828
6449.709307833534,0.0035184443247195563,0.0025672747736158186
6449.710307605749,0.003579438594939678,0.002580603257182524
6449.711307377965,0.0036489888051591574,0.002589853735314587
6449.71230715018,0.0037268424502029177,0.0025949285050860284
6449.713306922395,0.003812698363940944,0.002595785541351248
6449.71430669461,0.003906209367889966,0.0025924384290931537
6449.7153064668255,0.004006984854024641,0.0025849552808545227
6449.716306239041,0.00411459302134915,0.002573456763225682
6449.717306011256,0.004228562447259016,0.0025581134306973683
6449.718305783471,0.0043483826756956605,0.0025391426060179588
6449.719305555686,0.004473503578655797,0.0025168050272911537
6449.720305327902,0.0046033334206905295,0.0024914014019554813
6449.721305100117,0.0047372358030006775,0.00246326889055287
6449.722304872333,0.004874525893670857,0.0024327774292384904
6449.723304644548,0.005014466461050593,0.0024003257302512406
6449.724304416763,0.005156264189016423,0.002366336798618075
6449.725304188978,0.005299066633568224,0.0023312528675991056
6449.7263039611935,0.005441960088754847,0.0022955297545183273
6449.727303733409,0.005583968634472646,0.0022596307328939095
6449.728303505624,0.005724054721624319,0.0022240200791635275
6449.729303277839,0.005861121736963713,0.002189156479320545
6449.730303050054,0.005994019018504187,0.0021554864841721562
6449.73130282227,0.0061215497433917574,0.0021234381925352174
6449.732302594485,0.006242481987475265,0.002093415323185997
6449.733302366701,0.0063555630709768995,0.002065791809230653
6449.734302138915,0.006459537082521027,0.0020409070143477554
6449.735301911131,0.00655316524411656,0.0020190616331542195
6449.736301683346,0.0066352485548006055,0.0020005143027638
6449.7373014555615,0.006704651933606064,0.0019854789260235683
6449.738301227777,0.006760328905980427,0.001974122699269574
6449.739300999992,0.006801345812561716,0.0019665648535516413
6449.740300772207,0.006826904614646696,0.0019628761447125624
6449.741300544422,0.006836363577415022,0.0019630791404079994
6449.742300316638,0.006829255297221305,0.001967149337123448
6449.743300088853,0.00680530160918742,0.001975017101904467
6449.744299861069,0.006764424895195137,0.00198657038768934
6449.745299633283,0.0067067553123560724,0.0020016581355465054
6449.746299405499,0.00663263355552588,0.0020200942624472055
6449.747299177714,0.006542608961376456,0.0020416621335420794
6449.748298949929,0.0064374329949384,0.002066119414950703
6449.749298722145,0.00631804834284961,0.0020932031875251795
6449.75029849436,0.00618557392547482,0.0021226351807906475
6449.751298266575,0.006041286171286453,0.0021541269635722195
6449.75229803879,0.0058865969520032835,0.002187384898976832
6449.753297811006,0.005723028710304562,0.002222114644331767
6449.754297583221,0.005552187515749322,0.0022580249810459805
6449.755297355437,0.005375734984089875,0.002294830820882497
6449.756297127651,0.0051953600898436035,0.0023322553475997967
6449.757296899867,0.005012751846323579,0.0023700313775244885
6449.758296672082,0.004829573661046468,0.0024079021109178417
6449.759296444297,0.0046474399648338965,0.002445621470020852
6449.760296216513,0.004467895501445429,0.0024829541875382613
6449.761295988728,0.00429239747623166,0.002519675753121379
6449.762295760943,0.004122300624426881,0.002555572275268684
6449.763295533158,0.003958845182736731,0.0025904402860213115
6449.764295305374,0.0038031477029884216,0.002624086508147293
6449.765295077589,0.0036561945899956597,0.002656327617039918
6449.766294849805,0.0035188381686396754,0.002686990054401914
6449.767294622019,0.0033917950250635584,0.0027159099731843524
6449.7682943942345,0.0032756463678292294,0.0027429333992681324
6449.76929416645,0.0031708402233481606,0.0027679166808885123
6449.770293938665,0.003077695373882028,0.0027907272679701532
6449.771293710881,0.002996407002693305,0.0028112448265348302
6449.772293483095,0.0029270539930999506,0.002829362646266254
6449.773293255311,0.002869607751715922,0.002844989243917093
6449.774293027526,0.0028239423333803154,0.0028580500224091292
6449.775292799742,0.0027898455678112507,0.0028684888450105704
6449.776292571957,0.0027670308401287957,0.002876269438314256
6449.777292344173,0.002755149165714168,0.002881376625191974
6449.778292116387,0.002753801223817215,0.0028838174592415327
6449.7792918886025,0.0027625490622462954,0.002883622340175464
6449.780291660818,0.002780927236145095,0.0028808461297559693
6449.781291433033,0.0028084531775512283,0.002875569191942094
6449.782291205249,0.0028446366067125003,0.0028678981883073934
6449.783290977463,0.0028889878067495595,0.002857966399935363
6449.784290749679,0.0029410246069022936,0.002845933336595232
6449.785290521894,0.003000277958951704,0.0028319834340092193
6449.78629029411,0.0030662960373983995,0.0028163237152177504
6449.787290066325,0.0031386468391381693,0.0027991803822542036
6449.788289838541,0.0032169192986208116,0.002780794397753993
6449.789289610755,0.0033007229602284743,0.002761416209450409
6449.7902893829705,0.0033896862531143154,0.0027412998578174893
6449.791289155186,0.0034834534041565134,0.0027206967704616193
6449.792288927401,0.0035816800236435106,0.0026998495637472393
6449.793288699617,0.0036840274293121543,0.0026789861400837536
6449.794288471831,0.003790155857949003,0.002658314316476413
6449.795288244047,0.0038997168464542753,0.0026380171794325273
6449.796288016262,0.004012345195563959,0.002618249338374573
6449.797287788478,0.0041276509925784926,0.0025991342242213424
6449.798287560693,0.004245212149088528,0.002580762535422462
6449.799287332908,0.0043645678519823065,0.002563191872340728
6449.800287105123,0.004485213275951635,0.0025464475333758447
6449.8012868773385,0.004606595865479042,0.0025305243831026222
6449.802286649554,0.004728113443077505,0.0025153896525447177
6449.803286421769,0.004849114323577581,0.002500986501468046
6449.804286193985,0.0049688995165297995,0.002487238165541549
6449.805285966199,0.0050867270049708355,0.002474052519319252
6449.806285738415,0.005201818015344074,0.002461326888532983
6449.80728551063,0.00531336513020374,0.002448952929332343
6449.808285282846,0.005420542035602527,0.0024368213730987555
6449.809285055061,0.005522514654259702,0.0024248264430713064
6449.810284827276,0.005618453401125228,0.0024128697939811423
6449.811284599491,0.0057075462918807236,0.0024008638872917627
6449.8122843717065,0.0057890126190185956,0.0023887347616036426
6449.813284143922,0.005862116880992164,0.0023764241800298853
6449.814283916137,0.0059261826076209626,0.002363891148472546
6449.815283688353,0.005980605670552803,0.002351112814767925
6449.816283460567,0.0060248666080070755,0.0023380847745559153
6449.817283232783,0.006058541433289791,0.002324820816288964
6449.818283004998,0.006081310351755985,0.0023113521390109243
6449.819282777214,0.006092963841699126,0.0022977260840230346
6449.820282549429,0.006093405738580365,0.0022840044346143277
6449.821282321644,0.006082653292204784,0.0022702613433232843
6449.822282093859,0.006060834522774397,0.002256580941233215
6449.8232818660745,0.006028183443987323,0.0022430546831668217
6449.82428163829,0.005985033778693866,0.002229778495044168
6449.825281410505,0.005931811678682245,0.002216849807854059
6449.826281182721,0.0058690277570773225,0.0022043645794639923
6449.827280954935,0.005797268569587479,0.0021924144236980213
6449.828280727151,0.0057171876320702576,0.002181083989390036
6449.829280499366,0.005629496138973719,0.002170448752080841
6449.830280271582,0.005534953672369089,0.0021605733780713787
6449.831280043797,0.00543435927914351,0.002151510782844015
6449.832279816012,0.005328543304371381,0.0021433019453462494
6449.833279588227,0.005218360303351943,0.002135976479257401
6449.834279360442,0.005104683226384742,0.002129553909076644
6449.835279132658,0.004988398890617211,0.0021240455414596624
6449.836278904873,0.004870404542356194,0.002119456756332276
6449.837278677088,0.004751605106593234,0.0021157894852848595
6449.838278449303,0.004632910568729055,0.0021130446226665196
6449.839278221519,0.004515232896803981,0.00211122414055929
6449.840277993734,0.00439948202334272,0.0021103327401859355
6449.84127776595,0.004286560619848572,0.00211037893826652
6449.842277538165,0.004177357609480208,0.0021113755351238155
6449.84327731038,0.0040727404958773705,0.0021133394498916514
6449.844277082595,0.0039735466465461115,0.00211629095431483
6449.84527685481,0.0038805737216902276,0.002120252381573342
6449.846276627026,0.003794569523434269,0.0021252464053886887
6449.847276399241,0.0037162216308682127,0.0021312939744764945
6449.848276171456,0.0036461472285159425,0.002138411970695802
6449.849275943671,0.003584883509330557,0.0021466106557893098
6449.850275715887,0.003532878971442307,0.002155890983245008
6449.851275488102,0.00349048587472952,0.0021662418695637623
6449.852275260318,0.0034579540929148447,0.0021776375375879213
6449.853275032533,0.003435426580608695,0.002190035064422155
6449.854274804748,0.0034229366587254784,0.0022033722824347994
6449.855274576963,0.0034204072867705503,0.002217566178855551
6449.856274349178,0.003427652419136589,0.002232511909037912
6449.857274121394,0.0034443804358505474,0.002248082489102569
6449.858273893609,0.0034701995163680475,0.002264129184054188
6449.859273665824,0.0035046247120314043,0.0022804825720940227
6449.860273438039,0.003547086384014331,0.0022969542460597537
6449.861273210255,0.0035969396142462163,0.0023133391014777097
6449.86227298247,0.003653474170090865,0.0023294181544715213
6449.863272754686,0.003715924617648275,0.0023449618337309476
6449.8642725269,0.003783480244043892,0.0023597336938089237
6449.865272299116,0.0038552945649137377,0.002373494490075384
6449.866272071331,0.003930494327796564,0.0023860065381488397
6449.867271843546,0.00400818801918068,0.002397038268045433
6449.868271615762,0.004087473912088409,0.002406368886739267
6449.869271387977,0.004167447685565144,0.002413793074406936
6449.870271160192,0.004247209668513662,0.0024191256380868592
6449.871270932407,0.004325871827163153,0.0024222060151456977
6449.872270704623,0.004402564685193676,0.0024229024665503086
6449.873270476838,0.004476444383403846,0.0024211157584378895
6449.874270249054,0.004546700044246487,0.0024167821238538566
6449.875270021268,0.004612561536800485,0.00240987532525856
6449.876269793484,0.0046733076535745285,0.002400407696591235
6449.877269565699,0.004728274602616331,0.0023884301281582995
6449.878269337914,0.004776864604442027,0.002374031052098611
6449.87926911013,0.004818554317303094,0.002357334555949864
6449.880268882345,0.004852902830961319,0.00233849777200947
6449.88126865456,0.004879559037114119,0.002317707675278466
6449.882268426775,0.004898268224802538,0.002295177412875785
6449.883268198991,0.004908877703564308,0.002271142303098966
6449.884267971206,0.004911341144656354,0.0022458556639098387
6449.8852677434215,0.004905721237196502,0.0022195846297665116
6449.886267515636,0.004892190268229363,0.0021926060869241195
6449.887267287852,0.004871028376842085,0.0021652028142469097
6449.888267060067,0.004842619454079956,0.0021376598700827767
6449.889266832282,0.004807444887888794,0.0021102612181843738
6449.890266604498,0.004766075530043976,0.0020832865388447992
6449.891266376713,0.004719162360551405,0.0020570081358824077
6449.892266148928,0.004667426329682949,0.002031687845821847
6449.893265921143,0.0046116477710705876,0.002007573892149144
6449.894265693359,0.0045526556316406435,0.0019848976849077588
6449.895265465574,0.00449131661164453,0.0019638706122286314
6449.8962652377895,0.004428524207321124,0.001944680893381412
6449.897265010004,0.004365187619720508,0.0019274905701335203
6449.89826478222,0.004302220504403481,0.0019124327154812514
6449.899264554435,0.004240529543045531,0.0018996089483885822
6449.90026432665,0.004181002813120529,0.0018890873689895544
6449.901264098866,0.004124497943519813,0.001880901058611773
6449.90226387108,0.004071830081643945,0.0018750472932555296
6449.903263643296,0.004023759739207727,0.0018714875828755686
6449.904263415511,0.0039809806218996414,0.0018701485858830904
6449.905263187727,0.003944107609905824,0.0018709238808272818
6449.906262959942,0.003913665158907541,0.0018736765189988334
6449.9072627321575,0.003890076496311894,0.0018782422425306488
6449.908262504372,0.0038736540362685596,0.001884433238483494
6449.909262276588,0.0038645914173400585,0.0018920423039058836
6449.910262048803,0.0038629575128213064,0.001900847306331311
6449.911261821018,0.00386869269953468,0.0019106158333623503
6449.912261593234,0.003881607591623432,0.0019211099372371079
6449.913261365448,0.003901384348132666,0.0019320908963377488
6449.914261137664,0.003927580563380286,0.0019433239287966018
6449.915260909879,0.003959635671622877,0.001954582792432437
6449.916260682095,0.003996879752037726,0.0019656541857546034
6449.91726045431,0.004038544586656426,0.0019763418404923055
6449.9182602265255,0.004083776767325397,0.001986470188295789
6449.91925999874,0.004131652559361088,0.0019958874994139
6449.920259770955,0.004181194146360613,0.002004468420532125
6449.921259543171,0.004231386842853137,0.0020121158728408023
6449.922259315386,0.004281196859267777,0.0020187623023143982
6449.923259087602,0.004329589193898181,0.0020243702964655016
6449.924258859816,0.004375545198026841,0.0020289325982673053
6449.925258632032,0.004418079352965131,0.002032471566760237
6449.926258404247,0.004456254855190577,0.002035038154787811
6449.927258176463,0.004489197731553665,0.0020367104881608544
6449.928257948678,0.004516109365900191,0.0020375921321690014
6449.929257720893,0.004536277463498056,0.0020378101224874127
6449.930257493108,0.004549085571191985,0.002037512819508479
6449.931257265323,0.004554021298948186,0.0020368676174680835
6449.932257037539,0.004550683379739508,0.0020360585068909965
6449.933256809754,0.004538787695420257,0.002035283463482409
6449.93425658197,0.004518172390272409,0.002034751628664254
6449.935256354184,0.004488802173173011,0.002034680250959468
6449.9362561264,0.004450771871004503,0.0020352913614915574
6449.937255898615,0.00440430924496122,0.0020368081644726766
6449.938255670831,0.0043497770043516805,0.0020394511490401117
6449.939255443046,0.004287673841641866,0.002043433970068757
6449.940255215261,0.004218634205055987,0.002048959184093706
6449.941254987476,0.004143426479676228,0.0020562139560751425
6449.942254759691,0.0040629492763543116,0.002065365880448957
6449.943254531907,0.003978225574806521,0.002076559078111089
6449.944254304122,0.003890394481947193,0.0020899107196144426
6449.945254076338,0.003800700377730915,0.0021055080823512884
6449.946253848552,0.0037104793047606707,0.0021234061965414116
6449.947253620768,0.0036211426351551754,0.002143626087815523
6449.948253392983,0.0035341582534527227,0.0021661535876933828
6449.949253165199,0.003451029645868915,0.002190938668358465
6449.950252937414,0.003373273350005947,0.0022178952788065236
6449.9512527096285,0.003302395214432233,0.0022469017027993777
6449.952252481844,0.0032398658932953355,0.0022778014850576562
6449.953252254059,0.003187096001870496,0.0023104049541655724
6449.954252026275,0.0031454113912709105,0.0023444913194661217
6449.95525179849,0.003116029035055133,0.002379811264786496
6449.956251570706,0.0031000340303342588,0.0024160899297202085
6449.95725134292,0.0030983582023613987,0.002453030173551005
6449.958251115136,0.0031117607826209558,0.0024903160548724167
6449.959250887351,0.003140811615179031,0.002527616506828678
6449.960250659567,0.003185877322641736,0.002564589213099898
6449.961250431782,0.0032471108150734515,0.002600884682838873
6449.9622502039965,0.003324444455208266,0.002636150495287738
6449.963249976212,0.0034175871215441334,0.002670035652434966
6449.964249748427,0.003526025351077349,0.002702194952638431
6449.965249520643,0.0036490286840026244,0.002732293288518914
6449.966249292858,0.0037856592497934223,0.002760009783606063
6449.967249065073,0.003934785523424891,0.0027850417174410304
6449.968248837288,0.004095100062008708,0.0028071082458320643
6449.969248609504,0.0042651409183961115,0.0028259539791174793
6449.970248381719,0.004443316310486331,0.0028413524992209407
6449.971248153935,0.004627931999640903,0.00285310985641664
6449.97224792615,0.004817220717561672,0.0028610680029825136
6449.9732476983645,0.005009372894812637,0.0028651080273032043
6449.97424747058,0.005202567881119483,0.002865152989445864
6449.975247242795,0.005395004794070842,0.002861170161604917
6449.976247015011,0.005584932076304429,0.002853172543863843
6449.977246787226,0.005770674777679848,0.002841219616968518
6449.978246559441,0.005950658545143191,0.0028254173643435325
6449.979246331656,0.006123429389425713,0.0028059176281077687
6449.980246103872,0.00628766857690498,0.0027829168658760994
6449.981245876087,0.006442202421365069,0.0027566543660421422
6449.982245648303,0.006586007165739731,0.002727409974804128
6449.983245420518,0.006718209400866896,0.0026955013831590035
6449.9842451927325,0.006838082541823149,0.0026612809991461354
6449.985244964948,0.006945039871815012,0.00262513238938041
6449.986244737163,0.0070386246994653505,0.002587466237933983
6449.987244509379,0.007118498311460486,0.0025487157660718913
6449.988244281594,0.007184426585913268,0.0025093315865393063
6449.989244053809,0.007236266270689811,0.0024697760065567776
6449.990243826024,0.007273951970441569,0.002430516816772068
6449.99124359824,0.007297484812332145,0.0023920206068306447
6449.992243370455,0.007306923570697183,0.0023547456567399702
6449.993243142671,0.0073023787362319695,0.002319134495726994
6449.994242914885,0.007284009662232781,0.0022856063002209036
6449.9952426871005,0.007252024581393014,0.0022545493864608345
6449.996242459316,0.007206683022320105,0.0022263140968906046
6449.997242231531,0.007148299994067545,0.0022012063666475546
6449.998242003747,0.007077251260608996,0.0021794822055411357
6449.999241775962,0.006993979096553524,0.0021613432707479666
6450.000241548177,0.006898998068721677,0.002146933652250638
6450.001241320392,0.006792900543637906,0.0021363379475013177
6450.002241092608,0.0066763616785784725,0.002129580658938731
6450.003240864823,0.006550143567438669,0.002126626905337648
6450.004240637039,0.00641509803640499,0.0021273843956134838
6450.005240409253,0.006272167433411818,0.0021317065693320994
6450.0062401814685,0.006122382723466055,0.0021393967561256968
6450.007239953684,0.005966858328643631,0.002150213148791313
6450.008239725899,0.00580678343062151,0.002163874345830524
6450.009239498115,0.005643409817314319,0.0021800652330302467
6450.01023927033,0.005478036678103025,0.0021984430480016894
6450.011239042545,0.005311992941537403,0.002218643566449224
6450.01223881476,0.005146617826309,0.0022402874064927406
6450.013238586976,0.004983240326956511,0.0022629864412333036
6450.014238359191,0.004823158421041037,0.0022863502599763013
6450.015238131407,0.004667618827464761,0.002309992562527232
6450.016237903621,0.004517798113039834,0.0023335373300665315
6450.017237675836,0.004374785829064196,0.0023566245945197367
6450.018237448052,0.004239570194578499,0.002378915629740254
6450.019237220267,0.004113026658471104,0.0024000974135895566
6450.020236992483,0.003995909480558634,0.0024198862507965593
6450.021236764698,0.0038888462855109947,0.002438030494185928
6450.022236536913,0.0037923353918965677,0.002454312358120452
6450.023236309128,0.003706745628488077,0.0024685488789395155
6450.024236081344,0.00363231831878031,0.0024805921287189107
6450.025235853559,0.003569171112166791,0.002490328821873492
6450.026235625775,0.0035173033340197167,0.0024976794659469304
6450.027235397989,0.003476602503731201,0.002502597194734048
6450.028235170204,0.003446851649631235,0.00250506638768327
6450.02923494242,0.0034277370774305977,0.0025051011363212503
6450.030234714635,0.0034188563423068873,0.002502743574018721
6450.031234486851,0.00341972629148908,0.0024980620471834122
6450.032234259065,0.003429791127262365,0.002491149088000216
6450.033234031281,0.003448430474656159,0.002482119155599666
6450.034233803496,0.003474967439820652,0.0024711061276189916
6450.035233575712,0.0035086766265394515,0.002458260531341813
6450.036233347927,0.0035487920489832504,0.002443746506105281
6450.037233120142,0.003594514863365709,0.002427738500212306
6450.038232892357,0.0036450208681208687,0.0024104177375392087
6450.039232664572,0.0036994677862216205,0.00239196854101116
6450.040232436788,0.0037570023970964895,0.00237257464965341
6450.041232209003,0.003816767586690508,0.0023524156819008475
6450.042231981219,0.003877909336789786,0.0023316638750081895
6450.043231753433,0.00393958361337301,0.0023104811949464983
6450.044231525649,0.004000963060806633,0.002289016890546388
6450.045231297864,0.004061243367009229,0.0022674055662326386
6450.04623107008,0.00411964914049857,0.0022457658553777004
6450.047230842295,0.004175439146229431,0.002224199769037489
6450.04823061451,0.004227910786375399,0.0022027927631812928
6450.049230386725,0.004276403774167623,0.0021816145232642515
6450.05023015894,0.0043203030109824035,0.002160720421231047
6450.051229931156,0.004359040711216133,0.0021401535542508723
6450.052229703371,0.0043920978240045575,0.0021199472231250545
6450.053229475587,0.004419004819200419,0.0021001276652870856
6450.054229247801,0.004439341988174558,0.002080716843872864
6450.055229020017,0.004452739553960322,0.0020617351161902105
6450.056228792232,0.004458878022418177,0.0020432036481959175
6450.057228564448,0.004457489263012152,0.002025146487991082
6450.058228336663,0.004448358760102856,0.00200759225058768
6450.0592281088775,0.004431329345778691,0.001990575394107916
6450.060227881093,0.004406306548384986,0.0019741370797739985
6450.061227653308,0.004373265496019477,0.001958325606223942
6450.062227425524,0.004332259125206024,0.001943196409002558
6450.063227197739,0.004283427279798173,0.0019288116337002757
6450.064226969955,0.004227006146954976,0.0019152393192260189
6450.065226742169,0.004163337363961206,0.0019025522470293758
6450.066226514385,0.004092876067532599,0.0018908265172843332
6450.0672262866,0.004016197190857441,0.0018801399170881152
6450.068226058816,0.003933999439534609,0.0018705701603510209
6450.069225831031,0.00384710652053706,0.0018621930940086729
6450.0702256032455,0.0037564652877482615,0.001855080955475817
6450.071225375461,0.0036631405082292855,0.0018493007250227228
6450.072225147676,0.0035683060036634895,0.001844912568731384
6450.073224919892,0.0034732320386647478,0.0018419683431342645
6450.074224692107,0.0033792690357820777,0.0018405101384230444
6450.075224464323,0.003287827962578278,0.0018405688581078748
6450.076224236537,0.0032003579751023006,0.0018421628527059558
6450.077224008753,0.003118322045791783,0.001845296636087999
6450.078223780968,0.0030431713504441367,0.0018499597121588423
6450.079223553184,0.0029763191745988985,0.001856125528017844
6450.080223325399,0.00291911504872344,0.0018637505641559862
6450.0812230976135,0.002872819740348668,0.0018727735949528974
6450.082222869829,0.00283858162553029,0.0018831152012680546
6450.083222642044,0.002817414844660043,0.0018946776586112588
6450.08422241426,0.0028101795390693416,0.0019073453291214202
6450.085222186475,0.002817564391616199,0.0019209856493205217
6450.086221958691,0.002840071678278328,0.0019354507440531223
6450.087221730905,0.0028780050718707263,0.001950579632624113
6450.088221503121,0.0029314604810592184,0.0019662009435752986
6450.089221275336,0.0030003202119176352,0.001982136025631268
6450.090221047552,0.003084250691195818,0.001998202333828519
6450.091220819767,0.003182703909484697,0.002014216978168637
6450.0922205919815,0.003294922661260056,0.002030000333432234
6450.093220364197,0.0034199496001457077,0.0020453796080338676
6450.094220136412,0.0035566400851312296,0.0020601922609147626
6450.095219908628,0.003703678736517226,0.002074289153383152
6450.096219680843,0.0038595995294894267,0.002087537330156785
6450.097219453058,0.004022809140787432,0.002099822337343895
6450.098219225273,0.00419161315081314,0.0021110500147884883
6450.099218997489,0.004364244587558567,0.002121147756929752
6450.100218769704,0.004538894162142044,0.0021300653063234948
6450.10121854192,0.00471374138794029,0.0021377751955531554
6450.102218314135,0.004886985630895474,0.0021442729641995228
6450.103218086349,0.005056876069697035,0.002149577247255606
6450.104217858565,0.0052217396053153555,0.0021537297751721514
6450.10521763078,0.005380005941706293,0.0021567952646735257
6450.106217402996,0.00553022927844764,0.002158861131112312
6450.107217175211,0.0056711062133894185,0.002160036928287686
6450.108216947426,0.005801489524868772,0.0021604534273801036
6450.109216719641,0.005920397567392868,0.002160261281337854
6450.110216491857,0.006027019188763202,0.0021596292648367785
6450.111216264072,0.006120714392170132,0.002158742106740257
6450.112216036288,0.006201011312444723,0.0021577979365217295
6450.113215808503,0.006267600297799837,0.0021570053663982707
6450.114215580717,0.006320325943328103,0.0021565802461446758
6450.115215352933,0.006359177884850708,0.0021567421602332357
6450.116215125148,0.0063842811005007764,0.0021577107674942146
6450.117214897364,0.0063958863812498415,0.002159702083164435
6450.118214669579,0.006394361502136396,0.0021629247643434905
6450.119214441794,0.006380183465200943,0.0021675764105148795
6450.120214214009,0.006353932011295317,0.00217383987128488
6450.121213986225,0.0063162844075674695,0.0021818795782899006
6450.12221375844,0.0062680112979591664,0.0021918379633774753
6450.123213530655,0.006209973162384246,0.002203832056061324
6450.12421330287,0.0061431167111568475,0.0022179503584113538
6450.125213075085,0.006068470417759242,0.002234250088868064
6450.126212847301,0.005987138417355385,0.0022527548858062994
6450.127212619516,0.0059002921454848565,0.0022734530691851866
6450.128212391732,0.0058091592726316945,0.0022962965562306017
6450.129212163947,0.005715009657583999,0.0023212004930688646
6450.130211936162,0.005619138254175615,0.0023480435997381218
6450.131211708377,0.005522845236623154,0.002376669163888935
6450.132211480593,0.005427414009487221,0.0024068865973787233
6450.133211252808,0.005334088083792685,0.002438473492723599
6450.134211025023,0.005244047918628032,0.0024711781457511487
6450.135210797238,0.005158388759298731,0.0025047225154699246
6450.136210569453,0.005078100332162172,0.002538805575518453
6450.137210341669,0.005004049062094079,0.002573106989964263
6450.138210113884,0.004936963308256849,0.002607291032330187
6450.1392098861,0.0048774219782023705,0.0026410106771807343
6450.140209658315,0.004825846761666349,0.0026739118387055084
6450.14120943053,0.004782498104698596,0.002705637790398293
6450.142209202745,0.004747474923709199,0.0027358338306215342
6450.1432089749605,0.004720717948678254,0.0027641522294869396
6450.144208747176,0.004702016484113676,0.0027902574092302144
6450.145208519391,0.004691018278166402,0.002813831210958265
6450.146208291606,0.004687242097791383,0.002834578028725596
6450.147208063821,0.004690092534278464,0.00285222956981687
6450.148207836037,0.0046988765300828685,0.0028665490241091642
6450.149207608252,0.004712821142345657,0.0028773344826337837
6450.150207380468,0.004731092122559453,0.002884421524052659
6450.151207152683,0.004752812946567584,0.0028876849686145824
6450.152206924898,0.004777083955464778,0.002887039859650534
6450.153206697113,0.004803001292397907,0.0028824417650173185
6450.1542064693285,0.004829675351577712,0.002873886500340945
6450.155206241544,0.004856248460048815,0.002861409366962408
6450.156206013759,0.004881911471451623,0.002845083979625928
6450.157205785974,0.004905918893596674,0.0028250207497244766
6450.158205558189,0.0049276021382249026,0.0028013650951587096
6450.159205330405,0.004946380499529383,0.002774295453628498
6450.16020510262,0.004961769561537001,0.0027440211678620894
6450.161204874836,0.004973386898828443,0.0027107802881774228
6450.16220464705,0.0049809551068485825,0.002674837307853587
6450.163204419266,0.004984302299934181,0.0026364808159039473
6450.164204191481,0.004983360240438677,0.002596021019462002
6450.1652039636965,0.004978160275028603,0.002553787056136088
6450.166203735912,0.00496882729875058,0.0025101240022811634
6450.167203508127,0.004955572019963004,0.0024653895063947787
6450.168203280342,0.004938681822576291,0.002419950032365243
6450.169203052557,0.0049185105254344,0.002374176755580032
6450.170202824773,0.004895467354687228,0.002328441197149368
6450.171202596988,0.004870005476058682,0.0022831107124337926
6450.172202369204,0.004842610452736347,0.0022385439752197604
6450.173202141418,0.004813788985521446,0.0021950866118537883
6450.174201913634,0.004784058263525711,0.002153067134920625
6450.175201685849,0.004753936212666667,0.0021127933092244485
6450.1762014580645,0.004723932861626701,0.002074549064990272
6450.17720123028,0.004694542932403792,0.0020385920587061125
6450.178201002495,0.004666239613674835,0.0020051519615352695
6450.17920077471,0.004639469335264707,0.001974429514873112
6450.180200546925,0.004614647286865933,0.0019465963327714296
6450.181200319141,0.004592153438877217,0.0019217953720574
6450.182200091356,0.00457232889573908,0.0019001419571178946
6450.183199863572,0.0045554724754846496,0.0018817252418464323
6450.184199635786,0.004541837431448654,0.001866609997460891
6450.185199408002,0.004531628246341311,0.0018548386109999934
6450.186199180217,0.0045249974784047475,0.0018464331592154503
6450.1871989524325,0.004522042730652224,0.0018413973933348576
6450.188198724648,0.004522803931437712,0.0018397184473559784
6450.189198496862,0.004527261228755178,0.0018413680866980807
6450.190198269078,0.004535333864865847,0.0018463033574817416
6450.191198041293,0.004546880380715054,0.0018544665712350653
6450.192197813509,0.004561700415940376,0.0018657846442691308
6450.193197585724,0.004579538253255216,0.001880167886447692
6450.19419735794,0.004600088121917323,0.0018975083884772437
6450.195197130154,0.004623001132329239,0.001917678186317132
6450.19619690237,0.0046478935829618526,0.001940527392437893
6450.197196674585,0.004674356289301955,0.0019658824861142165
6450.1981964468005,0.004701964547127982,0.0019935449513817597
6450.199196219016,0.004730288347622269,0.002023290436631038
6450.20019599123,0.004758902481793166,0.002054868576662319
6450.201195763446,0.004787396194514277,0.0020880035661145634
6450.202195535661,0.004815382097047901,0.0021223955183330705
6450.203195307877,0.004842504143541383,0.002157722606708925
6450.204195080092,0.004868444590834783,0.0021936439661254022
6450.205194852308,0.004892929925200152,0.002229803309429525
6450.206194624522,0.004915735726501389,0.002265833175283036
6450.207194396738,0.004936690387247456,0.0023013596795618484
6450.208194168953,0.004955677563980083,0.002336007612804351
6450.209193941168,0.0049726372336977845,0.0023694057252712287
6450.210193713384,0.0049875652571131504,0.0024011920683287653
6450.211193485598,0.005000511409274418,0.0024310192997139433
6450.212193257814,0.00501157592114223,0.0024585598897230803
6450.213193030029,0.005020904672957501,0.002483511172732197
6450.214192802245,0.005028683273917524,0.002505600173768992
6450.21519257446,0.005035130323238991,0.002524588116083846
6450.216192346676,0.005040490148896569,0.0025402745024511457
6450.21719211889,0.005045025267415295,0.002552500671853529
6450.218191891106,0.005049008731166657,0.002561152759937467
6450.219191663321,0.0050527164509789405,0.002566164021221476
6450.220191435536,0.005056419518473761,0.0025675164868395385
6450.221191207752,0.005060376536978919,0.0025652419275396274
6450.222190979966,0.005064826026794623,0.002559422079094212
6450.223190752182,0.005069979075999548,0.002550188081291011
6450.224190524397,0.005076012499211806,0.0025377190867612123
6450.225190296613,0.005083062794531877,0.0025222400114594127
6450.226190068828,0.0050912211558263,0.002504018423358432
6450.227189841043,0.00510052974696707,0.0024833605950223586
6450.228189613258,0.005110979411667647,0.0024606067772180197
6450.229189385474,0.005122508973288041,0.0024361257866814794
6450.230189157689,0.005135006250269955,0.0024103090346009838
6450.231188929904,0.005148310862120133,0.002383564140578904
6450.23218870212,0.00516221882971268,0.0023563082805570334
6450.233188474334,0.005176488886017788,0.002328961417132301
6450.23418824655,0.005190850307513289,0.002301939556089161
6450.235188018765,0.005205011956006638,0.0022756481550423864
6450.236187790981,0.005218672113101235,0.0022504757867155513
6450.237187563196,0.005231528640020773,0.0022267881530805005
6450.238187335411,0.0052432890382347296,0.002204922562307388
6450.239187107626,0.005253680125424979,0.0021851829967530364
6450.2401868798415,0.005262457235605466,0.002167835896181647
6450.241186652057,0.005269413015286934,0.002153106752301819
6450.242186424272,0.005274385937494775,0.0021411775654120837
6450.243186196488,0.005277268582348783,0.0021321851669747816
6450.244185968702,0.005278015606492059,0.002126220384426174
6450.245185740918,0.005276651224014808,0.002123328021939919
6450.246185513133,0.0052732759662019145,0.0021235076305204676
6450.247185285349,0.00526807244005254,0.002126715018643128
6450.248185057564,0.005261309755250745,0.002132864419882354
6450.249184829779,0.005253346284321955,0.002141831218580341
6450.250184601994,0.00524463049800808,0.00215345514865407
6450.2511843742095,0.005235699738102609,0.0021675438990821716
6450.252184146425,0.005227176880909619,0.0021838770598692574
6450.25318391864,0.00521976487973881,0.002202210329653688
6450.254183690855,0.005214239176511106,0.0022222798915320936
6450.25518346307,0.005211437959949211,0.0022438068465803714
6450.256183235286,0.0052122502208862805,0.0022665015812756944
6450.257183007501,0.005217601534228514,0.0022900679547975034
6450.258182779717,0.005228437545595883,0.0023142072315276902
6450.259182551932,0.005245705304747916,0.002338621734423142
6450.260182324147,0.00527033282122154,0.002363018232419928
6450.261182096362,0.005303207408830241,0.0023871110905791465
6450.2621818685775,0.0053451534539205895,0.0024106252111989143
6450.263181640793,0.005396910179581045,0.002433298788103534
6450.264181413008,0.005459109829752383,0.002454885890927173
6450.265181185223,0.005532256543654733,0.0024751588917479106
6450.266180957438,0.005616706120624978,0.0024939107416960733
6450.267180729654,0.00571264692478959,0.0025109570982791893
6450.268180501869,0.005820082303075567,0.002526138290234965
6450.269180274085,0.005938815016440544,0.002539321080132625
6450.2701800463,0.006068434273462487,0.0025504001454654834
6450.271179818515,0.006208305992362159,0.002559299158604676
6450.27217959073,0.006357566883385957,0.002565971331048591
6450.2731793629455,0.006515122836383026,0.0025703993209717614
6450.274179135161,0.006679651970422575,0.002572594474145692
6450.275178907376,0.006849612635620136,0.002572595432067828
6450.276178679591,0.007023256675948968,0.0025704661659241806
6450.277178451806,0.007198648288239998,0.0025662934969071195
6450.278178224022,0.007373688745152167,0.0025601841785525144
6450.279177996237,0.007546147061175058,0.002552261653321482
6450.280177768453,0.007713696412795173,0.0025426626314006425
6450.281177540668,0.007873955821373752,0.0025315336531632057
6450.282177312883,0.008024536293552672,0.0025190277801588304
6450.283177085098,0.008163090312070695,0.0025053015161803503
6450.2841768573135,0.008287363305571024,0.002490512011456374
6450.285176629529,0.008395245514581604,0.0024748145815679484
6450.286176401744,0.008484822523401103,0.0024583605850813702
6450.287176173959,0.008554422661892533,0.0024412957196091856
6450.288175946174,0.00860265950892351,0.002423758783679979
6450.28917571839,0.008628467849550481,0.0024058809112435424
6450.290175490605,0.008631131653858202,0.0023877852403558775
6450.291175262821,0.00861030295612208,0.0023695869517267824
6450.292175035035,0.008566010892589952,0.002351393616223421
6450.293174807251,0.008498660579243008,0.002333305812537053
6450.294174579466,0.00840902198068205,0.0023154179930290533
6450.295174351681,0.008298209422727954,0.0022978195697646417
6450.296174123897,0.008167652855994387,0.002280596166014652
6450.297173896112,0.00801906228770111,0.002263830946685965
6450.298173668327,0.007854386922979243,0.0022476059172945964
6450.299173440542,0.00767577053832569,0.0022320030634621845
6450.300173212758,0.007485504535534315,0.0022171051822482265
6450.301172984973,0.007285980043686391,0.002202996240935314
6450.302172757189,0.007079640331407909,0.002189761116160848
6450.303172529403,0.0068689346351369805,0.0021774846304478367
6450.304172301619,0.006656274320752446,0.0021662498923786587
6450.305172073834,0.006443992119809451,0.002156136026803086
6450.306171846049,0.006234305050072099,0.0021472154391132346
6450.307171618265,0.006029281553476796,0.0021395507969576366
6450.30817139048,0.005830813343818972,0.0021331919290737108
6450.309171162695,0.005640592404775288,0.002128172821630794
6450.31017093491,0.005460093477313914,0.002124508847485481
6450.311170707126,0.005290562223165312,0.002122194325882492
6450.312170479341,0.005133009075678557,0.0021212004985288564
6450.313170251557,0.004988208621412761,0.002121474014955548
6450.314170023771,0.0048567042157156536,0.0021229360325841595
6450.315169795987,0.004738817426508702,0.0021254820465647266
6450.316169568202,0.004634661800300464,0.0021289825613654725
6450.317169340417,0.004544160326643755,0.002133284692932591
6450.318169112633,0.004467065853924121,0.002138214750525994
6450.319168884847,0.0044029836332704865,0.00214358180066515
6450.320168657063,0.004351395179714564,0.0021491821654902412
6450.321168429278,0.00431168272268036,0.0021548047489240068
6450.322168201494,0.004283153602924677,0.0021602370148224147
6450.323167973709,0.004265064000513916,0.0021652713740850974
6450.324167745925,0.004256641354597452,0.002169711688930381
6450.325167518139,0.004257104827327018,0.00217337958280502
6450.3261672903545,0.00426568323563507,0.002176120261454354
6450.32716706257,0.004281630041428622,0.002177807604145342
6450.328166834785,0.004304235226975295,0.0021783483530049995
6450.329166607001,0.004332834137258565,0.002177685283834452
6450.330166379215,0.004366813576465144,0.0021757992749564833
6450.331166151431,0.004405615544863947,0.0021727102165332757
6450.332165923646,0.004448738994548251,0.0021684767355220212
6450.333165695862,0.004495739926098861,0.0021631947522918996
6450.334165468077,0.004546230109108352,0.0021569949325500513
6450.335165240293,0.004599874708077095,0.0021500391512866953
6450.336165012507,0.0046563891037362535,0.0021425161341611957
6450.3371647847225,0.0047155351820137754,0.0021346364737518273
6450.338164556938,0.004777117304439106,0.0021266272302658193
6450.339164329153,0.004840978086640738,0.0021187263191457914
6450.340164101369,0.004906994024338085,0.0021111768578168
6450.341163873583,0.004975070945433943,0.002104221592147372
6450.342163645799,0.005045139238526076,0.0020980974666050295
6450.343163418014,0.005117148798442876,0.002093030365207344
6450.34416319023,0.005191063619710924,0.0020892300511623795
6450.345162962445,0.005266855951683811,0.0020868853707364126
6450.3461627346605,0.005344499918832901,0.0020861598370992282
6450.347162506875,0.00542396453565643,0.0020871877364386266
6450.3481622790905,0.0055052061202054406,0.0020900708787430903
6450.349162051306,0.005588160207062614,0.002094876056241843
6450.350161823521,0.005672733135899423,0.0021016332030150747
6450.351161595737,0.0057587935220463895,0.002110334204057674
6450.352161367951,0.005846163811146945,0.0021209323024579505
6450.353161140167,0.005934612118791575,0.0021333420915057456
6450.354160912382,0.00602384460492419,0.002147440120679162
6450.355160684598,0.006113498742875935,0.0021630661613589305
6450.356160456813,0.006203137961381197,0.0021800251704438716
6450.357160229028,0.006292248194165792,0.002198089978869912
6450.358160001243,0.0063802368379153465,0.002217004728798906
6450.3591597734585,0.006466434507674875,0.002236489074809202
6450.360159545674,0.006550099817264657,0.0022562431289284007
6450.361159317889,0.0066304272458124255,0.0022759530624256704
6450.362159090105,0.006706558018975758,0.0022952972000403146
6450.363158862319,0.006777593825869276,0.0023139523857778482
6450.364158634535,0.006842613062937044,0.002331600381945578
6450.36515840675,0.006900689116912508,0.0023479340830171113
6450.366158178966,0.00695090999550607,0.0023626633692668147
6450.367157951181,0.006992398444835146,0.002375520471043548
6450.368157723396,0.007024331612381113,0.002386264742475173
6450.369157495611,0.0070459593482069555,0.002394686750721811
6450.3701572678265,0.00705662036801357,0.0024006115942323955
6450.371157040042,0.0070557556784728095,0.0024039013935378685
6450.372156812257,0.00704291883399472,0.0024044569522539056
6450.373156584473,0.007017782748540573,0.0024022186433042742
6450.374156356687,0.006980142988069122,0.0023971666133404657
6450.375156128903,0.006929917768738344,0.0023893204107532486
6450.376155901118,0.006867145221945042,0.002378738137881765
6450.377155673334,0.006791978723038482,0.0023655152162768956
6450.378155445549,0.006704681133360049,0.0023497828403799496
6450.379155217764,0.006605618698968978,0.0023317061799562337
6450.380154989979,0.006495255162559471,0.0023114823732743326
6450.3811547621945,0.006374146447703826,0.002289338330515833
6450.38215453441,0.006242936104424383,0.002265528340429316
6450.383154306625,0.006102351570581176,0.002240331444910822
6450.38415407884,0.005953201185588764,0.002214048524015562
6450.385153851055,0.005796371750459394,0.0021869990283566025
6450.386153623271,0.005632826235929925,0.0021595173073857008
6450.387153395486,0.005463601037887617,0.002131948501696617
6450.388153167702,0.005289802066990889,0.0021046439959024124
6450.389152939917,0.005112599030468042,0.0020779564777257194
6450.390152712132,0.004933217523900221,0.002052234713273491
6450.391152484347,0.00475292889312046,0.0020278181970475213
6450.392152256562,0.004573038099986579,0.002005031847102614
6450.393152028778,0.00439486994563539,0.001984180902252421
6450.394151800993,0.004219754005399893,0.0019655461586522427
6450.395151573208,0.004049008607202887,0.0019493796615854327
6450.396151345423,0.0038839241959891815,0.0019359009434170205
6450.397151117639,0.003725746454868116,0.0019252938767774493
6450.398150889854,0.003575659566279121,0.0019177042031791017
6450.39915066207,0.0034347699919743653,0.0019132378024744982
6450.400150434285,0.00330409114657244,0.0019119597715648122
6450.4011502065,0.0031845293427077708,0.0019138943585129556
6450.402149978715,0.003076871383397995,0.001919025744285731
6450.40314975093,0.002981774144721283,0.001927299595854114
6450.404149523146,0.0028997564115082392,0.0019386252543312262
6450.405149295361,0.002831193105902488,0.0019528783801881515
6450.406149067576,0.002776311912473806,0.00196990385144177
6450.407148839791,0.002735192196823218,0.001989518701362176
6450.408148612007,0.00270776607567024,0.0020115149047565616
6450.409148384222,0.0026938215305571636,0.0020356618882713686
6450.410148156438,0.0026930075241154683,0.002061708735976051
6450.411147928653,0.0027048411240087017,0.0020893861495810085
6450.412147700868,0.0027287166447848097,0.00211840827392029
6450.413147473083,0.0027639167940702414,0.002148474514680898
6450.414147245298,0.002809625767134523,0.0021792714762706228
6450.415147017514,0.0028649441725103262,0.0022104751422531285
6450.416146789729,0.0029289055949980295,0.0022417534090079555
6450.417146561944,0.003000494516015883,0.0022727690727811856
6450.418146334159,0.003078665212258122,0.0023031833635082984
6450.419146106375,0.003162361146978686,0.0023326600958489783
6450.42014587859,0.003250534278393103,0.002360870450495736
6450.421145650806,0.0033421636597330455,0.00238749832187989
6450.42214542302,0.0034362726958666228,0.002412246106415542
6450.423145195236,0.0035319444482631523,0.002434840773309082
6450.424144967451,0.0036283344644327522,0.0024550400405344524
6450.425144739666,0.003724680775799815,0.0024726384468211978
6450.426144511882,0.0038203109333661066,0.0024874730622455863
6450.427144284097,0.003914646147146666,0.0024994285354992874
6450.428144056312,0.00400720268828008,0.0025084411602522296
6450.429143828527,0.004097590708759373,0.002514501668823232
6450.430143600743,0.004185510606617792,0.002517656528312721
6450.431143372958,0.004270747081866009,0.002518007614520712
6450.4321431451735,0.004353161108435366,0.0025157102548561926
6450.433142917388,0.004432680167271824,0.0025109697344648635
6450.434142689604,0.004509287204129529,0.002504036425191438
6450.435142461819,0.004583008854804638,0.0024951997260302195
6450.436142234034,0.00465390351690041,0.0024847810212828133
6450.43714200625,0.004722049866789829,0.002473125888925326
6450.438141778465,0.004787536428041856,0.0024605958250862653
6450.43914155068,0.004850452758559922,0.0024475597752380896
6450.440141322895,0.00491088270941198,0.0024343857646393478
6450.441141095111,0.004968900029083183,0.002421432898687958
6450.442140867326,0.005024566373221185,0.0024090439666521316
6450.4431406395415,0.005077931561841173,0.0023975388358054984
6450.444140411756,0.005129035734826721,0.002387208769974708
6450.445140183972,0.0051779129166757,0.002378311751665765
6450.446139956187,0.005224595412636788,0.0023710688363112
6450.447139728402,0.00526911841957753,0.002365661525326948
6450.448139500618,0.005311524281569083,0.0023622301129629535
6450.449139272832,0.005351865984100503,0.0023608729367590657
6450.450139045048,0.005390209710214315,0.0023616464387761224
6450.451138817263,0.005426636461908268,0.0023645659326027627
6450.452138589479,0.005461242811389558,0.002369606988268333
6450.453138361694,0.005494140813950214,0.002376707396950331
6450.4541381339095,0.0055254570647203065,0.002385769731833343
6450.455137906124,0.005555330886424565,0.002396664545497444
6450.45613767834,0.005583911713828558,0.002409234223940412
6450.457137450555,0.005611355848334289,0.002423297459314964
6450.45813722277,0.005637822827784739,0.0024386542256245826
6450.459136994986,0.00566347165446065,0.00245509107296954
6450.4601367672,0.0056884570427116485,0.0024723865250123552
6450.461136539416,0.005712925701353025,0.0024903163770856845
6450.462136311631,0.0057370124976025465,0.002508658730663055
6450.463136083847,0.005760836231798329,0.0025271986405996463
6450.464135856062,0.005784494757279493,0.002545732278439145
6450.4651356282775,0.005808059328763051,0.002564070523457369
6450.466135400492,0.005831568295782604,0.002582041893516133
6450.467135172708,0.005855020460918059,0.0025994947370122997
6450.468134944923,0.0058783685121147145,0.002616298633308581
6450.469134717138,0.005901512936021298,0.0026323449914738037
6450.470134489354,0.005924296820726818,0.002647546891515193
6450.471134261568,0.0059465020177455145,0.0026618382641176975
6450.472134033784,0.005967847212744558,0.0026751725337364916
6450.473133805999,0.005987988471371725,0.0026875208525928515
6450.474133578215,0.0060065227405432,0.002698870046774797
6450.47513335043,0.0060229946071686915,0.0027092203869596427
6450.4761331226455,0.0060369063782747786,0.0027185832701778884
6450.47713289486,0.006047731289872349,0.002726978849433755
6450.478132667075,0.006054929413684978,0.002734433598819954
6450.479132439291,0.006057965625354316,0.0027409777836181724
6450.480132211506,0.006056328826313089,0.0027466428266550197
6450.481131983722,0.0060495514983915045,0.0027514586147194225
6450.482131755936,0.0060372286590083335,0.0027554508576859596
6450.483131528152,0.00601903537891299,0.0027586386771292536
6450.484131300367,0.005994742158951714,0.0027610326343005492
6450.485131072583,0.005964227565699981,0.0027626333914450036
6450.486130844798,0.005927487596785224,0.0027634311388814053
6450.487130617013,0.005884641345948739,0.0027634058366042048
6450.488130389228,0.005835932711276629,0.0027625282400961125
6450.489130161443,0.005781728123626889,0.00276076161737894
6450.490129933659,0.0057225105193001126,0.002758064015840909
6450.491129705874,0.00565886999932811,0.0027543909008477846
6450.49212947809,0.005591491768194177,0.0027496979692163076
6450.493129250304,0.005521141992657961,0.0027439439480275245
6450.49412902252,0.005448652171242569,0.002737093222354919
6450.495128794735,0.005374902510881107,0.002729118176711733
6450.496128566951,0.005300804727498701,0.002720001161385687
6450.497128339166,0.005227284639293784,0.0027097360009778874
6450.4981281113805,0.005155264883973232,0.00269832896852974
6450.499127883596,0.005085648041186034,0.0026857991801927093
6450.500127655811,0.005019300379817739,0.0026721784239021936
6450.501127428027,0.004957036393517397,0.002657510492979218
6450.502127200242,0.004899604255199715,0.0026418501231517378
6450.503126972458,0.004847672329169316,0.0026252616273258517
6450.504126744672,0.004801816930881781,0.002607817307018041
6450.505126516888,0.004762511590937633,0.0025895957133845794
6450.506126289103,0.004730118115741636,0.002570679842243794
6450.507126061319,0.004704879721699098,0.00255115536606273
6450.508125833534,0.004686916479270244,0.0025311090077343914
6450.5091256057485,0.004676223274548155,0.002510627135250324
6450.510125377964,0.004672670475430868,0.00248979462408724
6450.511125150179,0.004676007441109083,0.002468694025248892
6450.512124922395,0.004685868922015527,0.0024474050935795826
6450.51312469461,0.004701784286037643,0.0024260047450769904
6450.514124466825,0.004723189407947246,0.0024045674964977117
6450.51512423904,0.004749440980472103,0.0023831663955891603
6450.516124011256,0.004779832932930659,0.002361874397629425
6450.517123783471,0.004813614570512569,0.0023407661053732867
6450.518123555687,0.004850009980381712,0.0023199197732307196
6450.519123327902,0.004888238180169619,0.00229941947454318
6450.5201231001165,0.004927533388494815,0.0022793573241170644
6450.521122872332,0.004967164686277901,0.002259835623252173
6450.522122644547,0.005006454262409653,0.0022409687576547843
6450.523122416763,0.005044793441643507,0.002222884651301697
6450.524122188978,0.005081655776837262,0.0022057255833453438
6450.525121961193,0.00511660662458892,0.002189648218844905
6450.526121733408,0.005149308796736837,0.002174822773641908
6450.527121505624,0.00517952409273682,0.002161431302496083
6450.528121277839,0.005207110759841102,0.002149665154562129
6450.529121050055,0.0052320171576396915,0.0021397216905760857
6450.53012082227,0.005254272072308576,0.0021318004064359722
6450.5311205944845,0.00527397221980797,0.0021260986377397593
6450.5321203667,0.005291267531943431,0.0021228070088178046
6450.533120138915,0.005306344889501355,0.002122104751433679
6450.534119911131,0.005319411070577089,0.0021241549860274984
6450.535119683346,0.0053306757795457725,0.0021291000432960886
6450.536119455561,0.005340335656991895,0.002137056889552207
6450.537119227776,0.00534856011947554,0.002148112698701411
6450.538118999992,0.005355479744416281,0.002162320608768535
6450.539118772207,0.00536117770978359,0.0021796957315352392
6450.540118544423,0.005365684540505358,0.0022002115332744043
6450.541118316638,0.005368976138723555,0.0022237967347998374
6450.5421180888525,0.005370974825496613,0.002250332872260257
6450.543117861068,0.005371552944319218,0.0022796526300118613
6450.544117633283,0.005370538516145814,0.0023115390278578146
6450.545117405499,0.00536772249846829,0.002345725532501959
6450.546117177714,0.005362867329580922,0.0023818971669371434
6450.547116949929,0.005355716537749047,0.0024196926968504083
6450.548116722144,0.005346005199785983,0.0024587079638646965
6450.54911649436,0.0053334709609628,0.002498500410476032
6450.550116266575,0.005317865250304032,0.002538594810632758
6450.551116038791,0.005298964298495011,0.0025784901836350617
6450.552115811006,0.005276579591195822,0.002617667817757683
6450.5531155832205,0.005250567434105353,0.0026556002635275094
6450.554115355436,0.0052208373360177265,0.0026917610890200457
6450.555115127651,0.005187358932185614,0.002725635133726451
6450.556114899867,0.005150167204642807,0.002756728956619133
6450.557114672082,0.005109365832931427,0.0027845811460196494
6450.558114444297,0.005065128603292995,0.002808772143131572
6450.559114216512,0.005017698862455894,0.002828933233635311
6450.560113988728,0.004967387005403827,0.0028447543916371907
6450.561113760943,0.004914565982672117,0.0028559907138861625
6450.562113533159,0.0048596648658777285,0.002862467239668085
6450.563113305373,0.004803160629434042,0.002864082003023172
6450.564113077588,0.004745568432673915,0.0028608072271578077
6450.565112849804,0.004687430745159147,0.002852688666564195
6450.566112622019,0.004629305627589563,0.0028398432167556164
6450.567112394235,0.004571754419411694,0.002822455003609936
6450.56811216645,0.004515329080103007,0.0028007702040774695
6450.569111938665,0.0044605595218088,0.0027750908451647125
6450.57011171088,0.004407941410597641,0.0027457678160874243
6450.571111483096,0.004357925015330819,0.0027131933387313156
6450.572111255311,0.004310905689992729,0.0026777931653386208
6450.573111027527,0.004267216487086354,0.002640018775699586
6450.574110799741,0.0042271232465218985,0.0026003398082585093
6450.575110571956,0.004190822320701613,0.002559236892024709
6450.576110344172,0.004158440917965248,0.0025171949791295872
6450.577110116387,0.004130039903529375,0.0024746972316323696
6450.578109888603,0.004105618799270764,0.0024322194864716943
6450.579109660818,0.004085122658373952,0.002390225294598767
6450.580109433033,0.0040684504399948335,0.0023491615017657364
6450.581109205248,0.004055464475809018,0.0023094543180331335
6450.582108977464,0.0040460006308527625,0.0022715058157688358
6450.583108749679,0.0040398788189934315,0.0022356907997378825
6450.584108521894,0.004036913586621925,0.002202354005659363
6450.585108294109,0.004036924468658276,0.002171807604687876
6450.586108066324,0.004039745758953944,0.0021443290173156653
6450.58710783854,0.004045235297185165,0.0021201590624042245
6450.588107610755,0.004053281922845348,0.0020995004753739644
6450.589107382971,0.00406381138703666,0.0020825168212537434
6450.590107155185,0.004076790686086822,0.002069331810535728
6450.591106927401,0.004092230911383869,0.0020600290086849908
6450.592106699616,0.004110188755033645,0.002054651920181416
6450.593106471832,0.004130766779958157,0.0020532044281456104
6450.594106244047,0.004154112482579506,0.0020556515804091673
6450.595106016262,0.004180416057518303,0.0020619207274763167
6450.596105788477,0.004209906627795899,0.0020719030319642285
6450.597105560692,0.004242846579790433,0.00208545537955651
6450.598105332908,0.004279523630235753,0.0021024027252835396
6450.599105105123,0.004320240423029865,0.002122540905655494
6450.600104877339,0.004365301770248951,0.0021456399386541357
6450.601104649553,0.00441499997361454,0.002171447816224175
6450.602104421769,0.004469598858950367,0.0021996947605332465
6450.603104193984,0.004529317203394083,0.0022300978677538535
6450.6041039662,0.004594312202369662,0.002262366014200203
6450.605103738415,0.004664663594017591,0.0022962048610876205
6450.60610351063,0.004740359066020157,0.002331321768557126
6450.607103282845,0.004821281587162754,0.002367430414908332
6450.60810305506,0.004907199293909998,0.0024042549167216827
6450.609102827276,0.004997758506511212,0.0024415332701636116
6450.610102599491,0.005092480349037067,0.002479019987177287
6450.611102371707,0.005190761300411957,0.0025164878682836997
6450.612102143921,0.0052918778205721445,0.0025537289147757793
6450.613101916137,0.005394995011643139,0.00259055442657501
6450.614101688352,0.005499179116504848,0.002626794357264817
6450.615101460568,0.005603413524933367,0.002662296005229681
6450.616101232783,0.00570661783636087,0.002696922116382771
6450.617101004998,0.005807669411571038,0.0027305484778242304
6450.618100777213,0.005905426729107821,0.002763061106766427
6450.619100549428,0.005998753739152449,0.0027943531784265277
6450.620100321644,0.006086544289873036,0.0028243218704505123
6450.621100093859,0.006167745647084108,0.002852865316029448
6450.622099866075,0.006241380221364927,0.0028798798538446956
6450.623099638289,0.006306564871344828,0.002905257749092029
6450.624099410505,0.006362527450937682,0.0029288855394964566
6450.62509918272,0.006408620462804771,0.002950643126854216
6450.626098954936,0.00644433174027017,0.0029704036841624267
6450.627098727151,0.006469292097812491,0.0029880343886473752
6450.6280984993655,0.006483279953253349,0.003003397933141365
6450.629098271581,0.0064862230279005735,0.003016354717668425
6450.630098043796,0.0064781973034365925,0.0030267655823232624
6450.631097816012,0.006459423405003846,0.003034494917734124
6450.632097588227,0.006430260516250592,0.003039413991265385
6450.633097360443,0.006391197891765071,0.0030414043591066317
6450.634097132657,0.006342844056651182,0.003040361278375407
6450.635096904873,0.006285913845243292,0.003036197063386772
6450.636096677088,0.006221213498749761,0.003028844343887245
6450.637096449304,0.006149624130501946,0.0030182591954203445
6450.638096221519,0.006072083996351289,0.003004424119930021
6450.6390959937335,0.0059895701268902445,0.0029873508381103773
6450.640095765949,0.0059030799011110715,0.002967082811554545
6450.641095538164,0.005813613052394161,0.0029436973622945176
6450.64209531038,0.005722154473057944,0.0029173072153839534
6450.643095082595,0.005629658095701014,0.002888061257652583
6450.644094854811,0.005537032090570489,0.0028561442835418633
6450.645094627025,0.005445125613824602,0.002821775507231802
6450.646094399241,0.005354717354034105,0.002785205696016998
6450.647094171456,0.005266506122117658,0.0027467129331957096
6450.648093943672,0.005181103683845705,0.002706597196985946
6450.649093715887,0.005099029940867385,0.0026651740721931223
6450.650093488101,0.00502071044734855,0.0026227679721497173
6450.651093260317,0.004946476150409976,0.0025797052650226924
6450.652093032532,0.004876565218754624,0.0025363076848323412
6450.653092804748,0.004811126880439533,0.0024928863563963184
6450.654092576963,0.0047502272562186185,0.0024497366791894513
6450.655092349178,0.004693857170469495,0.0024071342168190224
6450.656092121393,0.004641941832953439,0.002365331641359084
6450.657091893609,0.004594352148212344,0.0023245566972224943
6450.658091665824,0.004550917273767251,0.0022850110936597206
6450.65909143804,0.00451143795999261,0.0022468702136075997
6450.660091210255,0.004475700184803173,0.0022102835213027236
6450.661090982469,0.004443488612483881,0.002175375540377866
6450.662090754685,0.004414599393250138,0.0021422472598633824
6450.6630905269,0.004388851744568198,0.0021109778260427455
6450.664090299116,0.00436609765508477,0.002081626402990588
6450.665090071331,0.004346229024482365,0.002054234122529514
6450.666089843546,0.004329181693125249,0.00202882607162992
6450.667089615761,0.004314936135127676,0.0020054132689566436
6450.668089387977,0.004303514979549776,0.001983994573231639
6450.669089160192,0.004294977834018205,0.0019645584613960593
6450.670088932407,0.0042894140374574495,0.001947084617010072
6450.671088704623,0.00428693399844122,0.0019315452744784847
6450.672088476837,0.004287659751124427,0.0019179062759585206
6450.673088249053,0.004291715313932004,0.0019061278246029342
6450.674088021268,0.00429921737246409,0.0018961649592636367
6450.675087793484,0.0043102667370176605,0.0018879678121754909
6450.676087565699,0.004324940954402075,0.0018814817216453452
6450.677087337914,0.004343288372539732,0.0018766472578121626
6450.678087110129,0.0043653238487907624,0.0018734001982317072
6450.679086882345,0.004391026163382641,0.0018716714707667657
6450.68008665456,0.00442033707072073,0.0018713870621284937
6450.681086426775,0.004453161811600082,0.0018724678743174852
6450.682086198991,0.004489370824088165,0.0018748295130976583
6450.683085971205,0.0045288023395960286,0.001878382024635667
6450.684085743421,0.0045712655498455716,0.0018830296489509971
6450.685085515636,0.004616544080011307,0.0018886707042435375
6450.686085287852,0.004664399574679735,0.0018951977336229007
6450.687085060067,0.004714575260178302,0.001902498035009212
6450.688084832282,0.0047667993700052395,0.0019104546648279
6450.689084604497,0.004820788315857657,0.0019189479608869781
6450.690084376713,0.00487624948335917,0.0019278575714633645
6450.691084148928,0.004932883558622509,0.0019370649118938814
6450.692083921143,0.004990386351819158,0.001946455906446392
6450.693083693358,0.005048450151138823,0.001955923824814653
6450.694083465573,0.0051067646949004165,0.0019653720043655517
6450.695083237789,0.00516501790132959,0.0019747162704840814
6450.696083010004,0.005222896560448517,0.0019838869228713217
6450.69708278222,0.005280087251694127,0.001992830228205794
6450.698082554435,0.005336277755690034,0.0020015094269579528
6450.69908232665,0.005391159151417357,0.002009905302481737
6450.700082098865,0.0054444286602890685,0.0020180163633102904
6450.7010818710805,0.005495793177726029,0.002025858668111086
6450.702081643296,0.005544973356463011,0.0020334653028657463
6450.703081415511,0.005591708067810616,0.002040885509670912
6450.704081187726,0.005635759051772109,0.0020481834520548066
6450.705080959941,0.005676915563946261,0.0020554365764394477
6450.706080732157,0.005714998817928779,0.0020627335090649024
6450.707080504372,0.005749865985195736,0.0020701714293595245
6450.708080276588,0.005781413447996456,0.002077852885238182
6450.709080048803,0.005809578927707749,0.0020858820574089255
6450.710079821018,0.0058343420784964135,0.0020943605376331632
6450.711079593233,0.005855723204161482,0.002103382755010484
6450.7120793654485,0.00587377995312362,0.0021130312466479447
6450.713079137664,0.005888602122127096,0.0021233720070543897
6450.714078909879,0.005900304946066823,0.0021344501611592244
6450.715078682094,0.005909021392590046,0.002146286192055268
6450.716078454309,0.005914894019260621,0.0021588729199436872
6450.717078226525,0.005918066929562834,0.0021721733863841364
6450.71807799874,0.005918678304767864,0.0021861197644360572
6450.719077770956,0.005916853905159564,0.0022006133899078926
6450.72007754317,0.005912701857461391,0.002215525975459554
6450.721077315386,0.005906308994364609,0.0022307020175251924
6450.722077087601,0.005897738948620753,0.002245962339938833
6450.7230768598165,0.005887032066360159,0.0022611086493991147
6450.724076632032,0.0058742069929036906,0.002275928918165762
6450.725076404247,0.005859263583980818,0.0022902033649151166
6450.726076176462,0.005842186695677272,0.0023037107771148656
6450.727075948677,0.005822950413700249,0.002316234904844878
6450.728075720893,0.005801522324281915,0.0023275706455072216
6450.729075493108,0.005777867453308547,0.002337529723811705
6450.730075265324,0.005751951544455217,0.002345945568254602
6450.731075037538,0.0057237434762075585,0.0023526771212081113
6450.732074809754,0.005693216811174572,0.002357611397892362
6450.733074581969,0.005660350624744651,0.00236066470766568
6450.7340743541845,0.005625129806886444,0.002361782551196743
6450.7350741264,0.00558754500932117,0.002360938307032054
6450.736073898615,0.005547592396211733,0.0023581309170414436
6450.73707367083,0.005505273371768215,0.00235338185319764
6450.738073443045,0.00546059447294197,0.0023467316761550004
6450.739073215261,0.0054135676157838685,0.0023382364740643876
6450.740072987476,0.005364210897343645,0.002327964410779421
6450.741072759692,0.005312550192070594,0.0023159925362153714
6450.742072531906,0.005258621790863498,0.0023024039413557444
6450.743072304122,0.005202476248901872,0.002287285295117513
6450.744072076337,0.005144183434834474,0.002270724781768822
6450.7450718485525,0.005083838570970361,0.0022528104544210113
6450.746071620768,0.0050215688983175,0.0022336290228848906
6450.747071392983,0.004957540540120404,0.0022132650972304406
6450.748071165198,0.004891965165494957,0.0021918009028117007
6450.749070937413,0.004825106116862541,0.0021693164595151335
6450.750070709629,0.004757283713462633,0.0021458901827269873
6450.751070481844,0.004688879475316929,0.0021215998367996006
6450.75207025406,0.004620339049095845,0.0020965237652880836
6450.753070026274,0.004552173659146659,0.0020707423222005375
6450.75406979849,0.004484959924255696,0.0020443394188932253
6450.755069570705,0.004419337858432308,0.0020174040857818963
6450.7560693429205,0.004356006839527778,0.001990031937480369
6450.757069115136,0.004295719323722335,0.0019623264273817783
6450.75806888735,0.004239272125461914,0.001934399782162508
6450.759068659566,0.004187495170651365,0.0019063735169383448
6450.760068431781,0.004141237761322672,0.0018783784501098235
6450.761068203997,0.004101352553736222,0.001850554174491142
6450.762067976212,0.004068677619962326,0.0018230480056915183
6450.763067748428,0.004044017083842847,0.0017960135037783287
6450.764067520642,0.004028120865387261,0.0017696087162825825
6450.765067292858,0.004021664066039953,0.0017439942983834293
6450.766067065073,0.004025226541624784,0.0017193316388442437
6450.767066837288,0.004039273258721373,0.0016957810847215082
6450.768066609504,0.004064136082709793,0.0016735003342505158
6450.769066381718,0.004099997667045288,0.0016526430572226893
6450.770066153934,0.004146878089053654,0.001633357790796383
6450.771065926149,0.004204624802272959,0.0016157871296361521
6450.772065698365,0.0042729063484722345,0.0016000671836641494
6450.77306547058,0.004351210110279014,0.001586327234865844
6450.774065242796,0.004438844222933642,0.0015746895055901078
6450.77506501501,0.004534943633605462,0.0015652689552457118
6450.776064787226,0.004638480200292158,0.001558173039813619
6450.777064559441,0.004748276627907189,0.001553501394472138
6450.778064331656,0.004863023920421489,0.0015513454324157451
6450.779064103872,0.004981301899363442,0.0015517878799032648
6450.780063876086,0.005101602247738205,0.001554902270223527
6450.781063648302,0.005222353526196213,0.0015607523955133902
6450.782063420517,0.005341947665787346,0.0015693916827849543
6450.783063192733,0.005458767490582913,0.0015808624404513492
6450.784062964948,0.005571214780469058,0.0015951949296884283
6450.785062737163,0.005677738259820461,0.001612406252272235
6450.786062509378,0.005776860795037796,0.0016324990889033512
6450.7870622815935,0.00586720509375064,0.0016554603369177221
6450.788062053809,0.005947517319559945,0.0016812596798351323
6450.789061826024,0.006016688193922996,0.001709848103310173
6450.79006159824,0.006073771274218017,0.0017411563799620046
6450.791061370454,0.006117998153776835,0.0017750935728836916
6450.79206114267,0.006148790370066171,0.0018115456270882174
6450.793060914885,0.006165767881135223,0.0018503741192872137
6450.794060687101,0.006168754059601269,0.0018914152349974631
6450.795060459316,0.006157777183895018,0.0019344790527556185
6450.796060231531,0.006133068345087032,0.0019793492335668282
6450.797060003746,0.006095055597449264,0.002025783224957112
6450.7980597759615,0.006044354165641167,0.0020735130820403497
6450.799059548177,0.005981752626610811,0.0021222469805640687
6450.800059320392,0.0059081951696083575,0.002171671456573423
6450.801059092608,0.005824760241536881,0.0022214543685458604
6450.802058864822,0.0057326360822977625,0.0022712485521403
6450.803058637038,0.005633093839249471,0.0023206961247251474
6450.804058409253,0.005527459096128772,0.0023694333883904836
6450.805058181469,0.00541708272522401,0.002417096269035185
6450.806057953684,0.0053033119618668976,0.0024633262071198704
6450.807057725899,0.005187462530346892,0.002507776372279778
6450.808057498114,0.005070792551035522,0.0025501180068696664
6450.8090572703295,0.004954478843428508,0.0025900466264322823
6450.810057042545,0.004839596116081576,0.0026272877458723295
6450.81105681476,0.004727099421550764,0.0026616017889902507
6450.812056586976,0.004617810164819908,0.0026927878893325
6450.81305635919,0.00451240586947338,0.0027206863928396718
6450.814056131406,0.004411413806092404,0.0027451800085890854
6450.815055903621,0.00431520848457489,0.0027661936976928433
6450.816055675837,0.004224012930724365,0.002783693505963552
6450.817055448052,0.004137903595075031,0.0027976846017791442
6450.818055220267,0.004056818639609537,0.0028082087722023754
6450.819054992482,0.003980569210334287,0.0028153415812161692
6450.8200547646975,0.003908853176472045,0.0028191893406104
6450.821054536913,0.003841270756417796,0.0028198860188511483
6450.822054309128,0.00377734147894321,0.002817590220522462
6450.823054081343,0.003716522014967262,0.0028124823760888643
6450.824053853558,0.003658224496926152,0.0028047622528581595
6450.825053625774,0.0036018349789388553,0.0027946468347931665
6450.826053397989,0.0035467316957899656,0.002782368549229625
6450.827053170205,0.0034923027866855783,0.0027681737583753305
6450.82805294242,0.003437963170734861,0.002752321385665286
6450.829052714635,0.0033831702905242718,0.002735081524205011
6450.83005248685,0.003327438489408242,0.0027167338900090762
6450.8310522590655,0.003270351864932889,0.002697566026819681
6450.832052031281,0.0032115755124860032,0.0026778712157239167
6450.833051803496,0.0031508650942595755,0.0026579460726203472
6450.834051575711,0.003088074633055472,0.002638087828932399
6450.835051347926,0.0030231623679187274,0.002618591300995142
6450.836051120142,0.002956194452579191,0.002599745575653557
6450.837050892357,0.0028873462631139233,0.0025818304662646877
6450.838050664573,0.00281690114406334,0.002565112805044926
6450.839050436788,0.002745246567061446,0.0025498426330345333
6450.840050209003,0.00267286784923384,0.002536249344455716
6450.841049981218,0.0026003397038127252,0.002524537847070917
6450.8420497534335,0.0025283159416396787,0.002514884806356842
6450.843049525649,0.002457517636289,0.0025074350387471085
6450.844049297864,0.002388720049456601,0.002502298111929537
6450.845049070079,0.002322738617601905,0.0024995452132658266
6450.846048842294,0.0022604143378806897,0.002499206368786242
6450.84704861451,0.002202598943301355,0.0025012681286657305
6450.848048386725,0.002150140285103518,0.0025056718679554338
6450.849048158941,0.002103868319497253,0.0025123128671472065
6450.850047931155,0.002064582029564623,0.002521040318068366
6450.851047703371,0.002033037520168532,0.002531658345049343
6450.852047475586,0.0020099374253153245,0.0025439280646782363
6450.853047247801,0.001995921681262597,0.002557570662953254
6450.854047020017,0.0019915596553160544,0.0025722714582740594
6450.855046792232,0.0019973435825582,0.002587684925965739
6450.856046564447,0.0020136832461320046,0.0026034406586601003
6450.857046336662,0.0020409018333000977,0.0026191502141525674
6450.858046108878,0.002079232905958036,0.002634414761589971
6450.859045881093,0.0021288184385982803,0.002648833382419153
6450.860045653309,0.0021897078889131453,0.002662011815937303
6450.861045425523,0.0022618582642644817,0.002673571370002207
6450.862045197739,0.0023451351291788533,0.0026831576652524476
6450.863044969954,0.002439314470947766,0.0026904488638186427
6450.864044742169,0.0025440853079638994,0.002695163054533032
6450.865044514385,0.0026590528941396827,0.0026970645160676937
6450.8660442866,0.002783742353078406,0.0026959686467471866
6450.867044058815,0.002917602575043853,0.002691745431853598
6450.86804383103,0.0030600102210226634,0.0026843214104904835
6450.869043603246,0.0032102736978546313,0.002673680185139842
6450.870043375461,0.003367637017978998,0.0026598615656279073
6450.871043147677,0.003531283549051663,0.0026429594555712893
6450.872042919891,0.003700339756880271,0.002623118601365453
6450.8730426921065,0.003873879103553396,0.002600530356759159
6450.874042464322,0.004050926276561303,0.0025754276610886846
6450.875042236537,0.004230461912034149,0.0025480794522993702
6450.876042008753,0.004411427937488561,0.0025187847185479386
6450.877041780968,0.004592733589181724,0.002487866351212402
6450.878041553183,0.0047732620684344165,0.002455664927608784
6450.879041325398,0.004951877734394541,0.0024225325354560318
6450.880041097614,0.005127433738807795,0.002388826738259849
6450.881040869829,0.005298780085473108,0.0023549047520052264
6450.882040642045,0.005464772158555324,0.0023211178653613006
6450.883040414259,0.005624279727224898,0.0022878061157641776
6450.8840401864745,0.005776196305734798,0.0022552932437501566
6450.88503995869,0.005919448613399816,0.002223881970414503
6450.886039730905,0.006053005833929808,0.0021938496608999635
6450.887039503121,0.006175888467998118,0.0021654444529676624
6450.888039275335,0.006287176779526032,0.00213888194961327
6450.889039047551,0.006386019056986318,0.0021143425903641395
6450.890038819766,0.006471640033962024,0.0020919698141033303
6450.891038591982,0.006543349790202535,0.0020718691017529585
6450.892038364197,0.006600553332020039,0.00205410794084383
6450.8930381364125,0.006642760909778373,0.0020387166884036335
6450.894037908627,0.006669598998677704,0.002025690233768537
6450.8950376808425,0.006680821717947616,0.0020149903017487964
6450.896037453058,0.00667632227428408,0.002006548213209014
6450.897037225273,0.006656143814015756,0.0020002679388621326
6450.898036997489,0.006620488900494548,0.001996029324177276
6450.899036769703,0.006569726743277318,0.0019936914076735053
6450.900036541919,0.006504397336967684,0.0019930957917030125
6450.901036314134,0.006425211840352986,0.0019940700500008205
6450.90203608635,0.006333048802855393,0.001996431169085763
6450.903035858565,0.00622894612612169,0.001999989024332211
6450.9040356307805,0.006114088832216806,0.002004549884494748
6450.905035402995,0.0059897927863343985,0.0020099199159738053
6450.9060351752105,0.005857484591599039,0.002015908631503114
6450.907034947426,0.00571867803699248,0.002022332223495383
6450.908034719641,0.005574947730476559,0.002029016750726365
6450.909034491857,0.005427900798357677,0.002035801186777545
6450.910034264071,0.005279147692475855,0.002042540358316741
6450.911034036287,0.00513027318084771,0.0020491077908102013
6450.912033808502,0.004982808518802368,0.0020553984505697564
6450.913033580718,0.004838205654116396,0.002061331337296037
6450.914033352933,0.0046978141575231775,0.002066851844613357
6450.915033125148,0.004562861412726731,0.0020719337757813374
6450.916032897363,0.0044344364521246,0.0020765808946409292
6450.9170326695785,0.004313477677365548,0.0020808279156758216
6450.918032441794,0.004200764544356473,0.002084740875326159
6450.919032214009,0.004096913120598924,0.0020884168512812174
