Time,Filtered_ECG
6481.005566592028,-0.005249635988512383
6481.006566363951,-0.005272237863983508
6481.007566135874,-0.0052940762275569715
6481.008565907797,-0.005315138445195663
6481.009565679719,-0.005335412014290219
6481.010565451642,-0.005354884569080236
6481.0115652235645,-0.005373543886057574
6481.012564995488,-0.005391377889347894
6481.013564767411,-0.005408374656066419
6481.014564539333,-0.005424522421643782
6481.015564311256,-0.005439809585117754
6481.016564083178,-0.005454224714386683
6481.017563855102,-0.0054677565514205
6481.018563627024,-0.005480394017425262
6481.019563398947,-0.005492126217957315
6481.0205631708695,-0.005502942447983281
6481.021562942792,-0.005512832196882183
6481.022562714716,-0.005521785153386152
6481.023562486638,-0.005529791210456244
6481.024562258561,-0.005536840470089974
6481.025562030483,-0.005542923248057278
6481.026561802406,-0.005548030078561591
6481.0275615743285,-0.005552151718822796
6481.028561346252,-0.005555279153578772
6481.029561118175,-0.005557403599502277
6481.030560890097,-0.005558516509529998
6481.03156066202,-0.00555860957710066
6481.032560433942,-0.005557674740299183
6481.033560205866,-0.005555704185904098
6481.034559977788,-0.005552690353335501
6481.035559749711,-0.00554862593850098
6481.0365595216335,-0.005543503897537093
6481.037559293556,-0.005537317450444062
6481.03855906548,-0.0055300600846114765
6481.039558837402,-0.005521725558232986
6481.040558609325,-0.005512307903608114
6481.041558381247,-0.005501801430329589
6481.04255815317,-0.0054902007283548675
6481.0435579250925,-0.005477500670960804
6481.044557697016,-0.005463696417580751
6481.045557468939,-0.00544878341652356
6481.046557240861,-0.005432757407574238
6481.047557012784,-0.0054156144244761235
6481.048556784706,-0.005397350797294537
6481.04955655663,-0.005377963154661956
6481.050556328552,-0.005357448425904703
6481.051556100475,-0.0053358038430510735
6481.0525558723975,-0.005313026942720763
6481.05355564432,-0.0052891155678952695
6481.054555416244,-0.005264067869568861
6481.055555188166,-0.00523788230827953
6481.056554960089,-0.0052105576555191765
6481.057554732011,-0.005182092995022175
6481.058554503934,-0.005152487723931308
6481.0595542758565,-0.005121741553840036
6481.06055404778,-0.0050898545117100714
6481.061553819703,-0.00505682694066333
6481.062553591625,-0.005022659500647544
6481.063553363548,-0.0049873531689750535
6481.06455313547,-0.004950909240734565
6481.065552907394,-0.004913329329075902
6481.066552679316,-0.004874615365367957
6481.067552451239,-0.004834769599230204
6481.0685522231615,-0.004793794598438216
6481.069551995084,-0.004751693248703726
6481.070551767008,-0.004708468753329826
6481.07155153893,-0.004664124632741948
6481.072551310853,-0.004618664723895302
6481.073551082775,-0.004572093179559427
6481.074550854698,-0.0045244144674805075
6481.075550626621,-0.004475633369422064
6481.076550398544,-0.004425754980084643
6481.077550170467,-0.004374784705905116
6481.078549942389,-0.004322728263736253
6481.079549714312,-0.00426959167940726
6481.080549486234,-0.004215381286166029
6481.081549258158,-0.004160103723003853
6481.08254903008,-0.004103765932863383
6481.083548802003,-0.004046375160730566
6481.0845485739255,-0.003987938951611287
6481.085548345848,-0.003928465148393449
6481.086548117772,-0.0038679618895951485
6481.087547889694,-0.0038064376069996846
6481.088547661617,-0.0037439010231781187
6481.089547433539,-0.003680361148900148
6481.090547205462,-0.0036158272804341206
6481.0915469773845,-0.003550308996737084
6481.092546749308,-0.0034838161565358284
6481.093546521231,-0.0034163588952999444
6481.094546293153,-0.0033479476221080044
6481.095546065076,-0.0032785930164080613
6481.096545836998,-0.003208306024673759
6481.097545608922,-0.003137097856957489
6481.098545380844,-0.003064979983342178
6481.099545152767,-0.0029919641302934433
6481.1005449246895,-0.0029180622769140433
6481.101544696612,-0.002843286651102722
6481.102544468536,-0.0027676497256196994
6481.103544240458,-0.00269116421406117
6481.104544012381,-0.002613843066745272
6481.105543784303,-0.0025356994665120375
6481.106543556226,-0.0024567468244398624
6481.107543328149,-0.00237699877548106
6481.108543100072,-0.002296469174019077
6481.109542871995,-0.0022151720893499463
6481.110542643917,-0.002133121801090545
6481.11154241584,-0.0020503327945162546
6481.112542187762,-0.001966819755830611
6481.113541959686,-0.0018825975673695697
6481.114541731608,-0.0017976813027430043
6481.115541503531,-0.0017120862219161064
6481.1165412754535,-0.0016258277662333754
6481.117541047376,-0.0015389215533879248
6481.1185408193,-0.0014513833723388825
6481.119540591222,-0.0013632291781797315
6481.120540363145,-0.0012744750869604993
6481.121540135067,-0.0011851373704667623
6481.12253990699,-0.0010952324509584718
6481.123539678913,-0.0010047768958716357
6481.124539450836,-0.0009137874124858847
6481.125539222759,-0.0008222808425609351
6481.126538994681,-0.0007302741569449086
6481.127538766604,-0.0006377844501573887
6481.128538538526,-0.0005448289349499768
6481.12953831045,-0.00045142493684698337
6481.130538082372,-0.00035758988866873626
6481.131537854295,-0.00026334132503984747
6481.1325376262175,-0.00016869687688463185
6481.13353739814,-7.367426591174491e-05
6481.134537170064,2.1708700910010085e-05
6481.135536941986,0.00011743413688285045
6481.136536713909,0.00021348408111636772
6481.137536485831,0.000309840504067303
6481.138536257754,0.00040648531308096604
6481.139536029677,0.0005034003579324716
6481.1405358016,0.000600567436365894
6481.141535573523,0.0006979682996293565
6481.142535345445,0.0007955846580039825
6481.143535117368,0.0008933981863245508
6481.14453488929,0.0009913905294896101
6481.145534661214,0.0010895433079587244
6481.146534433136,0.0011878381232344286
6481.147534205059,0.001286256563326398
6481.1485339769815,0.001384780208195261
6481.149533748904,0.0014833906351734423
6481.150533520828,0.001582069424360418
6481.15153329275,0.0016807981639897775
6481.152533064673,0.0017795584557655651
6481.153532836595,0.0018783319201654731
6481.154532608518,0.001977100201708587
6481.155532380441,0.00207584497418557
6481.156532152364,0.0021745479458493344
6481.157531924287,0.0022731908645644344
6481.158531696209,0.002371755522913565
6481.159531468132,0.002470223763259669
6481.160531240055,0.0025685774827622575
6481.161531011978,0.002666798638346595
6481.1625307839,0.0027648692516244397
6481.163530555823,0.002862771413765029
6481.1645303277455,0.002960487290314983
6481.165530099668,0.003057999125965762
6481.166529871592,0.003155289249267288
6481.167529643514,0.003252340077286301
6481.168529415437,0.003349134120207996
6481.169529187359,0.003445653985879487
6481.170528959282,0.0035418823842936356
6481.171528731205,0.0036378021320118453
6481.172528503128,0.0037333961565244353
6481.173528275051,0.0038286475005472865
6481.174528046973,0.003923539326253508
6481.175527818896,0.004018054919438894
6481.176527590818,0.004112177693619951
6481.177527362742,0.004205891194063219
6481.178527134664,0.0042991791017445305
6481.179526906587,0.004392025237236729
6481.1805266785095,0.004484413564524291
6481.181526450432,0.004576328194743163
6481.182526222356,0.004667753389844129
6481.183525994278,0.004758673566177978
6481.184525766201,0.004849073298000847
6481.185525538123,0.0049389373208981934
6481.186525310046,0.00502825053512602
6481.187525081969,0.005116998008868095
6481.188524853892,0.005205164981408113
6481.189524625815,0.005292736866215822
6481.190524397737,0.005379699253946281
6481.19152416966,0.0054660379153514205
6481.192523941583,0.005551738804103125
6481.193523713506,0.005636788059526993
6481.194523485428,0.005721172009245996
6481.195523257351,0.005804877171733215
6481.1965230292735,0.005887890258772902
6481.197522801196,0.00597019817782914
6481.19852257312,0.006051788034321439
6481.199522345042,0.0061326471338066565
6481.200522116965,0.006212762984066709
6481.201521888887,0.0062921232971016585
6481.20252166081,0.0063707159910278074
6481.203521432733,0.006448529191880563
6481.204521204656,0.006525551235321926
6481.205520976579,0.00660177066825256
6481.206520748501,0.00667717625032853
6481.207520520424,0.0067517569553828555
6481.208520292347,0.006825501972752151
6481.20952006427,0.006898400708508632
6481.210519836192,0.006970442786597829
6481.211519608115,0.007041618049882317
6481.2125193800375,0.007111916561091806
6481.21351915196,0.007181328603679885
6481.214518923884,0.007249844682587778
6481.215518695806,0.007317455524915416
6481.216518467729,0.0073841520805001705
6481.217518239651,0.007449925522403626
6481.218518011574,0.007514767247306826
6481.219517783497,0.007578668875814428
6481.22051755542,0.00764162225266829
6481.221517327343,0.007703619446871056
6481.222517099265,0.00776465275172037
6481.223516871188,0.007824714684754413
6481.224516643111,0.007883797987609518
6481.225516415034,0.00794189562579071
6481.226516186956,0.007999000788356081
6481.227515958879,0.008055106887515977
6481.2285157308015,0.008110207558148041
6481.229515502724,0.008164296657229236
6481.230515274648,0.00821736826318597
6481.23151504657,0.008269416675163567
6481.232514818493,0.008320436412216295
6481.233514590415,0.008370422212419267
6481.234514362338,0.00841936903190354
6481.235514134261,0.008467272043815767
6481.236513906184,0.008514126637203823
6481.237513678107,0.008559928415829785
6481.238513450029,0.008604673196911631
6481.239513221952,0.008648357009795077
6481.240512993875,0.008690976094556943
6481.241512765798,0.008732526900541531
6481.24251253772,0.008773006084831444
6481.243512309643,0.00881241051065446
6481.2445120815655,0.008850737245728043
6481.245511853489,0.008887983560543175
6481.246511625412,0.00892414692658925
6481.247511397334,0.008959225014521892
6481.248511169257,0.008993215692275517
6481.249510941179,0.0090261170231226
6481.250510713102,0.009057927263681482
6481.251510485025,0.00908864486187467
6481.252510256948,0.009118268454839505
6481.253510028871,0.009146796866793082
6481.254509800793,0.00917422910685337
6481.255509572716,0.009200564366818447
6481.256509344639,0.009225802018905783
6481.257509116562,0.009249941613453562
6481.258508888484,0.009272982876585994
6481.259508660407,0.009294925707844641
6481.2605084323295,0.009315770177787772
6481.261508204253,0.00933551652555979
6481.262507976176,0.009354165156432866
6481.263507748098,0.009371716639322953
6481.264507520021,0.00938817170428251
6481.265507291943,0.009403531239972302
6481.266507063866,0.009417796291114774
6481.267506835789,0.009430968055931572
6481.268506607712,0.009443047883567824
6481.269506379635,0.009454037271505872
6481.270506151557,0.00946393786297116
6481.27150592348,0.009472751444333039
6481.272505695403,0.009480479942503213
6481.273505467326,0.009487125422334593
6481.274505239248,0.009492690084023248
6481.275505011171,0.009497176260516077
6481.2765047830935,0.00950058641492681
6481.277504555017,0.009502923137962823
6481.27850432694,0.009504189145365199
6481.279504098862,0.009504387275364403
6481.280503870785,0.009503520486153872
6481.281503642707,0.009501591853383774
6481.28250341463,0.009498604567677054
6481.283503186553,0.009494561932169895
6481.284502958476,0.009489467360078576
6481.285502730399,0.009483324372294637
6481.286502502321,0.00947613659501018
6481.287502274244,0.009467907757375023
6481.288502046167,0.009458641689187346
6481.28950181809,0.009448342318619313
6481.290501590012,0.009437013669979106
6481.291501361935,0.009424659861510656
6481.2925011338575,0.00941128510323233
6481.293500905781,0.009396893694815693
6481.294500677704,0.009381490023505471
6481.295500449626,0.009365078562081743
6481.296500221549,0.009347663866865308
6481.297499993471,0.009329250575767136
6481.298499765395,0.009309843406382651
6481.299499537317,0.009289447154131557
6481.30049930924,0.009268066690443746
6481.301499081163,0.009245706960991718
6481.302498853085,0.009222372983969883
6481.303498625008,0.009198069848420979
6481.304498396931,0.009172802712609762
6481.305498168854,0.009146576802444108
6481.306497940776,0.0091193974099436
6481.307497712699,0.009091269891755654
6481.3084974846215,0.009062199667719201
6481.309497256545,0.00903219221947596
6481.310497028468,0.009001253089129371
6481.31149680039,0.008969387877951235
6481.312496572313,0.008936602245136132
6481.313496344235,0.008902901906603694
6481.314496116158,0.008868292633848801
6481.315495888081,0.008832780252839777
6481.316495660004,0.008796370642964664
6481.317495431927,0.008759069736025587
6481.318495203849,0.008720883515281254
6481.319494975772,0.008681818014537549
6481.320494747695,0.008641879317286187
6481.321494519618,0.008601073555891292
6481.32249429154,0.00855940691082378
6481.323494063463,0.008516885609943362
6481.3244938353855,0.008473515927827972
6481.325493607309,0.008429304185150357
6481.326493379232,0.008384256748101561
6481.327493151154,0.008338380027860953
6481.328492923077,0.008291680480112414
6481.329492694999,0.008244164604606198
6481.330492466923,0.008195838944765898
6481.331492238845,0.008146710087339993
6481.332492010768,0.008096784662097345
6481.3334917826905,0.008046069341566014
6481.334491554613,0.007994570840814796
6481.335491326536,0.00794229591727682
6481.336491098459,0.00788925137061464
6481.337490870382,0.007835444042626186
6481.338490642304,0.007780880817191091
6481.339490414227,0.007725568620256855
6481.3404901861495,0.007669514419864401
6481.341489958073,0.007612725226212565
6481.342489729996,0.007555208091761088
6481.343489501918,0.007496970111371711
6481.344489273841,0.007438018422486957
6481.345489045763,0.007378360205346201
6481.346488817687,0.0073180026832385765
6481.347488589609,0.007256953122792277
6481.348488361532,0.0071952188342997245
6481.349488133455,0.007132807172078033
6481.350487905377,0.007069725534864129
6481.3514876773,0.0070059813662437555
6481.352487449223,0.006941582155113528
6481.353487221146,0.006876535436175133
6481.354486993068,0.0068108487904605915
6481.355486764991,0.006744529845887488
6481.3564865369135,0.006677586277842966
6481.357486308837,0.0066100258097952684
6481.35848608076,0.006541856213931562
6481.359485852682,0.006473085311820781
6481.360485624605,0.006403720975100242
6481.361485396527,0.006333771126184757
6481.362485168451,0.006263243738996985
6481.363484940373,0.006192146839717738
6481.364484712296,0.006120488507554945
6481.3654844842185,0.006048276875529925
6481.366484256141,0.005975520131279615
6481.367484028064,0.005902226517873352
6481.368483799987,0.005828404334642773
6481.36948357191,0.005754061938023363
6481.370483343832,0.005679207742406146
6481.371483115755,0.005603850220997949
6481.3724828876775,0.005527997906688674
6481.373482659601,0.005451659392923932
6481.374482431524,0.00537484333458143
6481.375482203446,0.005297558448849461
6481.376481975369,0.005219813516105871
6481.377481747291,0.005141617380795857
6481.378481519215,0.005062978952306977
6481.379481291137,0.0049839072058397
6481.38048106306,0.0049044111832718005
6481.381480834983,0.0048244999940148655
6481.382480606905,0.0047441828158611
6481.383480378829,0.00466346889581856
6481.384480150751,0.004582367550932895
6481.385479922674,0.004500888169093564
6481.386479694596,0.004419040209822474
6481.387479466519,0.004336833205042907
6481.3884792384415,0.0042542767598265155
6481.389479010365,0.004171380553116106
6481.390478782288,0.004088154338421862
6481.39147855421,0.004004607944488589
6481.392478326133,0.003920751275931501
6481.393478098055,0.0038365943138380385
6481.394477869979,0.003752147116333188
6481.395477641901,0.0036674198191057367
6481.396477413824,0.003582422635892923
6481.3974771857465,0.003497165858920915
6481.398476957669,0.0034116598592985716
6481.399476729593,0.00332591508736194
6481.400476501515,0.003239942072966977
6481.401476273438,0.0031537514257280034
6481.40247604536,0.0030673538351994197
6481.403475817283,0.0029807600709982635
6481.4044755892055,0.002893980982865196
6481.405475361129,0.0028070275006615592
6481.406475133052,0.0027199106343001613
6481.407474904974,0.00263264147360749
6481.408474676897,0.0025452311881150793
6481.409474448819,0.0024576910267777733
6481.410474220743,0.00237003231761662
6481.411473992665,0.002282266467284171
6481.412473764588,0.00219440496054997
6481.413473536511,0.002106459359704033
6481.414473308433,0.002018441303876134
6481.415473080357,0.0019303625082687384
6481.416472852279,0.0018422347633014144
6481.417472624202,0.0017540699336645897
6481.418472396124,0.00166587995728051
6481.419472168047,0.0015776768441692903
6481.4204719399695,0.0014894726752179809
6481.421471711893,0.0014012796008506141
6481.422471483816,0.0013131098395972513
6481.423471255738,0.0012249756765601344
6481.424471027661,0.0011368894617751304
6481.425470799583,0.0010488636084667734
6481.426470571507,0.0009609105911953272
6481.427470343429,0.000873042943894425
6481.428470115352,0.0007852732577979847
6481.4294698872745,0.0006976141792552354
6481.430469659197,0.0006100784074328327
6481.431469431121,0.000522678691903193
6481.432469203043,0.0004354278301183299
6481.433468974966,0.00034833866476863826
6481.434468746888,0.00026142408102623505
6481.435468518811,0.0001746970036726235
6481.436468290734,8.817039411058206e-05
6481.437468062657,1.8572472603024368e-06
6481.43846783458,-8.422941166009299e-05
6481.439467606502,-0.00017007653046942548
6481.440467378425,-0.000255671033473398
6481.441467150347,-0.00034099982502916253
6481.442466922271,-0.0004260497932239672
6481.443466694193,-0.0005108078136672103
6481.444466466116,-0.0005952607533950981
6481.445466238039,-0.000679395474886971
6481.446466009961,-0.0007631988401922217
6481.447465781885,-0.0008466577151665877
6481.448465553807,-0.0009297589738164478
6481.44946532573,-0.0010124895027495973
6481.450465097652,-0.0010948362057308216
6481.451464869575,-0.0011767860083404299
6481.4524646414975,-0.001258325862733757
6481.453464413421,-0.001339442752499471
6481.454464185344,-0.0014201236976143462
6481.455463957266,-0.0015003557594919735
6481.456463729189,-0.0015801260461227045
6481.457463501111,-0.0016594217173019849
6481.458463273035,-0.001738229989944109
6481.459463044957,-0.001816538143478314
6481.46046281688,-0.0018943335253240256
6481.4614625888025,-0.001971603556441945
6481.462462360725,-0.0020483357369575524
6481.463462132649,-0.002124517651853469
6481.464461904571,-0.002200136976726991
6481.465461676494,-0.0022751814836089656
6481.466461448416,-0.0023496390468400533
6481.467461220339,-0.002423497649000276
6481.468460992262,-0.0024967453868876364
6481.469460764185,-0.0025693704775414604
6481.470460536108,-0.002641361264306001
6481.47146030803,-0.0027127062229297424
6481.472460079953,-0.0027833939676957242
6481.473459851875,-0.0028534132575781268
6481.474459623799,-0.0029227530024202634
6481.475459395721,-0.0029914022691290352
6481.476459167644,-0.0030593502878808235
6481.477458939567,-0.003126586458333699
6481.478458711489,-0.0031931003558407322
6481.479458483413,-0.003258881737659091
6481.480458255335,-0.003323920549149471
6481.481458027258,-0.003388206929960272
6481.48245779918,-0.0034517312201908044
6481.483457571103,-0.0035144839665276627
6481.484457343026,-0.0035764559283482764
6481.485457114949,-0.003637638083785528
6481.486456886872,-0.0036980216357471872
6481.487456658794,-0.0037575980178837943
6481.488456430717,-0.003816358900498487
6481.489456202639,-0.0038742961963921666
6481.490455974563,-0.003931402066637287
6481.491455746485,-0.003987668926273481
6481.492455518408,-0.00404308944991814
6481.4934552903305,-0.00409765657728502
6481.494455062253,-0.00415136351860386
6481.495454834177,-0.004204203759933915
6481.496454606099,-0.00425617106836426
6481.497454378022,-0.00430725949709362
6481.498454149944,-0.004357463390382411
6481.499453921867,-0.004406777388369604
6481.50045369379,-0.004455196431746917
6481.501453465713,-0.004502715766282813
6481.502453237636,-0.0045493309471886486
6481.503453009558,-0.00459503784331927
6481.504452781481,-0.004639832641200276
6481.505452553403,-0.004683711848874072
6481.506452325327,-0.004726672299556786
6481.507452097249,-0.004768711155098077
6481.508451869172,-0.004809825909235803
6481.509451641095,-0.004850014390637527
6481.510451413017,-0.004889274765720814
6481.511451184941,-0.004927605541244319
6481.512450956863,-0.004965005566661702
6481.513450728786,-0.005001474036230431
6481.514450500708,-0.005037010490867649
6481.515450272631,-0.005071614819745328
6481.516450044554,-0.005105287261617104
6481.517449816477,-0.0051380284058693045
6481.5184495884,-0.00516983919328892
6481.519449360322,-0.005200720916541485
6481.520449132245,-0.005230675220352184
6481.521448904168,-0.00525970410138385
6481.522448676091,-0.005287809907805889
6481.523448448013,-0.005314995338548624
6481.524448219936,-0.005341263442237936
6481.5254479918585,-0.0053666176158055435
6481.526447763781,-0.005391061602770699
6481.527447535705,-0.005414599491189537
6481.528447307627,-0.005437235711268805
6481.52944707955,-0.005458975032641206
6481.530446851472,-0.005479822561300085
6481.531446623395,-0.005499783736191673
6481.532446395318,-0.005518864325463639
6481.533446167241,-0.005537070422369119
6481.534445939164,-0.005554408440825929
6481.535445711086,-0.005570885110631091
6481.536445483009,-0.005586507472331327
6481.537445254931,-0.005601282871750713
6481.538445026855,-0.005615218954177297
6481.539444798777,-0.005628323658211086
6481.5404445707,-0.005640605209276591
6481.541444342623,-0.005652072112803824
6481.542444114545,-0.005662733147082502
6481.543443886469,-0.0056725973557951274
6481.544443658391,-0.005681674040235483
6481.545443430314,-0.005689972751220105
6481.546443202236,-0.005697503280701271
6481.547442974159,-0.005704275653091088
6481.548442746082,-0.0057103001163074565
6481.549442518005,-0.005715587132553916
6481.550442289928,-0.005720147368846738
6481.55144206185,-0.005723991687304011
6481.552441833773,-0.005727131135212895
6481.553441605696,-0.005729576934892664
6481.554441377619,-0.005731340473372483
6481.555441149541,-0.005732433291904141
6481.556440921464,-0.005732867075331071
6481.5574406933865,-0.005732653641336013
6481.558440465309,-0.005731804929590433
6481.559440237233,-0.005730332990829566
6481.560440009155,-0.005728249975877336
6481.561439781078,-0.00572556812464568
6481.562439553,-0.005722299755132743
6481.563439324923,-0.005718457252444137
6481.564439096846,-0.005714053057860942
6481.565438868769,-0.005709099657977416
6481.566438640692,-0.005703609573930605
6481.567438412614,-0.005697595350743026
6481.568438184537,-0.005691069546798594
6481.56943795646,-0.005684044723470842
6481.570437728383,-0.0056765334349212675
6481.571437500305,-0.005668548218084443
6481.572437272228,-0.005660101582855286
6481.573437044151,-0.005651206002492651
6481.574436816073,-0.005641873904252151
6481.575436587997,-0.005632117660259862
6481.576436359919,-0.00562194957863727
6481.577436131842,-0.005611381894886467
6481.578435903764,-0.0056004267635433
6481.579435675687,-0.005589096250104835
6481.58043544761,-0.005577402323236187
6481.581435219533,-0.005565356847260534
6481.582434991456,-0.005552971574934939
6481.583434763378,-0.005540258140513521
6481.584434535301,-0.005527228053098503
6481.585434307224,-0.005513892690278808
6481.586434079147,-0.005500263292055016
6481.587433851069,-0.005486350955048795
6481.588433622992,-0.0054721666269942956
6481.5894333949145,-0.005457721101508351
6481.590433166837,-0.005443025013135929
6481.591432938761,-0.005428088832666794
6481.592432710683,-0.005412922862719001
6481.593432482606,-0.0053975372335845866
6481.594432254528,-0.005381941899332595
6481.595432026451,-0.005366146634164442
6481.596431798374,-0.0053501610290165305
6481.597431570297,-0.005333994488405017
6481.59843134222,-0.005317656227507614
6481.599431114142,-0.0053011552694773294
6481.600430886065,-0.005284500442983079
6481.601430657988,-0.005267700379972158
6481.602430429911,-0.0052507635136496145
6481.603430201833,-0.005233698076669615
6481.604429973756,-0.005216512099533958
6481.605429745679,-0.005199213409192923
6481.606429517602,-0.005181809627843724
6481.607429289525,-0.0051643081719218555
6481.608429061447,-0.005146716251280696
6481.60942883337,-0.0051290408685547954
6481.610428605292,-0.0051112888187023415
6481.611428377215,-0.00509346668872235
6481.612428149138,-0.005075580857542226
6481.613427921061,-0.005057637496071421
6481.614427692984,-0.005039642567416959
6481.615427464906,-0.005021601827256739
6481.616427236829,-0.005003520824366508
6481.617427008752,-0.00498540490129651
6481.618426780675,-0.0049672591951938575
6481.619426552597,-0.004949088638766725
6481.62042632452,-0.004930897961386537
6481.6214260964425,-0.004912691690324359
6481.622425868366,-0.004894474152117776
6481.623425640289,-0.004876249474064598
6481.624425412211,-0.0048580215858397375
6481.625425184134,-0.0048397942212316915
6481.626424956056,-0.004821570919995058
6481.627424727979,-0.00480335502981554
6481.628424499902,-0.004785149708383947
6481.629424271825,-0.004766957925575694
6481.630424043748,-0.004748782465732333
6481.63142381567,-0.0047306259300416474
6481.632423587593,-0.004712490739012833
6481.633423359516,-0.004694379135043287
6481.634423131439,-0.004676293185073503
6481.635422903361,-0.004658234783326592
6481.636422675284,-0.004640205654128907
6481.637422447207,-0.004622207354808262
6481.63842221913,-0.00460424127866622
6481.639421991053,-0.004586308658020936
6481.640421762975,-0.004568410567317053
6481.641421534898,-0.004550547926299118
6481.64242130682,-0.00453272150324508
6481.643421078743,-0.004514931918256344
6481.644420850666,-0.004497179646600967
6481.645420622589,-0.004479465022106542
6481.646420394512,-0.00446178824059938
6481.647420166434,-0.004444149363386608
6481.648419938357,-0.004426548320777848
6481.64941971028,-0.00440898491564324
6481.650419482203,-0.004391458827004633
6481.651419254125,-0.004373969613656891
6481.652419026048,-0.004356516717816406
6481.6534187979705,-0.0043390994687940235
6481.654418569894,-0.004321717086689738
6481.655418341817,-0.004304368686106651
6481.656418113739,-0.004287053279881838
6481.657417885662,-0.004269769782831866
6481.658417657584,-0.004252517015510792
6481.659417429508,-0.004235293707978561
6481.66041720143,-0.00421809850357776
6481.661416973353,-0.004200929962716724
6481.662416745276,-0.0041837865666570166
6481.663416517198,-0.004166666721303309
6481.664416289121,-0.004149568760993667
6481.665416061044,-0.0041324909522881936
6481.666415832967,-0.004115431497753916
6481.667415604889,-0.004098388539743725
6481.668415376812,-0.0040813601641671365
6481.669415148735,-0.004064344404250599
6481.670414920658,-0.004047339244285023
6481.671414692581,-0.004030342623358179
6481.672414464503,-0.004013352439069605
6481.673414236426,-0.0039963665512256314
6481.674414008348,-0.003979382785512119
6481.675413780271,-0.003962398937142518
6481.676413552194,-0.003945412774478849
6481.677413324117,-0.0039284220426232235
6481.67841309604,-0.003911424466977545
6481.679412867962,-0.003894417756769051
6481.680412639885,-0.003877399608539419
6481.681412411808,-0.0038603677095951677
6481.682412183731,-0.003843319741417133
6481.683411955653,-0.00382625338302684
6481.684411727576,-0.003809166314307644
6481.6854114994985,-0.0037920562192785756
6481.686411271422,-0.0037749207893188947
6481.687411043345,-0.003757757726341443
6481.688410815267,-0.0037405647459129486
6481.68941058719,-0.003723339580319509
6481.690410359112,-0.003706079981575546
6481.691410131036,-0.003688783724374584
6481.692409902958,-0.0036714486089802815
6481.693409674881,-0.003654072464056205
6481.694409446804,-0.0036366531494329024
6481.695409218726,-0.0036191885588108806
6481.696408990649,-0.003601676622398149
6481.697408762572,-0.0035841153094810234
6481.698408534495,-0.0035665026309269206
6481.699408306417,-0.003548836641617905
6481.70040807834,-0.003531115442813797
6481.701407850263,-0.0035133371844437143
6481.702407622186,-0.0034955000673249957
6481.703407394109,-0.0034776023453085224
6481.704407166031,-0.0034596423273495405
6481.705406937954,-0.003441618379503137
6481.706406709876,-0.003423528926843605
6481.7074064818,-0.0034053724553069964
6481.708406253722,-0.0033871475134562077
6481.709406025645,-0.0033688527141680228
6481.710405797568,-0.003350486736241573
6481.71140556949,-0.0033320483259277273
6481.712405341413,-0.003313536298378952
6481.713405113336,-0.0032949495390192066
6481.714404885259,-0.0032762870048334758
6481.715404657181,-0.0032575477255765485
6481.716404429104,-0.003238730804900686
6481.7174042010265,-0.0032198354214018603
6481.71840397295,-0.0032008608295842787
6481.719403744873,-0.003181806360742949
6481.720403516795,-0.0031626714237640726
6481.721403288718,-0.003143455505843093
6481.72240306064,-0.0031241581731202587
6481.723402832564,-0.0031047790712335913
6481.724402604486,-0.0030853179257891933
6481.725402376409,-0.0030657745427488704
6481.726402148332,-0.0030461488087350727
6481.727401920254,-0.0030264406912532153
6481.728401692177,-0.003006650238831479
6481.7294014641,-0.002986777581078242
6481.730401236023,-0.002966822928657337
6481.731401007945,-0.002946786573181366
6481.732400779868,-0.002926668887023378
6481.733400551791,-0.0029064703230472703
6481.734400323714,-0.0028861914142573556
6481.735400095637,-0.002865832773367603
6481.736399867559,-0.0028453950922911345
6481.737399639482,-0.0028248791415506195
6481.738399411404,-0.002804285769610267
6481.739399183328,-0.002783615902130152
6481.74039895525,-0.0027628705411436557
6481.741398727173,-0.0027420507641588454
6481.742398499096,-0.002721157723184614
6481.743398271018,-0.00270019264368246
6481.744398042942,-0.0026791568234447874
6481.745397814864,-0.002658051631400662
6481.746397586787,-0.0026368785063499716
6481.747397358709,-0.002615638955626974
6481.748397130632,-0.0025943345536942443
6481.7493969025545,-0.0025729669406680455
6481.750396674478,-0.0025515378207761627
6481.751396446401,-0.0025300489607492627
6481.752396218323,-0.0025085021881468567
6481.753395990246,-0.0024868993896189806
6481.754395762168,-0.002465242509104741
6481.755395534092,-0.00244353354596893
6481.756395306014,-0.0024217745530779925
6481.757395077937,-0.002399967634816697
6481.75839484986,-0.002378114945046948
6481.759394621782,-0.0023562186850102614
6481.760394393706,-0.0023342811011755208
6481.761394165628,-0.0023123044830337205
6481.762393937551,-0.00229029116084151
6481.763393709473,-0.002268243503315444
6481.764393481396,-0.002246163915278949
6481.765393253319,-0.0022240548352641023
6481.766393025242,-0.002201918733070423
6481.767392797165,-0.0021797581072829225
6481.768392569087,-0.002157575482751729
6481.76939234101,-0.002135373408035646
6481.770392112932,-0.002113154452812036
6481.771391884856,-0.002090921205255455
6481.772391656778,-0.002068676269387479
6481.773391428701,-0.002046422262400215
6481.774391200624,-0.002024161811955986
6481.775390972546,-0.0020018975534657267
6481.77639074447,-0.001979632127348627
6481.777390516392,-0.001957368176275602
6481.778390288315,-0.0019351083423991766
6481.779390060237,-0.0019128552645724167
6481.78038983216,-0.0018906115755595728
6481.7813896040825,-0.001868379899241152
6481.782389376006,-0.0018461628478161766
6481.783389147929,-0.0018239630190044532
6481.784388919851,-0.0018017829932517203
6481.785388691774,-0.001779625330940581
6481.786388463696,-0.0017574925696101603
6481.78738823562,-0.0017353872211874283
6481.788388007542,-0.0017133117692331686
6481.789387779465,-0.0016912686662055797
6481.790387551388,-0.0016692603307445334
6481.79138732331,-0.0016472891449795146
6481.792387095234,-0.001625357451864273
6481.793386867156,-0.0016034675525411998
6481.794386639079,-0.001581621703738407
6481.795386411001,-0.0015598221152024463
6481.796386182924,-0.001538070947169546
6481.797385954847,-0.0015163703078781995
6481.79838572677,-0.0014947222511258764
6481.799385498693,-0.0014731287738726073
6481.800385270615,-0.0014515918138941677
6481.801385042538,-0.001430113247487576
6481.80238481446,-0.0014086948872316242
6481.803384586384,-0.0013873384798051426
6481.804384358306,-0.0013660457038656565
6481.805384130229,-0.0013448181679910414
6481.806383902152,-0.001323657408686716
6481.807383674074,-0.001302564888460838
6481.808383445998,-0.001281541993969899
6481.80938321792,-0.0012605900342370384
6481.810382989843,-0.0012397102389453288
6481.811382761765,-0.001218903756808191
6481.812382533688,-0.0011981716540190104
6481.8133823056105,-0.0011775149127819303
6481.814382077534,-0.001156934429925695
6481.815381849457,-0.0011364310156023328
6481.816381621379,-0.0011160053920723615
6481.817381393302,-0.001095658192578116
6481.818381165224,-0.0010753899603067035
6481.819380937148,-0.0010552011474439975
6481.82038070907,-0.0010350921143209727
6481.821380480993,-0.0010150631286535653
6481.822380252916,-0.0009951143648771173
6481.823380024838,-0.0009752459035763226
6481.824379796762,-0.0009554577310114468
6481.825379568684,-0.000935749738741432
6481.826379340607,-0.0009161217233443375
6481.827379112529,-0.0008965733862354033
6481.828378884452,-0.0008771043335828426
6481.829378656375,-0.0008577140763213094
6481.830378428298,-0.0008384020302628105
6481.831378200221,-0.0008191675163046713
6481.832377972143,-0.0008000097607340022
6481.833377744066,-0.0007809278956279726
6481.834377515988,-0.0007619209593490566
6481.835377287912,-0.0007429878971342805
6481.836377059834,-0.0007241275617773603
6481.837376831757,-0.0007053387144024812
6481.83837660368,-0.0006866200253283144
6481.839376375602,-0.0006679700750207181
6481.840376147526,-0.0006493873551324113
6481.841375919448,-0.0006308702696277639
6481.842375691371,-0.0006124171359907067
6481.843375463293,-0.0005940261865136498
6481.844375235216,-0.0005756955696651964
6481.845375007139,-0.0005574233515343548
6481.846374779062,-0.0005392075173488657
6481.847374550985,-0.0005210459730651932
6481.848374322907,-0.0005029365470276669
6481.84937409483,-0.00048487699169420833
6481.850373866752,-0.00046686498542604615
6481.851373638676,-0.00044889813433880694
6481.852373410598,-0.00043097397421236743
6481.853373182521,-0.000413089972456853
6481.854372954444,-0.00039524353013216824
6481.855372726366,-0.0003774319840184522
6481.85637249829,-0.00035965260873487383
6481.857372270212,-0.0003419026189042228
6481.858372042135,-0.0003241791713608066
6481.859371814057,-0.00030647936739923144
6481.86037158598,-0.000288800255061713
6481.861371357903,-0.000271138831461623
6481.862371129826,-0.00025349204514102744
6481.863370901749,-0.00023585679846001463
6481.864370673671,-0.00021822995001565193
6481.865370445594,-0.00020060831708845083
6481.866370217516,-0.00018298867811426177
6481.86736998944,-0.00016536777517956114
6481.868369761362,-0.00014774231653812795
6481.869369533285,-0.00013010897914714168
6481.870369305208,-0.00011246441122075872
6481.87136907713,-9.480523479925062e-05
6481.872368849054,-7.712804833181502e-05
6481.873368620976,-5.942942927120223e-05
6481.874368392899,-4.170593667833353e-05
6481.875368164821,-2.3954113835118864e-05
6481.876367936744,-6.170490863713648e-06
6481.877367708667,1.1648412649510254e-05
6481.87836748059,2.9506085026958827e-05
6481.879367252513,4.7406019871401304e-05
6481.880367024435,6.535171343771568e-05
6481.881366796358,8.334666200631317e-05
6481.882366568281,0.00010139435925972372
6481.883366340204,0.00011949829366380153
6481.884366112126,0.00013766194585499564
6481.885365884049,0.0001558887860351208
6481.886365655972,0.0001741822713750539
6481.887365427894,0.00019254584342877397
6481.888365199818,0.00021098292555915858
6481.88936497174,0.0002294969203769495
6481.890364743663,0.0002480912071943005
6481.891364515585,0.000266769139494312
6481.892364287508,0.0002855340424179355
6481.893364059431,0.0003043892102695888
6481.894363831354,0.00032333790404277536
6481.895363603277,0.00034238334896694055
6481.896363375199,0.0003615287320767401
6481.897363147122,0.00038077719980483446
6481.898362919044,0.0004001318555992699
6481.899362690968,0.00041959575756645606
6481.90036246289,0.0004391719161407064
6481.901362234813,0.00045886329178126246
6481.902362006736,0.00047867279269768405
6481.903361778658,0.0004986032726044569
6481.904361550582,0.000518657528505646
6481.905361322504,0.0005388382985104092
6481.906361094427,0.0005591482596801808
6481.907360866349,0.0005795900259083244
6481.908360638272,0.000600166145833056
6481.909360410195,0.0006208791007844212
6481.910360182118,0.0006417313027661084
6481.911359954041,0.0006627250924728659
6481.912359725963,0.0006838627373442871
6481.913359497886,0.0007051464296557152
6481.914359269809,0.0007265782846470159
6481.915359041732,0.0007481603386899515
6481.916358813654,0.0007698945474948805
6481.917358585577,0.0007917827843574795
6481.9183583575,0.000813826838446157
6481.919358129422,0.0008360284131307806
6481.920357901346,0.0008583891243532855
6481.921357673268,0.0008809104990406848
6481.922357445191,0.0009035939735609597
6481.923357217113,0.000926440892222291
6481.924356989036,0.0009494525058160874
6481.925356760959,0.00097262997020427
6481.926356532882,0.0009959743449512815
6481.927356304805,0.0010194865920013002
6481.928356076727,0.0010431675744011588
6481.92935584865,0.0010670180550694886
6481.930355620573,0.0010910386956126464
6481.931355392496,0.001115230055188004
6481.932355164418,0.0011395925894152172
6481.933354936341,0.0011641266493361085
6481.934354708264,0.0011888324804238167
6481.935354480186,0.0012137102216418804
6481.93635425211,0.0012387599045539223
6481.937354024032,0.001263981452484609
6481.938353795955,0.0012893746797325628
6481.939353567877,0.0013149392908359068
6481.9403533398,0.0013406748798911255
6481.941353111723,0.0013665809299259202
6481.942352883646,0.0013926568123267319
6481.943352655569,0.0014189017863215916
6481.944352427491,0.0014453149985189455
6481.945352199414,0.0014718954825031006
6481.946351971337,0.0014986421584869394
6481.94735174326,0.0015255538330225574
6481.948351515182,0.0015526291987704903
6481.949351287105,0.001579866834328209
6481.950351059028,0.0016072652041185542
6481.95135083095,0.0016348226583387771
6481.952350602874,0.001662537432970814
6481.953350374796,0.0016904076498533715
6481.954350146719,0.0017184313168163384
6481.955349918641,0.001746606327877954
6481.956349690564,0.0017749304635050883
6481.957349462487,0.0018034013909369081
6481.95834923441,0.0018320166645721023
6481.959349006333,0.0018607737264197607
6481.960348778255,0.0018896699066138973
6481.961348550178,0.0019187024239915302
6481.962348322101,0.0019478683867341453
6481.963348094024,0.001977164793072291
6481.964347865946,0.002006588532052973
6481.965347637869,0.0020361363843694347
6481.966347409792,0.00206580502325285
6481.967347181715,0.002095591015425394
6481.968346953638,0.002125490822114119
6481.96934672556,0.0021555008001250256
6481.970346497483,0.0021856172029766897
6481.971346269405,0.0022158361820927798
6481.972346041328,0.0022461537880527705
6481.973345813251,0.00227656597190012
6481.974345585174,0.002307068586507136
6481.975345357097,0.0023376573879957153
6481.976345129019,0.00236832803721309
6481.977344900942,0.0023990761012616453
6481.978344672865,0.0024298970550818036
6481.979344444788,0.0024607862830868916
6481.98034421671,0.0024917390808488118
6481.981343988633,0.002522750656833269
6481.982343760556,0.0025538161341832
6481.983343532479,0.002584930552548989
6481.984343304402,0.002616088869963932
6481.985343076324,0.0026472859647633305
6481.986342848247,0.0026785166375454775
6481.987342620169,0.0027097756131727194
6481.988342392092,0.0027410575428106947
6481.989342164015,0.0027723570060037847
6481.990341935938,0.002803668512784792
6481.991341707861,0.002834986505816821
6481.992341479783,0.002866305362565351
6481.993341251706,0.002897619397498515
6481.994341023629,0.002928922864313621
6481.995340795552,0.0029602099581879857
6481.996340567474,0.002991474818052166
6481.997340339397,0.003022711528883701
6481.99834011132,0.003053914124019488
6481.999339883243,0.0030850765874849357
6482.000339655166,0.0031161928563380645
6482.001339427088,0.0031472568230267433
6482.002339199011,0.003178262337757266
6482.003338970933,0.0032092032108725086
6482.004338742856,0.0032400732152379295
6482.005338514779,0.0032708660886336858
6482.006338286702,0.003301575536151166
6482.007338058625,0.0033321952325922563
6482.008337830547,0.0033627188248697005
6482.00933760247,0.0033931399344069558
6482.010337374393,0.003423452159536003
6482.011337146316,0.003453649077891646
6482.012336918238,0.0034837242488009027
6482.013336690161,0.003513671215666172
6482.014336462084,0.003543483508340904
6482.015336234007,0.003573154645496565
6482.01633600593,0.003602678136979709
6482.017335777852,0.003632047486158033
6482.018335549775,0.003661256192254271
6482.019335321697,0.003690297752666855
6482.020335093621,0.0037191656652762403
6482.021334865543,0.0037478534307358426
6482.022334637466,0.003776354554746511
6482.023334409389,0.003804662550313484
6482.024334181311,0.0038327709399847837
6482.025333953234,0.0038606732580699905
6482.026333725157,0.0038883630528383497
6482.02733349708,0.003915833888695156
6482.028333269002,0.003943079348335341
6482.029333040925,0.003970093034873163
6482.030332812848,0.003996868573946913
6482.031332584771,0.004023399615797542
6482.032332356694,0.004049679837320122
6482.033332128616,0.004075702944087131
6482.034331900539,0.004101462672342568
6482.035331672461,0.004126952790965992
6482.036331444384,0.004152167103405614
6482.037331216307,0.004177099449579632
6482.03833098823,0.004201743707745076
6482.039330760153,0.004226093796333451
6482.040330532075,0.004250143675752537
6482.041330303998,0.0042738873501537425
6482.042330075921,0.0042973188691644605
6482.043329847844,0.004320432329584923
6482.044329619766,0.004343221877049095
6482.045329391689,0.004365681707649198
6482.046329163612,0.004387806069523473
6482.047328935535,0.004409589264406871
6482.048328707458,0.004431025649144338
6482.04932847938,0.004452109637166466
6482.050328251303,0.004472835699927235
6482.051328023225,0.004493198368303615
6482.052327795149,0.004513192233956816
6482.053327567071,0.004532811950654953
6482.054327338994,0.00455205223555695
6482.055327110917,0.0045709078704574725
6482.056326882839,0.004589373702992725
6482.057326654762,0.004607444647806969
6482.058326426685,0.004625115687679663
6482.059326198608,0.004642381874613103
6482.06032597053,0.004659238330880548
6482.061325742453,0.00467568025003478
6482.062325514376,0.004691702897877126
6482.063325286299,0.004707301613386956
6482.064325058222,0.004722471809611737
6482.065324830144,0.004737208974517708
6482.066324602067,0.004751508671801317
6482.067324373989,0.004765366541661507
6482.068324145913,0.004778778301533048
6482.069323917835,0.004791739746781025
6482.070323689758,0.0048042467513567015
6482.071323461681,0.004816295268414925
6482.072323233603,0.004827881330893299
6482.073323005526,0.004839001052053369
6482.074322777449,0.0048496506259841175
6482.075322549372,0.004859826328068075
6482.076322321294,0.0048695245154104115
6482.077322093217,0.004878741627231392
6482.07832186514,0.00488747418522258
6482.079321637063,0.004895718793867248
6482.080321408986,0.004903472140725413
6482.081321180908,0.004910730996683962
6482.082320952831,0.004917492216172336
6482.083320724753,0.004923752737344203
6482.084320496677,0.004929509582225621
6482.085320268599,0.0049347598568301575
6482.086320040522,0.004939500751241484
6482.087319812445,0.0049437295396640045
6482.088319584367,0.004947443580442089
6482.08931935629,0.004950640316048584
6482.090319128213,0.004953317273043305
6482.091318900136,0.004955472062002252
6482.092318672058,0.004957102377418374
6482.093318443981,0.004958205997574687
6482.094318215904,0.00495878078439061
6482.095317987827,0.004958824683242373
6482.09631775975,0.0049583357227583795
6482.097317531672,0.0049573120145904
6482.098317303595,0.004955751753161501
6482.099317075517,0.00495365321539164
6482.100316847441,0.004951014760401886
6482.101316619363,0.0049478348291982326
6482.102316391286,0.0049441119443360245
6482.103316163209,0.004939844709565999
6482.104315935131,0.00493503180946299
6482.105315707055,0.0049296720090383495
6482.106315478977,0.004923764153337183
6482.1073152509,0.004917307167021488
6482.108315022822,0.004910300053940346
6482.109314794745,0.004902741896688312
6482.110314566668,0.004894631856153182
6482.111314338591,0.004885969171054346
6482.112314110514,0.004876753157472913
6482.113313882436,0.004866983208374863
6482.114313654359,0.0048566587931284004
6482.115313426281,0.004845779457016745
6482.116313198205,0.00483434482074753
6482.117312970127,0.004822354579959991
6482.11831274205,0.0048098085047311185
6482.119312513973,0.004796706439081905
6482.120312285895,0.004783048300484844
6482.121312057819,0.004768834079373818
6482.122311829741,0.004754063838657477
6482.123311601664,0.00473873771323725
6482.124311373586,0.004722855909531079
6482.125311145509,0.004706418705003997
6482.126310917432,0.004689426447706677
6482.127310689355,0.0046718795558230415
6482.128310461278,0.004653778517228038
6482.1293102332,0.004635123889056647
6482.130310005123,0.004615916297285145
6482.131309777045,0.004596156436325599
6482.132309548969,0.004575845068634515
6482.133309320891,0.004554983024336499
6482.134309092814,0.004533571200863707
6482.1353088647365,0.004511610562611792
6482.136308636659,0.004489102140612972
6482.137308408583,0.00446604703222673
6482.138308180505,0.004442446400848608
6482.139307952428,0.004418301475637436
6482.14030772435,0.004393613551261307
6482.141307496273,0.004368383987662522
6482.142307268196,0.004342614209841772
6482.143307040119,0.004316305707661765
6482.144306812042,0.004289460035670573
6482.145306583964,0.004262078812944963
6482.146306355887,0.0042341637229539675
6482.147306127809,0.004205716513443014
6482.148305899733,0.004176738996338847
6482.149305671655,0.004147233047675477
6482.150305443578,0.004117200607541362
6482.1513052155005,0.004086643680047973
6482.152304987423,0.004055564333319834
6482.153304759347,0.004023964699506091
6482.154304531269,0.0039918469748135834
6482.155304303192,0.003959213419561366
6482.156304075114,0.003926066358256544
6482.157303847037,0.003892408179691237
6482.15830361896,0.0038582413370604122
6482.159303390883,0.0038235683481002434
6482.160303162806,0.0037883917952465968
6482.161302934728,0.0037527143258131767
6482.162302706651,0.003716538652188831
6482.163302478573,0.0036798675520534683
6482.164302250497,0.003642703868612045
6482.165302022419,0.0036050505108460576
6482.166301794342,0.003566910453781985
6482.1673015662645,0.0035282867387760883
6482.168301338187,0.00348918247381499
6482.169301110111,0.0034496008338314077
6482.170300882033,0.0034095450610344183
6482.171300653956,0.0033690184652535727
6482.172300425878,0.0033280244242961886
6482.173300197801,0.0032865663843171296
6482.174299969724,0.0032446478602003548
6482.175299741647,0.0032022724359515257
6482.17629951357,0.0031594437651009354
6482.177299285492,0.003116165571116032
6482.178299057415,0.0030724416478227954
6482.179298829337,0.0030282758598352355
6482.180298601261,0.002983672142992281
6482.181298373183,0.002938634504801329
6482.182298145106,0.002893167024887725
6482.1832979170285,0.0028472738554494153
6482.184297688951,0.0028009592217160214
6482.185297460875,0.002754227422411545
6482.186297232797,0.0027070828302199032
6482.18729700472,0.0026595298922524823
6482.188296776642,0.0026115731305168797
6482.189296548565,0.002563217142385971
6482.190296320488,0.0025144666010664227
6482.191296092411,0.0024653262560657106
6482.192295864334,0.0024158009336566933
6482.193295636256,0.002365895537338761
6482.194295408179,0.0023156150482945836
6482.195295180101,0.0022649645258414814
6482.196294952025,0.002213949107876456
6482.197294723947,0.0021625740113139177
6482.19829449587,0.0021108445325151637
6482.1992942677925,0.002058766047708636
6482.200294039715,0.00200634401340001
6482.201293811639,0.0019535839667711337
6482.202293583561,0.0019004915260668457
6482.203293355484,0.0018470723909686662
6482.204293127406,0.0017933323429543617
6482.205292899329,0.0017392772456423587
6482.206292671252,0.001684913045119971
6482.207292443175,0.0016302457702543844
6482.208292215098,0.001575281532985346
6482.20929198702,0.001520026528598523
6482.210291758943,0.0014644870359785383
6482.211291530865,0.001408669417840745
6482.212291302789,0.0013525801209408857
6482.213291074711,0.0012962256762618404
6482.214290846634,0.0012396126991767414
6482.2152906185565,0.0011827478895877672
6482.216290390479,0.0011256380320399469
6482.217290162403,0.0010682899958093252
6482.218289934325,0.001010710734964845
6482.219289706248,0.0009529072884033406
6482.22028947817,0.0008948867798570718
6482.221289250093,0.0008366564178732763
6482.222289022016,0.000778223495765269
6482.223288793939,0.0007195953915346637
6482.224288565862,0.0006607795677643315
6482.225288337784,0.0006017835714817382
6482.226288109707,0.0005426150339923315
6482.227287881629,0.0004832816706826616
6482.228287653553,0.0004237912807929317
6482.229287425475,0.00036415174715868914
6482.230287197398,0.0003043710359213686
6482.2312869693205,0.00024445719620739544
6482.232286741243,0.00018441835977554008
6482.233286513167,0.0001242627406321807
6482.234286285089,6.399863461408214e-05
6482.235286057012,3.634418938235792e-06
6482.236285828934,-5.682144828176552e-05
6482.237285600857,-0.00011736042855341273
6482.23828537278,-0.0001779739035576836
6482.239285144703,-0.0002386531757368812
6482.240284916626,-0.0002993894689186879
6482.241284688548,-0.00036017392897728137
6482.242284460471,-0.0004209976245324296
6482.243284232394,-0.00048185154768754114
6482.244284004317,-0.0005427266148076985
6482.245283776239,-0.0006036136673387391
6482.246283548162,-0.0006645034726684792
6482.2472833200845,-0.0007253867250312052
6482.248283092007,-0.0007862540464565866
6482.249282863931,-0.0008470959877642026
6482.250282635853,-0.0009079030296049203
6482.251282407776,-0.0009686655835504107
6482.252282179698,-0.0010293739932321368
6482.253281951621,-0.0010900185355311946
6482.254281723544,-0.001150589421820433
6482.255281495467,-0.0012110767992603141
6482.25628126739,-0.0012714707521500087
6482.257281039312,-0.0013317613033352322
6482.258280811235,-0.0013919384156743243
6482.259280583157,-0.0014519919935640463
6482.260280355081,-0.0015119118845265255
6482.261280127003,-0.001571687880858707
6482.262279898926,-0.0016313097213456174
6482.2632796708485,-0.0016907670930386555
6482.264279442771,-0.0017500496331000553
6482.265279214695,-0.0018091469307145818
6482.266278986617,-0.0018680485290694263
6482.26727875854,-0.0019267439274031882
6482.268278530462,-0.0019852225831247378
6482.269278302385,-0.002043473914002688
6482.270278074308,-0.0021014873004261384
6482.271277846231,-0.00215925208773731
6482.272277618154,-0.0022167575886366175
6482.273277390076,-0.0022739930856606892
6482.274277161999,-0.002330947833733798
6482.275276933922,-0.0023876110627931335
6482.276276705845,-0.0024439719804883174
6482.277276477767,-0.002500019774955526
6482.27827624969,-0.002555743617666539
6482.2792760216125,-0.0026111326663529636
6482.280275793535,-0.00266617606800583
6482.281275565459,-0.0027208629619506733
6482.282275337381,-0.0027751824829981664
6482.283275109304,-0.002829123764670308
6482.284274881226,-0.002882675942502108
6482.285274653149,-0.00293582815741864
6482.286274425072,-0.002988569559187255
6482.287274196995,-0.00304088930994464
6482.288273968918,-0.0030927765877983354
6482.28927374084,-0.0031442205905022197
6482.290273512763,-0.0031952105392053856
6482.291273284686,-0.003245735682273743
6482.292273056609,-0.0032957852991836113
6482.293272828531,-0.0033453487044864637
6482.294272600454,-0.00339441525184391
6482.2952723723765,-0.0034429743381319254
6482.296272144299,-0.003491015407613228
6482.297271916223,-0.0035385279561766427
6482.298271688145,-0.003585501535642174
6482.299271460068,-0.003631925758130411
6482.30027123199,-0.0036777903004947656
6482.301271003913,-0.0037230849088149003
6482.302270775836,-0.0037677994029495956
6482.303270547759,-0.003811923681147177
6482.304270319682,-0.0038554477247115166
6482.305270091604,-0.003898361602721535
6482.306269863527,-0.003940655476802035
6482.30726963545,-0.003982319605943647
6482.308269407373,-0.0040233443513696026
6482.309269179295,-0.00406372018144701
6482.310268951218,-0.004103437676640229
6482.3112687231405,-0.0041424875345039275
6482.312268495063,-0.004180860574713302
6482.313268266987,-0.004218547744128876
6482.314268038909,-0.004255540121893219
6482.315267810832,-0.004291828924556805
6482.316267582754,-0.0043274055112301904
6482.317267354677,-0.0043622613887595845
6482.3182671266,-0.0043963882169228575
6482.319266898523,-0.004429777813642937
6482.320266670446,-0.0044624221602155515
6482.321266442368,-0.004494313406548196
6482.322266214291,-0.004525443876407157
6482.323265986214,-0.004555806072669359
6482.324265758137,-0.004585392682575713
6482.325265530059,-0.0046141965829825625
6482.326265301982,-0.004642210845607766
6482.3272650739045,-0.00466942874226781
6482.328264845828,-0.004695843750102298
6482.329264617751,-0.004721449556782008
6482.330264389673,-0.004746240065696623
6482.331264161596,-0.004770209401118088
6482.332263933518,-0.004793351913335442
6482.333263705441,-0.004815662183756885
6482.334263477364,-0.004837135029974676
6482.335263249287,-0.004857765510788438
6482.33626302121,-0.0048775489311822465
6482.337262793132,-0.004896480847250841
6482.338262565055,-0.004914557071070133
6482.339262336978,-0.004931773675507115
6482.340262108901,-0.004948126998964119
6482.341261880823,-0.004963613650052306
6482.342261652746,-0.00497823051218911
6482.3432614246685,-0.004991974748114239
6482.344261196592,-0.005004843804318725
6482.345260968515,-0.00501683541538139
6482.346260740437,-0.005027947608206984
6482.34726051236,-0.005038178706160141
6482.348260284282,-0.005047527333089192
6482.349260056205,-0.005055992417233822
6482.350259828128,-0.005063573195010437
6482.351259600051,-0.005070269214669093
6482.352259371974,-0.005076080339815796
6482.353259143896,-0.005081006752793955
6482.354258915819,-0.005085048957918757
6482.355258687742,-0.005088207784558258
6482.356258459665,-0.0050904843900549
6482.357258231587,-0.0050918802624812555
6482.35825800351,-0.005092397223223687
6482.3592577754325,-0.005092037429387663
6482.360257547356,-0.0050908033760184435
6482.361257319279,-0.005088697898130835
6482.362257091201,-0.005085724172541761
6482.363256863124,-0.005081885719499383
6482.364256635046,-0.005077186404102558
6482.365256406969,-0.005071630437504413
6482.366256178892,-0.005065222377893893
6482.367255950815,-0.005057967131249133
6482.368255722738,-0.00504986995185659
6482.36925549466,-0.005040936442589891
6482.370255266583,-0.00503117255494244
6482.371255038506,-0.005020584588807887
6482.372254810429,-0.005009179192002642
6482.373254582351,-0.004996963359524707
6482.374254354274,-0.004983944432543235
6482.3752541261965,-0.004970130097113376
6482.37625389812,-0.004955528382611134
6482.377253670043,-0.004940147659883172
6482.378253441965,-0.00492399663910669
6482.379253213888,-0.0049070843673547524
6482.38025298581,-0.004889420225862694
6482.381252757734,-0.0048710139269915265
6482.382252529656,-0.004851875510884537
6482.383252301579,-0.004832015341813639
6482.384252073502,-0.004811444104212312
6482.385251845424,-0.004790172798392359
6482.386251617347,-0.004768212735942012
6482.38725138927,-0.004745575534803277
6482.388251161193,-0.0047222731140267645
6482.389250933115,-0.004698317688202665
6482.390250705038,-0.004673721761566937
6482.3912504769605,-0.00464849812178225
6482.392250248884,-0.004622659833393707
6482.393250020807,-0.004596220230959928
6482.394249792729,-0.0045691929118606344
6482.395249564652,-0.004541591728782387
6482.396249336574,-0.004513430781884746
6482.397249108497,-0.004484724410649689
6482.39824888042,-0.004455487185417746
6482.399248652343,-0.004425733898614982
6482.400248424266,-0.004395479555675707
6482.401248196188,-0.0043647393656665685
6482.402247968111,-0.00433352873161854
6482.403247740034,-0.004301863240574213
6482.404247511957,-0.004269758653358771
6482.405247283879,-0.004237230894083948
6482.406247055802,-0.004204296039395271
6482.4072468277245,-0.004170970307473851
6482.408246599648,-0.004137270046805026
6482.409246371571,-0.004103211724727209
6482.410246143493,-0.0040688119157754705
6482.411245915416,-0.00403408728983566
6482.412245687338,-0.003999054600126155
6482.413245459262,-0.003963730671025741
6482.414245231184,-0.0039281323857674995
6482.415245003107,-0.003892276674019862
6482.41624477503,-0.0038561804993772508
6482.417244546952,-0.0038198608467837126
6482.418244318875,-0.0037833347099138583
6482.419244090798,-0.0037466190785360644
6482.420243862721,-0.003709730925883345
6482.421243634643,-0.0036726871960575383
6482.422243406566,-0.0036355047914924327
6482.4232431784885,-0.0035982005605011895
6482.424242950412,-0.0035607912849329073
6482.425242722335,-0.003523293667962419
6482.426242494257,-0.0034857243220364894
6482.42724226618,-0.003448099756998505
6482.428242038102,-0.0034104363684125927
6482.429241810026,-0.003372750426106821
6482.430241581948,-0.0033350580629538705
6482.431241353871,-0.0032973752639061746
6482.432241125794,-0.003259717855301177
6482.433240897716,-0.0032221014944509786
6482.434240669639,-0.003184541659529276
6482.435240441562,-0.0031470536397671224
6482.436240213485,-0.0031096525259676415
6482.437239985407,-0.003072353201348444
6482.43823975733,-0.003035170332719125
6482.4392395292525,-0.0029981183619998413
6482.440239301176,-0.0029612114980856353
6482.441239073099,-0.002924463709059895
6482.442238845021,-0.002887888714759053
6482.443238616944,-0.0028514999796894576
6482.444238388866,-0.0028153107062962295
6482.44523816079,-0.0027793338285829515
6482.446237932712,-0.002743582006080119
6482.447237704635,-0.0027080676181594912
6482.448237476558,-0.0026728027586907705
6482.44923724848,-0.00263779923103642
6482.450237020403,-0.00260306854337985
6482.451236792326,-0.0025686219043817367
6482.452236564249,-0.0025344702191588604
6482.453236336171,-0.002500624085579508
6482.454236108094,-0.002467093790869257
6482.4552358800165,-0.002433889308520802
6482.45623565194,-0.002401020295501387
6482.457235423863,-0.002368496089751414
6482.458235195785,-0.0023363257079678105
6482.459234967708,-0.0023045178436658354
6482.46023473963,-0.0022730808655130733
6482.461234511554,-0.002242022815929494
6482.462234283476,-0.002211351409947562
6482.463234055399,-0.00218107403432649
6482.464233827322,-0.002151197746914811
6482.465233599244,-0.0021217292762555255
6482.466233371168,-0.002092675021428135
6482.46723314309,-0.0020640410521219235
6482.468232915013,-0.0020358331089348858
6482.469232686935,-0.0020080566038927195
6482.470232458858,-0.0019807166211823508
6482.4712322307805,-0.0019538179180944863
6482.472232002704,-0.0019273649261697375
6482.473231774627,-0.001901361752542894
6482.474231546549,-0.0018758121814799872
6482.475231318472,-0.001850719676102809
6482.476231090394,-0.0018260873802955781
6482.477230862318,-0.0018019181207884541
6482.47823063424,-0.0017782144094125913
6482.479230406163,-0.0017549784455214142
6482.480230178086,-0.0017322121185727973
6482.481229950008,-0.0017099170108668368
6482.482229721932,-0.0016880944004339332
6482.483229493854,-0.0016667452640679314
6482.484229265777,-0.0016458702804990975
6482.485229037699,-0.0016254698337017618
6482.486228809622,-0.0016055440163314698
6482.4872285815445,-0.0015860926332865338
6482.488228353468,-0.0015671152053888992
6482.489228125391,-0.0015486109731792821
6482.490227897313,-0.0015305789008215854
6482.491227669236,-0.0015130176801116577
6482.492227441158,-0.001495925734585519
6482.493227213082,-0.0014793012237222652
6482.494226985004,-0.0014631420472369396
6482.495226756927,-0.0014474458494587502
6482.49622652885,-0.0014322100237900907
6482.497226300772,-0.001417431717241879
6482.498226072696,-0.0014031078350408008
6482.499225844618,-0.0013892350453041191
6482.500225616541,-0.0013758097837777894
6482.501225388463,-0.001362828258633746
6482.502225160386,-0.0013502864553223456
6482.5032249323085,-0.00133818014147608
6482.504224704232,-0.0013265048718608065
6482.505224476155,-0.0013152559933708476
6482.506224248077,-0.0013044286500644208
6482.50722402,-0.0012940177882359541
6482.508223791922,-0.0012840181615219328
6482.509223563846,-0.0012744243360370059
6482.510223335768,-0.0012652306955371591
6482.511223107691,-0.0012564314466068285
6482.512222879614,-0.0012480206238668977
6482.513222651536,-0.0012399920952005908
6482.51422242346,-0.0012323395669943268
6482.515222195382,-0.0012250565893906532
6482.516221967305,-0.0012181365615504226
6482.517221739227,-0.0012115727369214051
6482.51822151115,-0.0012053582285105778
6482.519221283073,-0.0011994860141573565
6482.520221054996,-0.0011939489418050907
6482.521220826919,-0.001188739734768182
6482.522220598841,-0.0011838509969922413
6482.523220370764,-0.0011792752183047673
6482.524220142686,-0.001175004779653894
6482.52521991461,-0.0011710319583328362
6482.526219686532,-0.0011673489331877136
6482.527219458455,-0.0011639477898065104
6482.5282192303775,-0.0011608205256869732
6482.5292190023,-0.00115795905538131
6482.530218774224,-0.001155355215615589
6482.531218546146,-0.0011530007703818008
6482.532218318069,-0.0011508874160005953
6482.533218089991,-0.0011490067861527706
6482.534217861914,-0.0011473504568776688
6482.5352176338365,-0.0011459099515367004
6482.53621740576,-0.0011446767457403068
6482.537217177683,-0.0011436422722367371
6482.538216949605,-0.0011427979257610861
6482.539216721528,-0.0011421350678430975
6482.54021649345,-0.0011416450315722855
6482.541216265374,-0.0011413191263189657
6482.542216037296,-0.0011411486424098296
6482.543215809219,-0.001141124855756739
6482.5442155811415,-0.0011412390324374868
6482.545215353064,-0.0011414824332273456
6482.546215124988,-0.0011418463180803166
6482.54721489691,-0.0011423219505590798
6482.548214668833,-0.001142900602212732
6482.549214440755,-0.001143573556901474
6482.550214212678,-0.0011443321150674845
6482.551213984601,-0.0011451675979512704
6482.552213756524,-0.0011460713517528261
6482.553213528447,-0.001147034751736947
6482.554213300369,-0.001148049206282052
6482.555213072292,-0.0011491061608718668
6482.556212844214,-0.0011501971020293107
6482.557212616138,-0.0011513135611919247
6482.55821238806,-0.0011524471185281702
6482.559212159983,-0.0011535894066939255
6482.5602119319055,-0.0011547321145285111
6482.561211703828,-0.0011558669906895744
6482.562211475752,-0.0011569858472261685
6482.563211247674,-0.0011580805630893546
6482.564211019597,-0.001159143087579641
6482.565210791519,-0.001160165443730549
6482.566210563442,-0.001161139731627565
6482.567210335365,-0.0011620581316617066
6482.568210107288,-0.0011629129077168918
6482.569209879211,-0.0011636964102902723
6482.570209651133,-0.0011644010795446552
6482.571209423056,-0.0011650194482921037
6482.572209194978,-0.0011655441449077732
6482.573208966902,-0.0011659678961729867
6482.574208738824,-0.0011662835300465175
6482.575208510747,-0.0011664839783630068
6482.5762082826695,-0.0011665622794574284
6482.577208054592,-0.0011665115807144963
6482.578207826516,-0.0011663251410419136
6482.579207598438,-0.001165996333266376
6482.580207370361,-0.0011655186464512698
6482.581207142283,-0.0011648856881350505
6482.582206914206,-0.001164091186489342
6482.583206686129,-0.001163128992395869
6482.584206458052,-0.0011619930814414166
6482.585206229975,-0.0011606775558301021
6482.586206001897,-0.0011591766462123554
6482.58720577382,-0.0011574847134301137
6482.588205545742,-0.0011555962501778596
6482.589205317666,-0.0011535058825792566
6482.590205089588,-0.0011512083716792615
6482.591204861511,-0.0011486986148517182
6482.5922046334335,-0.001145971647122536
6482.593204405356,-0.0011430226424086279
6482.59420417728,-0.0011398469146728324
6482.595203949202,-0.0011364399189950707
6482.596203721125,-0.001132797252560017
6482.597203493047,-0.001128914655561589
6482.59820326497,-0.0011247880120246088
6482.599203036893,-0.0011204133505440315
6482.600202808816,-0.001115786844942194
6482.601202580739,-0.0011109048148446046
6482.602202352661,-0.0011057637261748638
6482.603202124584,-0.0011003601915693763
6482.604201896507,-0.001094690970712593
6482.60520166843,-0.001088752970593572
6482.606201440352,-0.0010825432456847033
6482.607201212275,-0.0010760589980434597
6482.6082009841975,-0.0010692975773380568
6482.60920075612,-0.0010622564807979146
6482.610200528044,-0.0010549333530898218
6482.611200299966,-0.0010473259861207226
6482.612200071889,-0.0010394323187680786
6482.613199843811,-0.0010312504365388028
6482.614199615734,-0.0010227785711578068
6482.615199387657,-0.0010140151000872521
6482.61619915958,-0.001004958545977641
6482.617198931503,-0.000995607576051926
6482.618198703425,-0.0009859610014238517
6482.619198475348,-0.0009760177763517609
6482.62019824727,-0.0009657769974291062
6482.621198019194,-0.0009552379027129018
6482.622197791116,-0.0009443998707913354
6482.623197563039,-0.0009332624197917437
6482.6241973349615,-0.0009218252063301357
6482.625197106884,-0.000910088024403426
6482.626196878808,-0.0008980508042255048
6482.62719665073,-0.0008857136110082222
6482.628196422653,-0.0008730766436883059
6482.629196194575,-0.0008601402336011728
6482.630195966498,-0.0008469048431025342
6482.631195738421,-0.0008333710641386483
6482.632195510344,-0.0008195396167660405
6482.633195282267,-0.0008054113476214955
6482.634195054189,-0.0007909872283431375
6482.635194826112,-0.00077626835394343
6482.636194598035,-0.0007612559411349725
6482.637194369958,-0.0007459513266100273
6482.63819414188,-0.0007303559652747765
6482.639193913803,-0.0007144714284394056
6482.6401936857255,-0.0006982994019652005
6482.641193457648,-0.0006818416843699377
6482.642193229572,-0.000665100184892939
6482.643193001494,-0.0006480769215212353
6482.644192773417,-0.0006307740189783541
6482.645192545339,-0.0006131937066773021
6482.646192317262,-0.0005953383166393503
6482.647192089185,-0.0005772102813802423
6482.648191861108,-0.0005588121317654464
6482.649191633031,-0.0005401464948360502
6482.650191404953,-0.0005212160916068755
6482.651191176876,-0.0005020237348383718
6482.652190948799,-0.00048257232678383926
6482.653190720722,-0.0004628648569135369
6482.654190492644,-0.0004429043996172402
6482.655190264567,-0.0004226941118868248
6482.6561900364895,-0.00040223723098045807
6482.657189808412,-0.0003815370720699872
6482.658189580336,-0.00036059702587311424
6482.659189352258,-0.00033942055627194626
6482.660189124181,-0.0003180111979195001
6482.661188896103,-0.00029637255383572906
6482.662188668026,-0.00027450829299461817
6482.663188439949,-0.00025242214790387993
6482.664188211872,-0.00023011791217876176
6482.665187983795,-0.00020759943811145813
6482.666187755717,-0.00018487063423759792
6482.66718752764,-0.00016193546290125808
6482.668187299563,-0.00013879793781993737
6482.669187071486,-0.0001154621216509121
6482.670186843408,-9.193212356038743e-05
6482.671186615331,-6.821209679685302e-05
6482.6721863872535,-4.430623627004726e-05
6482.673186159176,-2.021877613692685e-05
6482.6741859311,4.046012603971759e-06
6482.675185703022,2.848382450840192e-05
6482.676185474945,5.309032207113306e-05
6482.677185246867,7.786113809815267e-05
6482.67818501879,0.00010279187806494923
6482.679184790713,0.0001278781224594654
6482.680184562636,0.0001531154291082965
6482.681184334559,0.00017849933548469838
6482.682184106481,0.00020402536099696112
6482.683183878404,0.00022968900925570562
6482.684183650327,0.00025548577031867106
6482.68518342225,0.0002814111229115954
6482.686183194172,0.00030746053662384694
6482.687182966095,0.00033362947407754166
6482.6881827380175,0.00035991339306897137
6482.689182509941,0.00038630774868126256
6482.690182281864,0.00041280799536728486
6482.691182053786,0.0004394095890019272
6482.692181825709,0.0004661079889029561
6482.693181597631,0.0004928986598197592
6482.694181369554,0.0005197770738893442
6482.695181141477,0.0005467387125590135
6482.6961809134,0.000573779068475164
6482.697180685323,0.0006008936473376782
6482.698180457245,0.0006280779697193813
6482.699180229168,0.0006553275728500452
6482.700180001091,0.0006826380123644283
6482.701179773014,0.0007100048640138526
6482.702179544936,0.0007374237253408419
6482.703179316859,0.0007648902173163787
6482.7041790887815,0.0007923999859393769
6482.705178860705,0.0008199487037980195
6482.706178632628,0.0008475320715926665
6482.70717840455,0.0008751458196200977
6482.708178176473,0.0009027857092189228
6482.709177948395,0.0009304475341760528
6482.710177720318,0.0009581271220941972
6482.711177492241,0.0009858203357204088
6482.712177264164,0.0010135230742357646
6482.713177036087,0.001041231274506328
6482.714176808009,0.0010689409122955945
6482.715176579932,0.0010966480034386814
6482.716176351855,0.0011243486049785647
6482.717176123778,0.0011520388162647168
6482.7181758957,0.001179714780014515
6482.719175667623,0.0012073726833378062
6482.7201754395455,0.001235008758725008
6482.721175211469,0.0012626192849991007
6482.722174983392,0.001290200588231834
6482.723174755314,0.001317749042624436
6482.724174527237,0.0013452610713530623
6482.725174299159,0.0013727331473791752
6482.726174071082,0.0014001617942250182
6482.727173843005,0.0014275435867143096
6482.728173614928,0.00145487515167826
6482.729173386851,0.0014821531686270075
6482.730173158773,0.001509374370386534
6482.731172930696,0.001536535543701133
6482.732172702619,0.0015636335298014855
6482.733172474542,0.001590665224938385
6482.734172246464,0.0016176275808821717
6482.735172018387,0.001644517605387919
6482.7361717903095,0.0016713323626264282
6482.737171562233,0.001698068973581091
6482.738171334156,0.001724724616410691
6482.739171106078,0.001751296526778241
6482.740170878001,0.001777781998145966
6482.741170649923,0.0018041783820365392
6482.742170421847,0.0018304830882606797
6482.743170193769,0.0018566935851111897
6482.744169965692,0.001882807399523486
6482.745169737615,0.0019088221172026592
6482.746169509537,0.0019347353827170576
6482.74716928146,0.0019605448995583833
6482.748169053383,0.0019862484301682694
6482.749168825306,0.0020118437959313054
6482.750168597228,0.0020373288771344937
6482.751168369151,0.00206270161289314
6482.7521681410735,0.0020879600010432244
6482.753167912997,0.002113102098000352
6482.75416768492,0.002138126018585418
6482.755167456842,0.0021630299358171845
6482.756167228765,0.0021878120806720107
6482.757167000687,0.002212470741811013
6482.75816677261,0.0022370042652749577
6482.759166544533,0.002261411054147212
6482.760166316456,0.0022856895681851006
6482.761166088379,0.0023098383234200276
6482.762165860301,0.00233385589172673
6482.763165632224,0.0023577409003620415
6482.764165404147,0.002381492031473553
6482.76516517607,0.002405108021578554
6482.766164947992,0.0024285876610136534
6482.767164719915,0.0024519297933554914
6482.7681644918375,0.0024751333148129552
6482.769164263761,0.0024981971735913355
6482.770164035684,0.0025211203692288606
6482.771163807606,0.002543901951906059
6482.772163579529,0.0025665410217283915
6482.773163351451,0.002589036727982605
6482.774163123375,0.002611388268367258
6482.775162895297,0.002633594888197861
6482.77616266722,0.0026556558795870905
6482.777162439143,0.0026775705806005388
6482.778162211065,0.0026993383743884893
6482.779161982988,0.002720958688294229
6482.780161754911,0.0027424309929394383
6482.781161526834,0.002763754801287245
6482.782161298756,0.0027849296676835545
6482.783161070679,0.0028059551868773107
6482.7841608426015,0.002826830993020375
6482.785160614525,0.0028475567586477434
6482.786160386448,0.002868132193638877
6482.78716015837,0.002888557044160948
6482.788159930293,0.002908831091594873
6482.789159702215,0.002928954151445057
6482.790159474139,0.0029489260722338345
6482.791159246061,0.002968746734381635
6482.792159017984,0.0029884160490739587
6482.793158789907,0.0030079339571162777
6482.794158561829,0.003027300427778008
6482.795158333752,0.0030465154576267326
6482.796158105675,0.0030655790693538375
6482.797157877598,0.0030844913105927303
6482.79815764952,0.0031032522527307807
6482.799157421443,0.0031218619897160965
6482.8001571933655,0.003140320636860228
6482.801156965289,0.0031586283296378683
6482.802156737212,0.0031767852224846
6482.803156509134,0.003194791487593759
6482.804156281057,0.0032126473137134987
6482.805156052979,0.0032303529049451584
6482.806155824903,0.0032479084795440996
6482.807155596825,0.0032653142687241693
6482.808155368748,0.0032825705154669953
6482.809155140671,0.0032996774733373094
6482.810154912593,0.003316635405305502
6482.811154684516,0.0033334445825786057
6482.812154456439,0.0033501052834409035
6482.813154228362,0.003366617792105341
6482.814154000284,0.0033829823975769194
6482.815153772207,0.003399199392529233
6482.8161535441295,0.00341526907219529
6482.817153316053,0.003431191733273741
6482.818153087976,0.0034469676728516065
6482.819152859898,0.0034625971873445635
6482.820152631821,0.003478080571455806
6482.821152403743,0.003493418117154435
6482.822152175667,0.0035086101126742997
6482.823151947589,0.003523656841534138
6482.824151719512,0.0035385585815798093
6482.825151491435,0.0035533156040493783
6482.826151263357,0.0035679281726617444
6482.827151035281,0.003582396542729484
6482.828150807203,0.003596720960296512
6482.829150579126,0.0036109016613011533
6482.830150351048,0.0036249388707651794
6482.831150122971,0.0036388328020093273
6482.8321498948935,0.0036525836558958086
6482.833149666817,0.0036661916200982888
6482.83414943874,0.003679656868399776
6482.835149210662,0.003692979560018815
6482.836148982585,0.0037061598389643304
6482.837148754507,0.0037191978334193978
6482.838148526431,0.0037320936551541715
6482.839148298353,0.0037448473989681354
6482.840148070276,0.0037574591421617844
6482.841147842199,0.0037699289440377686
6482.842147614121,0.0037822568454314587
6482.843147386045,0.003794442868270816
6482.844147157967,0.0038064870151653762
6482.84514692989,0.003818389269024103
6482.846146701812,0.0038301495927017927
6482.847146473735,0.00384176792867368
6482.8481462456575,0.003853244198737844
6482.849146017581,0.0038645783037449893
6482.850145789504,0.003875770123355153
6482.851145561426,0.0038868195158208844
6482.852145333349,0.0038977263177964465
6482.853145105271,0.003908490344172603
6482.854144877195,0.003919111387936541
6482.855144649117,0.003929589220056499
6482.85614442104,0.003939923589390686
6482.857144192963,0.00395011422262004
6482.858143964885,0.0039601608242043704
6482.859143736809,0.003970063076361428
6482.860143508731,0.003979820639068366
6482.861143280654,0.00398943315008505
6482.862143052576,0.003998900224998586
6482.863142824499,0.004008221457288383
6482.8641425964215,0.0040173964184109885
6482.865142368345,0.004026424657903865
6482.866142140268,0.004035305703507151
6482.86714191219,0.004044039061302393
6482.868141684113,0.004052624215867092
6482.869141456035,0.0040610606304438855
6482.870141227959,0.0040693477471230935
6482.871140999881,0.004077484987037383
6482.872140771804,0.004085471750567305
6482.873140543727,0.004093307417556501
6482.874140315649,0.0041009913475354084
6482.875140087573,0.0041085228799523235
6482.876139859495,0.004115901334410742
6482.877139631418,0.004123126010911927
6482.87813940334,0.00413019619010172
6482.879139175263,0.004137111133520675
6482.880138947186,0.004143870083856679
6482.881138719109,0.004150472265199305
6482.882138491032,0.004156916883295239
6482.883138262954,0.004163203125804202
6482.884138034877,0.004169330162554833
6482.885137806799,0.004175297145800117
6482.886137578723,0.004181103210471937
6482.887137350645,0.004186747474434399
6482.888137122568,0.004192229038735608
6482.889136894491,0.004197546987857577
6482.890136666413,0.004202700389963972
6482.891136438337,0.004207688297145391
6482.892136210259,0.004212509745661853
6482.893135982182,0.004217163756182225
6482.894135754104,0.004221649334020314
6482.895135526027,0.004225965469367412
6482.8961352979495,0.004230111137521099
6482.897135069873,0.0042340852991101866
6482.898134841796,0.0042378869003157175
6482.899134613718,0.004241514873087953
6482.900134385641,0.0042449681353593175
6482.901134157563,0.0042482455912533175
6482.902133929487,0.004251346131289435
6482.903133701409,0.004254268632584056
6482.904133473332,0.004257011959047494
6482.905133245255,0.0042595749615771845
6482.906133017177,0.004261956478247145
6482.907132789101,0.004264155334493807
6482.908132561023,0.004266170343298339
6482.909132332946,0.004268000305365599
6482.910132104868,0.0042696440092998755
6482.911131876791,0.004271100231777621
6482.912131648714,0.0042723677377174115
6482.913131420637,0.004273445280447427
6482.91413119256,0.004274331601870831
6482.915130964482,0.00427502543262947
6482.916130736405,0.004275525492266416
6482.917130508327,0.004275830489387927
6482.918130280251,0.004275939121825486
6482.919130052173,0.004275850076798645
6482.920129824096,0.004275562031079483
6482.921129596019,0.0042750736511594865
6482.922129367941,0.004274383593419739
6482.923129139865,0.004273490504305265
6482.924128911787,0.0042723930205043805
6482.92512868371,0.004271089769133914
6482.926128455632,0.004269579367931115
6482.927128227555,0.00426786042545307
6482.928127999478,0.004265931541284413
6482.929127771401,0.004263791306254089
6482.930127543324,0.004261438302661905
6482.931127315246,0.0042588711045155195
6482.932127087169,0.004256088277778496
6482.933126859091,0.004253088380629954
6482.934126631015,0.004249869963736306
6482.935126402937,0.004246431570535503
6482.93612617486,0.004242771737534158
6482.937125946783,0.004238888994617853
6482.938125718705,0.004234781865374873
6482.939125490629,0.0042304488674335654
6482.940125262551,0.004225888512813417
6482.941125034474,0.004221099308289907
6482.942124806396,0.004216079755773073
6482.943124578319,0.004210828352699644
6482.944124350242,0.004205343592438524
6482.945124122165,0.004199623964709333
6482.946123894088,0.004193667956013642
6482.94712366601,0.004187474050078516
6482.948123437933,0.004181040728311916
6482.949123209855,0.004174366470269529
6482.950122981779,0.004167449754132567
6482.951122753701,0.004160289057196094
6482.952122525624,0.0041528828563674545
6482.9531222975465,0.004145229628674403
6482.954122069469,0.0041373278517825565
6482.955121841393,0.00412917600452181
6482.956121613315,0.004120772567421405
6482.957121385238,0.004112116023253341
6482.95812115716,0.004103204857583833
6482.959120929083,0.0040940375593325464
6482.960120701006,0.00408461262133932
6482.961120472929,0.0040749285409381174
6482.962120244852,0.004064983820537943
6482.963120016774,0.004054776968210444
6482.964119788697,0.00404430649828398
6482.96511956062,0.0040335709319439415
6482.966119332543,0.004022568797839159
6482.967119104465,0.004011298632694314
6482.968118876388,0.003999758981928293
6482.969118648311,0.003987948400278519
6482.970118420233,0.003975865452431357
6482.971118192157,0.003963508713658686
6482.972117964079,0.003950876770460816
6482.973117736002,0.003937968221215899
6482.974117507924,0.003924781676836062
6482.975117279847,0.003911315761430454
6482.97611705177,0.0038975691129754723
6482.977116823693,0.003883540383992408
6482.978116595616,0.0038692282422327882
6482.979116367538,0.003854631371371702
6482.980116139461,0.0038397484717094003
6482.981115911383,0.003824578260881424
6482.982115683307,0.0038091194745775055
6482.983115455229,0.0037933708672694324
6482.984115227152,0.0037773312129480148
6482.9851149990745,0.003760999305869235
6482.986114770997,0.003744373961309586
6482.987114542921,0.00372745401633053
6482.988114314843,0.0037102383305519385
6482.989114086766,0.0036927257869342656
6482.990113858688,0.003674915292569152
6482.991113630611,0.003656805779478077
6482.992113402534,0.003638396205418627
6482.993113174457,0.003619685554697915
6482.99411294638,0.0036006728389926857
6482.995112718302,0.0035813570981756697
6482.996112490225,0.0035617374011478013
6482.997112262148,0.0035418128466760002
6482.998112034071,0.003521582564236275
6482.999111805993,0.0035010457148619586
6483.000111577916,0.0034802014919969207
6483.001111349839,0.003459049122353621
6483.002111121761,0.0034375878667758687
6483.003110893685,0.0034158170211061587
6483.004110665607,0.003393735917057423
6483.00511043753,0.003371343923089024
6483.006110209452,0.0033486404452867657
6483.007109981375,0.003325624928246688
6483.008109753298,0.003302296855962371
6483.009109525221,0.0032786557527154977
6483.010109297144,0.003254701183969417
6483.011109069066,0.0032304327572654995
6483.012108840989,0.0032058501231221
6483.013108612912,0.00318095297593598
6483.014108384835,0.0031557410548860433
6483.015108156757,0.0031302141448392505
6483.01610792868,0.0031043720772585843
6483.0171077006025,0.0030782147311129017
6483.018107472525,0.0030517420337884994
6483.019107244449,0.003024953962002156
6483.020107016371,0.002997850542715368
6483.021106788294,0.0029704318540494227
6483.022106560216,0.002942698026200869
6483.023106332139,0.0029146492423568595
6483.024106104062,0.002886285739609751
6483.025105875985,0.0028576078098702423
6483.026105647908,0.002828615800778244
6483.02710541983,0.0027993101166105885
6483.028105191753,0.0027696912191846074
6483.029104963676,0.0027397596287565425
6483.030104735599,0.0027095159249137177
6483.031104507521,0.002678960747459366
6483.032104279444,0.002648094797288994
6483.033104051367,0.0026169188372571744
6483.034103823289,0.0025854336930336685
6483.035103595213,0.002553640253947839
6483.036103367135,0.002521539473820337
6483.037103139058,0.0024891323717811005
6483.03810291098,0.0024564200330727745
6483.039102682903,0.002423403609838705
6483.040102454826,0.0023900843218947307
6483.041102226749,0.0023564634574840464
6483.042101998672,0.002322542374014447
6483.043101770594,0.002288322498777294
6483.044101542517,0.002253805329647544
6483.04510131444,0.0022189924357641755
6483.046101086363,0.0021838854581903377
6483.047100858285,0.0021484861105525287
6483.048100630208,0.002112796179658139
6483.0491004021305,0.0020768175260907195
6483.050100174054,0.0020405520847823935
6483.051099945977,0.0020040018655628996
6483.052099717899,0.001967168953684805
6483.053099489822,0.0019300555103245174
6483.054099261744,0.0018926637730587712
6483.055099033667,0.001854996056316341
6483.05609880559,0.0018170547518047814
6483.057098577513,0.0017788423289120754
6483.058098349436,0.0017403613350831354
6483.059098121358,0.0017016143961711785
6483.060097893281,0.0016626042167640714
6483.061097665204,0.001623333580485804
6483.062097437127,0.0015838053502733125
6483.063097209049,0.0015440224686289195
6483.064096980972,0.0015039879578486964
6483.065096752895,0.0014637049202270926
6483.066096524818,0.0014231765382382083
6483.067096296741,0.0013824060746941323
6483.068096068663,0.001341396872880802
6483.069095840586,0.0013001523566718912
6483.070095612508,0.001258676030621265
6483.071095384431,0.0012169714800345796
6483.072095156354,0.0011750423710206112
6483.073094928277,0.0011328924505229166
6483.0740947002,0.0010905255463324029
6483.075094472122,0.0010479455670813645
6483.076094244045,0.0010051565022195135
6483.077094015968,0.0009621624219724941
6483.078093787891,0.0009189674772833406
6483.079093559813,0.0008755758997373027
6483.080093331736,0.0008319920014704226
6483.0810931036585,0.00078822017506221
6483.082092875582,0.000744264893412722
6483.083092647505,0.0007001307096042988
6483.084092419427,0.0006558222567481694
6483.08509219135,0.0006113442478160811
6483.086091963272,0.0005667014754570538
6483.087091735195,0.0005218988117993041
6483.088091507118,0.0004769412082373224
6483.089091279041,0.000431833695204024
6483.090091050964,0.00038658138192783966
6483.091090822886,0.0003411894561745534
6483.092090594809,0.0002956631839736415
6483.093090366732,0.0002500079093288059
6483.094090138655,0.00020422905391234133
6483.095089910577,0.0001583321167429159
6483.0960896825,0.00011232267384629705
6483.097089454423,6.620637789851669e-05
6483.098089226346,1.9988957850941215e-05
6483.099088998269,-2.6323781463304872e-05
6483.100088770191,-7.27259597421236e-05
6483.101088542114,-0.00011921162164700969
6483.102088314036,-0.00016577473725598983
6483.10308808596,-0.0002124092025375601
6483.104087857882,-0.0002591088398462984
6483.105087629805,-0.0003058673984409002
6483.106087401728,-0.00035267855502546774
6483.10708717365,-0.0003995359143149698
6483.108086945573,-0.00044643300962587447
6483.109086717496,-0.0004933633034930411
6483.110086489419,-0.0005403201883140427
6483.111086261341,-0.0005872969870221828
6483.112086033264,-0.0006342869537895548
6483.1130858051865,-0.0006812832747615727
6483.11408557711,-0.0007282790688244681
6483.115085349033,-0.000775267388407303
6483.116085120955,-0.000822241220320098
6483.117084892878,-0.0008691934866297222
6483.1180846648,-0.0009161170455752244
6483.119084436723,-0.0009630046925243039
6483.120084208646,-0.0010098491609726267
6483.121083980569,-0.0010566431235876964
6483.122083752492,-0.0011033791932989934
6483.123083524414,-0.0011500499244361138
6483.124083296337,-0.001196647813916673
6483.12508306826,-0.0012431653024857741
6483.126082840183,-0.0012895947760088785
6483.127082612105,-0.0013359285668199262
6483.128082384028,-0.0013821589551265656
6483.129082155951,-0.0014282781704743302
6483.130081927874,-0.0014742783932715743
6483.131081699797,-0.0015201517563769504
6483.132081471719,-0.0015658903467511537
6483.133081243642,-0.0016114862071745875
6483.134081015564,-0.0016569313380324928
6483.135080787488,-0.0017022176991689738
6483.13608055941,-0.001747337211811211
6483.137080331333,-0.0017922817605650239
6483.138080103256,-0.0018370431954828203
6483.139079875178,-0.0018816133342048548
6483.140079647101,-0.0019259839641746176
6483.141079419024,-0.0019701468449290706
6483.142079190947,-0.0020140937104643638
6483.143078962869,-0.0020578162716775703
6483.144078734792,-0.002101306218884907
6483.1450785067145,-0.0021445552244168174
6483.146078278638,-0.002187554945290212
6483.147078050561,-0.002230297025958091
6483.148077822483,-0.0022727731011366777
6483.149077594406,-0.0023149747987101076
6483.150077366328,-0.0023568937427126185
6483.151077138252,-0.0023985215563880795
6483.152076910174,-0.002439849865326599
6483.153076682097,-0.002480870300677851
6483.15407645402,-0.0025215745024406593
6483.155076225942,-0.0025619541228282874
6483.156075997865,-0.0026020008297087975
6483.157075769788,-0.00264170631011975
6483.158075541711,-0.002681062273856417
6483.159075313633,-0.0027200604571325855
6483.160075085556,-0.002758692626312935
6483.161074857479,-0.002796950581715886
6483.162074629402,-0.002834826161485727
6483.163074401325,-0.002872311245532762
6483.164074173247,-0.002909397759540107
6483.16507394517,-0.0029460776790356897
6483.166073717092,-0.0029823430335278868
6483.167073489016,-0.0030181859107031327
6483.168073260938,-0.003053598460683755
6483.169073032861,-0.0030885729003441702
6483.170072804784,-0.0031231015176835025
6483.171072576706,-0.003157176676252577
6483.172072348629,-0.003190790819633162
6483.173072120552,-0.0032239364759672094
6483.174071892475,-0.003256606262533749
6483.175071664397,-0.00328879289037096
6483.17607143632,-0.0033204891689408425
6483.1770712082425,-0.0033516880108337838
6483.178070980166,-0.0033823824365101893
6483.179070752089,-0.0034125655790762143
6483.180070524011,-0.0034422306890904675
6483.181070295934,-0.0034713711393983965
6483.182070067856,-0.0034999804299909038
6483.18306983978,-0.003528052192883578
6483.184069611702,-0.003555580197012803
6483.185069383625,-0.00358255835314487
6483.186069155548,-0.0036089807187941404
6483.18706892747,-0.0036348415031462094
6483.188068699394,-0.003660135071981984
6483.189068471316,-0.0036848559525985017
6483.190068243239,-0.0037089988387222755
6483.191068015161,-0.0037325585954108933
6483.192067787084,-0.0037555302639385533
6483.193067559007,-0.003777909066661182
6483.19406733093,-0.003799690411856736
6483.195067102853,-0.003820869898536265
6483.196066874775,-0.003841443321221281
6483.197066646698,-0.0038614066746829327
6483.19806641862,-0.003880756158638453
6483.199066190544,-0.0038994881824002737
6483.200065962466,-0.0039175993694731525
6483.201065734389,-0.003935086562094561
6483.202065506312,-0.003951946825713532
6483.203065278234,-0.003968177453403064
6483.204065050158,-0.0039837759702011115
6483.20506482208,-0.003998740137375107
6483.206064594003,-0.004013067956604887
6483.207064365925,-0.004026757674078834
6483.208064137848,-0.004039807784497949
6483.2090639097705,-0.004052217034982522
6483.210063681694,-0.004063984428875995
6483.211063453617,-0.004075109229440519
6483.212063225539,-0.0040855909634387125
6483.213062997462,-0.004095429424596019
6483.214062769384,-0.004104624676938073
6483.215062541308,-0.00411317705799743
6483.21606231323,-0.004121087181884001
6483.217062085153,-0.004128355942213463
6483.218061857076,-0.004134984514887888
6483.219061628998,-0.004140974360722752
6483.220061400922,-0.004146327227914415
6483.221061172844,-0.004151045154342073
6483.222060944767,-0.004155130469698139
6483.223060716689,-0.004158585797440893
6483.224060488612,-0.0041614140565632
6483.225060260535,-0.004163618463171008
6483.226060032458,-0.004165202531865294
6483.227059804381,-0.004166170076921041
6483.228059576303,-0.004166525213256771
6483.229059348226,-0.0041662723571881015
6483.230059120148,-0.0041654162269587625
6483.231058892072,-0.004163961843042438
6483.232058663994,-0.004161914528208811
6483.233058435917,-0.0041592799073471715
6483.23405820784,-0.0041560639070409655
6483.235057979762,-0.004152272754886753
6483.236057751686,-0.00414791297855112
6483.237057523608,-0.00414299140455925
6483.238057295531,-0.004137515156809054
6483.239057067453,-0.004131491654804966
6483.240056839376,-0.004124928611605824
6483.241056611299,-0.0041178340314815655
6483.242056383222,-0.004110216207273823
6483.243056155145,-0.004102083717455923
6483.244055927067,-0.004093445422888191
6483.24505569899,-0.00408431046326489
6483.246055470912,-0.004074688253249581
6483.247055242836,-0.0040645884782961285
6483.248055014758,-0.004054021090153037
6483.249054786681,-0.0040429963020492945
6483.250054558604,-0.004031524583560397
6483.251054330526,-0.00401961665515373
6483.25205410245,-0.004007283482413068
6483.253053874372,-0.003994536269942454
6483.254053646295,-0.003981386454950289
6483.255053418217,-0.003967845700515025
6483.25605319014,-0.0039539258885343855
6483.257052962063,-0.0039396391123606945
6483.258052733986,-0.003924997669125484
6483.259052505909,-0.003910014051757289
6483.260052277831,-0.0038947009406972654
6483.261052049754,-0.003879071195318056
6483.262051821676,-0.0038631378450521905
6483.2630515936,-0.0038469140802371974
6483.264051365522,-0.003830413242685542
6483.265051137445,-0.003813648815988456
6483.266050909368,-0.003796634415563713
6483.26705068129,-0.0037793837784584213
6483.268050453214,-0.0037619107529189696
6483.269050225136,-0.0037442292877414266
6483.270049997059,-0.003726353421416952
6483.271049768981,-0.003708297271088128
6483.272049540904,-0.003690075021333521
6483.273049312827,-0.003671700912799221
6483.27404908475,-0.00365318923069747
6483.275048856673,-0.0036345542931937843
6483.276048628595,-0.003615810439705099
6483.277048400518,-0.003596972019132417
6483.27804817244,-0.0035780533780521867
6483.279047944364,-0.00355906884889121
6483.280047716286,-0.0035400327381102186
6483.281047488209,-0.0035209593144214265
6483.282047260132,-0.003501862797065251
6483.283047032054,-0.003482757344171099
6483.284046803978,-0.003463657041226542
6483.2850465759,-0.0034445758896784373
6483.286046347823,-0.003425527795688575
6483.287046119745,-0.0034065265590653058
6483.288045891668,-0.003387585862391352
6483.289045663591,-0.0033687192603666666
6483.290045435514,-0.003349940169383766
6483.291045207437,-0.003331261857351548
6483.292044979359,-0.003312697433782154
6483.293044751282,-0.0032942598401540287
6483.294044523204,-0.0032759618405629235
6483.295044295128,-0.003257816012671208
6483.29604406705,-0.0032398347389644582
6483.297043838973,-0.0032220301983229426
6483.298043610896,-0.003204414357914278
6483.299043382818,-0.0031869989654122266
6483.300043154742,-0.0031697955415453233
6483.301042926664,-0.0031528153729777973
6483.302042698587,-0.0031360695055240926
6483.303042470509,-0.0031195687376971825
6483.304042242432,-0.0031033236145899066
6483.305042014355,-0.003087344422087642
6483.306041786278,-0.0030716411814098172
6483.307041558201,-0.003056223643977094
6483.308041330123,-0.003041101286600406
6483.309041102046,-0.003026283306987508
6483.310040873968,-0.003011778619562196
6483.311040645892,-0.002997595851590952
6483.312040417814,-0.0029837433396114094
6483.313040189737,-0.0029702291261567222
6483.31403996166,-0.0029570609567696983
6483.315039733582,-0.0029442462773003465
6483.316039505506,-0.002931792231480369
6483.317039277428,-0.0029197056587680448
6483.318039049351,-0.0029079930924568917
6483.319038821273,-0.002896660758041508
6483.320038593196,-0.00288571457183401
6483.321038365119,-0.0028751601398245186
6483.322038137042,-0.0028650027567792536
6483.323037908965,-0.002855247405569864
6483.324037680887,-0.0028458987567277472
6483.32503745281,-0.002836961168217211
6483.326037224733,-0.0028284386854214587
6483.327036996656,-0.002820335041335523
6483.328036768578,-0.0028126536569603755
6483.329036540501,-0.0028053976418925927
6483.330036312424,-0.0027985697951040697
6483.331036084346,-0.002792172605906396
6483.33203585627,-0.002786208255094635
6483.333035628192,-0.0027806786162653642
6483.334035400115,-0.0027755852573039816
6483.335035172037,-0.002770929442036404
6483.33603494396,-0.002766712132040421
6483.337034715883,-0.002762933988612092
6483.338034487806,-0.002759595374882706
6483.339034259729,-0.002756696358081904
6483.340034031651,-0.002754236711942685
6483.341033803574,-0.0027522159192441306
6483.342033575496,-0.0027506331744877443
6483.34303334742,-0.0027494873867034047
6483.344033119342,-0.0027487771823809775
6483.345032891265,-0.002748500908523685
6483.346032663188,-0.002748656635819381
6483.34703243511,-0.0027492421619258996
6483.348032207034,-0.0027502550148666973
6483.349031978956,-0.0027516924565330085
6483.350031750879,-0.002753551486288754
6483.351031522801,-0.002755828844674456
6483.352031294724,-0.002758521017206429
6483.353031066647,-0.0027616242382675262
6483.35403083857,-0.0027651344950857556
6483.355030610493,-0.0027690475317970935
6483.356030382415,-0.0027733588535888655
6483.357030154338,-0.002778063730920085
6483.358029926261,-0.00278315720381519
6483.359029698184,-0.0027886340862276495
6483.360029470106,-0.0027944889704699535
6483.361029242029,-0.0028007162317065615
6483.362029013952,-0.0028073100325064185
6483.363028785874,-0.002814264327451704
6483.364028557798,-0.00282157286779955
6483.36502832972,-0.0028292292061935127
6483.366028101643,-0.002837226701421676
6483.367027873565,-0.0028455585232183126
6483.368027645488,-0.002854217657106091
6483.369027417411,-0.002863196909275891
6483.370027189334,-0.002872488911501347
6483.371026961257,-0.0028820861260852658
6483.372026733179,-0.002891980850835152
6483.373026505102,-0.0029021652240651067
6483.374026277025,-0.002912631229621412
6483.375026048948,-0.002923370701929208
6483.37602582087,-0.002934375331057706
6483.377025592793,-0.0029456366678014584
6483.378025364716,-0.002957146128775279
6483.379025136638,-0.002968895001520459
6483.380024908562,-0.0029808744496199985
6483.381024680484,-0.002993075517820641
6483.382024452407,-0.0030054891371595694
6483.383024224329,-0.00301810613009368
6483.384023996252,-0.0030309172156294454
6483.385023768175,-0.0030439130144514284
6483.386023540098,-0.0030570840540476148
6483.387023312021,-0.003070420773829775
6483.388023083943,-0.0030839135302471645
6483.389022855866,-0.003097552601891866
6483.390022627789,-0.003111328194594135
6483.391022399712,-0.0031252304465061117
6483.392022171634,-0.003139249433172268
6483.393021943557,-0.00315337517258498
6483.39402171548,-0.003167597630223627
6483.395021487402,-0.003181906724075644
6483.396021259326,-0.0031962923296379926
6483.397021031248,-0.003210744284897507
6483.398020803171,-0.003225252395288613
6483.399020575093,-0.003239806438626914
6483.400020347016,-0.003254396170017143
6483.401020118939,-0.003269011326734006
6483.402019890862,-0.0032836416330744435
6483.403019662785,-0.003298276805179872
6483.404019434707,-0.0033129065558269934
6483.40501920663,-0.0033275205991857887
6483.406018978553,-0.0033421086555433443
6483.407018750476,-0.0033566604559921304
6483.408018522398,-0.0033711657470813943
6483.409018294321,-0.0033856142954303077
6483.410018066244,-0.003399995892301511
6483.411017838167,-0.0034143003581336975
6483.41201761009,-0.0034285175470319135
6483.413017382012,-0.003442637351214298
6483.414017153935,-0.003456649705414004
6483.415016925857,-0.0034705445912351276
6483.41601669778,-0.003484312041461494
6483.417016469703,-0.0034979421443172283
6483.418016241626,-0.0035114250476780454
6483.419016013549,-0.0035247509632322324
6483.420015785471,-0.00353791017059035
6483.421015557394,-0.0035508930213426636
6483.422015329317,-0.0035636899430633454
6483.42301510124,-0.003576291443260467
6483.424014873162,-0.0035886881132707947
6483.425014645085,-0.003600870632098373
6483.426014417008,-0.003612829770195852
6483.427014188931,-0.00362455639318749
6483.428013960854,-0.003636041465532758
6483.429013732776,-0.003647276054129438
6483.430013504699,-0.0036582513318551024
6483.431013276621,-0.003668958581045856
6483.432013048544,-0.0036793891969111973
6483.433012820467,-0.0036895346908838856
6483.43401259239,-0.003699386693903701
6483.435012364313,-0.003708936959634011
6483.436012136235,-0.0037181773676100796
6483.437011908158,-0.0037270999263180715
6483.438011680081,-0.0037356967762037247
6483.439011452004,-0.003743960192609676
6483.440011223926,-0.003751882588640443
6483.441010995849,-0.0037594565179540733
6483.442010767772,-0.003766674677479509
6483.443010539695,-0.0037735299100587444
6483.444010311618,-0.003780015207012881
6483.44501008354,-0.0037861237106312264
6483.446009855463,-0.003791848716582597
6483.447009627385,-0.003797183676248025
6483.448009399308,-0.0038021221989740684
6483.449009171231,-0.0038066580542459663
6483.450008943154,-0.0038107851737798704
6483.451008715077,-0.0038144976535334145
6483.452008486999,-0.003817789755633872
6483.453008258922,-0.0038206559102231747
6483.454008030845,-0.0038230907172190414
6483.455007802768,-0.0038250889479915116
6483.45600757469,-0.003826645546954159
6483.457007346613,-0.0038277556330693044
6483.458007118536,-0.0038284145012665682
6483.459006890459,-0.0038286176237741472
6483.460006662382,-0.003828360651362251
6483.461006434304,-0.0038276394144981874
6483.462006206227,-0.0038264499244126593
6483.463005978149,-0.0038247883740769014
6483.464005750073,-0.003822651139090345
6483.465005521995,-0.003820034778478572
6483.466005293918,-0.0038169360354013532
6483.467005065841,-0.0038133518377706146
6483.468004837763,-0.00380927929877819
6483.469004609686,-0.0038047157173332377
6483.470004381609,-0.0037996585784091986
6483.471004153532,-0.0037941055533001855
6483.472003925454,-0.0037880544997866772
6483.473003697377,-0.003781503462210433
6483.4740034693,-0.003774450671458528
6483.475003241223,-0.003766894544856466
6483.476003013146,-0.003758833685970349
6483.477002785068,-0.0037502668843181295
6483.478002556991,-0.003741193114990044
6483.479002328913,-0.0037316115381783644
6483.480002100836,-0.0037215214986166924
6483.481001872759,-0.003710922524929069
6483.482001644682,-0.0036998143288892627
6483.483001416605,-0.0036881968045906367
6483.484001188527,-0.0036760700275270675
6483.48500096045,-0.003663434253585442
6483.486000732373,-0.0036502899179502763
6483.487000504296,-0.0036366376339210657
6483.488000276218,-0.003622478191642999
6483.489000048141,-0.0036078125567517243
6483.489999820064,-0.0035926418689329106
6483.490999591987,-0.0035769674403974164
6483.49199936391,-0.003560790754272956
6483.492999135832,-0.0035441134629132414
6483.493998907755,-0.0035269373861256522
6483.494998679677,-0.003509264509318574
6483.495998451601,-0.0034910969815696137
6483.496998223523,-0.003472437113615974
6483.497997995446,-0.0034532873757683294
6483.498997767369,-0.003433650395749653
6483.499997539291,-0.0034135289564604923
6483.500997311214,-0.003392925993672301
6483.501997083137,-0.0033718445936504996
6483.50299685506,-0.003350287990709009
6483.503996626982,-0.0033282595646980497
6483.504996398905,-0.0033057628384270715
6483.505996170828,-0.003282801475024718
6483.506995942751,-0.00325937927523778
6483.507995714674,-0.003235500174671137
6483.508995486596,-0.003211168240970704
6483.509995258519,-0.0031863876709514152
6483.510995030441,-0.003161162787672326
6483.511994802365,-0.003135498037460889
6483.512994574287,-0.0031093979868885182
6483.51399434621,-0.0030828673196995862
6483.514994118133,-0.0030559108336960373
6483.515993890055,-0.0030285334375798317
6483.516993661978,-0.003000740147755483
6483.517993433901,-0.0029725360850949814
6483.518993205824,-0.0029439264716674012
6483.519992977746,-0.002914916627435558
6483.520992749669,-0.0028855119669220406
6483.521992521592,-0.0028557179958470158
6483.522992293515,-0.0028255403077401854
6483.523992065438,-0.002794984580529305
6483.52499183736,-0.002764056573107669
6483.525991609283,-0.00273276212188299
6483.526991381205,-0.002701107137310096
6483.527991153129,-0.0026690976004099098
6483.528990925051,-0.0026367395592771926
6483.529990696974,-0.002604039125579584
6483.530990468897,-0.002571002471050518
6483.531990240819,-0.0025376358239786382
6483.532990012742,-0.0025039454656963942
6483.533989784665,-0.0024699377270705094
6483.534989556588,-0.0024356189849970345
6483.53598932851,-0.002400995658903662
6483.536989100433,-0.002366074207261933
6483.537988872356,-0.0023308611241118927
6483.538988644279,-0.0022953629356016678
6483.539988416202,-0.0022595861965443473
6483.540988188124,-0.0022235374869944403
6483.541987960047,-0.002187223408846103
6483.542987731969,-0.0021506505824552234
6483.543987503893,-0.0021138256432874044
6483.544987275815,-0.0020767552385938274
6483.545987047738,-0.0020394460241169553
6483.546986819661,-0.0020019046608279936
6483.547986591583,-0.001964137811698005
6483.548986363507,-0.0019261521385045245
6483.549986135429,-0.0018879542986754622
6483.550985907352,-0.0018495509421720202
6483.551985679274,-0.0018109487084122518
6483.552985451197,-0.0017721542232368016
6483.55398522312,-0.0017331740959182721
6483.554984995043,-0.0016940149162155563
6483.555984766966,-0.0016546832514743922
6483.556984538888,-0.0016151856437753133
6483.557984310811,-0.0015755286071301
6483.558984082733,-0.0015357186247277825
6483.559983854657,-0.0014957621462312104
6483.560983626579,-0.001455665585125155
6483.561983398502,-0.001415435316116892
6483.562983170425,-0.00137507767259016
6483.563982942347,-0.001334598944113355
6483.564982714271,-0.0012940053740027819
6483.565982486193,-0.0012533031569417384
6483.566982258116,-0.00121249843665617
6483.567982030038,-0.0011715973036475935
6483.568981801961,-0.0011306057929839502
6483.569981573884,-0.001089529882149012
6483.570981345807,-0.0010483754889509269
6483.57198111773,-0.0010071484694904468
6483.572980889652,-0.0009658546161893201
6483.573980661575,-0.0009244996558792864
6483.574980433497,-0.0008830892479520482
6483.575980205421,-0.0008416289825705399
6483.576979977343,-0.0008001243789417512
6483.577979749266,-0.000758580883651312
6483.578979521189,-0.0007170038690599897
6483.579979293111,-0.000675398631762217
6483.580979065035,-0.0006337703911067456
6483.581978836957,-0.0005921242877795129
6483.58297860888,-0.0005504653824488055
6483.583978380802,-0.0005087986544728015
6483.584978152725,-0.00046712900066957555
6483.585977924648,-0.00042546123414965146
6483.586977696571,-0.000383800083211189
6483.587977468494,-0.0003421501902978941
6483.588977240416,-0.0003005161110197368
6483.589977012339,-0.0002589023132365504
6483.590976784261,-0.00021731317620456384
6483.591976556185,-0.00017575298978589682
6483.592976328107,-0.00013422595372103216
6483.59397610003,-9.27361769642738e-05
6483.594975871953,-5.128767708220461e-05
6483.595975643875,-9.884379715169124e-06
6483.596975415799,3.1469881898179666e-05
6483.597975187721,7.277136733322216e-05
6483.598974959644,0.00011401642932855831
6483.599974731566,0.00015520151407201268
6483.600974503489,0.00019632316142346898
6483.601974275412,0.00023737800507459504
6483.602974047335,0.00027836277264558026
6483.603973819258,0.00031927428571907593
6483.60497359118,0.00036010945981159565
6483.605973363103,0.0004008653042826935
6483.606973135025,0.0004415389221822852
6483.607972906949,0.0004821275100365236
6483.608972678871,0.0005226283575726817
6483.609972450794,0.0005630388473835332
6483.610972222717,0.0006033564545317515
6483.611971994639,0.0006435787460948778
6483.612971766563,0.0006837033806514514
6483.613971538485,0.0007237281077089423
6483.614971310408,0.0007636507670741926
6483.61597108233,0.0008034692881671342
6483.616970854253,0.0008431816892786169
6483.617970626176,0.000882786076773235
6483.618970398099,0.0009222806442380923
6483.619970170022,0.0009616636715784868
6483.620969941944,0.0010009335240615364
6483.621969713867,0.0010400886513088003
6483.622969485789,0.0010791275862389994
6483.623969257713,0.001118048943961986
6483.624969029635,0.0011568514206251707
6483.625968801558,0.0011955337922136813
6483.626968573481,0.0012340949133055749
6483.627968345403,0.0012725337157834784
6483.628968117327,0.0013108492075040753
6483.629967889249,0.0013490404709268896
6483.630967661172,0.0013871066617038561
6483.631967433094,0.0014250470072311805
6483.632967205017,0.0014628608051650072
6483.63396697694,0.0015005474219024289
6483.634966748863,0.001538106291029371
6483.635966520786,0.0015755369117368824
6483.636966292708,0.0016128388472073628
6483.637966064631,0.0016500117229722464
6483.638965836553,0.0016870552252426633
6483.639965608477,0.001723969099214616
6483.640965380399,0.0017607531473502283
6483.641965152322,0.0017974072276366682
6483.642964924245,0.0018339312518243812
6483.643964696167,0.0018703251836463199
6483.644964468091,0.001906589037019897
6483.645964240013,0.0019427228742333999
6483.646964011936,0.0019787268041186103
6483.647963783858,0.0020146009802113306
6483.648963555781,0.002050345598901463
6483.649963327704,0.002085960897574204
6483.650963099627,0.0021214471527438456
6483.65196287155,0.0021568046781816025
6483.652962643472,0.0021920338230388284
6483.653962415395,0.0022271349699669444
6483.654962187317,0.0022621085332353596
6483.655961959241,0.0022969549568486445
6483.656961731163,0.0023316747126641965
6483.657961503086,0.002366268298511633
6483.658961275009,0.002400736236315163
6483.659961046931,0.0024350790702201966
6483.660960818855,0.0024692973647254647
6483.661960590777,0.0025033917028219345
6483.6629603627,0.0025373626841398243
6483.663960134622,0.0025712109231050303
6483.664959906545,0.0026049370471063135
6483.665959678468,0.002638541694674596
6483.666959450391,0.0026720255136757436
6483.667959222314,0.0027053891595182167
6483.668958994236,0.0027386332933769975
6483.669958766159,0.0027717585804352064
6483.670958538081,0.0028047656881448313
6483.671958310005,0.0028376552845079724
6483.672958081927,0.002870428036379972
6483.67395785385,0.002903084607795757
6483.674957625773,0.002935625658320633
6483.675957397695,0.0029680518414266933
6483.676957169619,0.0030003638028959206
6483.677956941541,0.0030325621792509595
6483.678956713464,0.003064647596214457
6483.679956485386,0.003096620667197767
6483.680956257309,0.003128481991819742
6483.681956029232,0.003160232154456221
6483.682955801155,0.0031918717228207544
6483.683955573078,0.0032234012465770126
6483.684955345,0.003254821255983274
6483.685955116923,0.0032861322605693354
6483.686954888846,0.0033173347478461616
6483.687954660769,0.0033484291820485516
6483.688954432691,0.0033794160029110786
6483.689954204614,0.0034102956244775285
6483.690953976537,0.0034410684339440194
6483.691953748459,0.0034717347905359386
6483.692953520383,0.003502295024418798
6483.693953292305,0.003532749435643041
6483.694953064228,0.003563098293122781
6483.69595283615,0.0035933418336483993
6483.696952608073,0.0036234802609328696
6483.697952379996,0.0036535137446916353
6483.698952151919,0.0036834424197558155
6483.699951923842,0.003713266385218512
6483.700951695764,0.003742985703613957
6483.701951467687,0.003772600400129232
6483.702951239609,0.0038021104618482554
6483.703951011533,0.0038315158370277476
6483.704950783455,0.0038608164344048463
6483.705950555378,0.0038900121225360676
6483.706950327301,0.0039191027291673
6483.707950099223,0.0039480880406345545
6483.708949871147,0.003976967801295194
6483.709949643069,0.00400574171298938
6483.710949414992,0.0040344094345314534
6483.711949186914,0.004062970581230943
6483.712948958837,0.004091424724442904
6483.71394873076,0.0041197713911472564
6483.714948502683,0.004148010063556804
6483.715948274606,0.004176140178753604
6483.716948046528,0.004204161128353398
6483.717947818451,0.004232072258197779
6483.718947590374,0.004259872868073809
6483.719947362297,0.004287562211460792
6483.720947134219,0.004315139495303988
6483.721946906142,0.00434260387981498
6483.722946678065,0.004369954478298517
6483.723946449987,0.0043971903570055385
6483.724946221911,0.0044243105350121395
6483.725945993833,0.004451313984124175
6483.726945765756,0.004478199628807202
6483.727945537678,0.004504966346141444
6483.728945309601,0.004531612965801426
6483.729945081524,0.004558138270059976
6483.730944853447,0.004584540993816232
6483.73194462537,0.004610819824647308
6483.732944397292,0.0046369734028832545
6483.733944169215,0.004663000321704931
6483.734943941138,0.004688899127264418
6483.735943713061,0.004714668318827584
6483.736943484983,0.004740306348938465
6483.737943256906,0.004765811623605091
6483.7389430288285,0.004791182502506477
6483.739942800751,0.004816417299220452
6483.740942572675,0.004841514281472074
6483.741942344597,0.0048664716714023745
6483.74294211652,0.004891287645857255
6483.743941888442,0.004915960336696389
6483.744941660365,0.00494048783112205
6483.745941432288,0.004964868172027849
6483.746941204211,0.004989099358367392
6483.747940976134,0.005013179345542898
6483.748940748056,0.005037106045813827
6483.749940519979,0.005060877328725524
6483.750940291902,0.0050844910215579065
6483.751940063825,0.0051079449097942015
6483.752939835747,0.005131236737609728
6483.75393960767,0.005154364208380723
6483.7549393795925,0.005177324985213209
6483.755939151515,0.005200116691491868
6483.756938923439,0.005222736911448904
6483.757938695361,0.005245183190752843
6483.758938467284,0.005267453037117236
6483.759938239206,0.0052895439209291765
6483.760938011129,0.005311453275897544
6483.761937783052,0.005333178499720905
6483.762937554975,0.005354716954774928
6483.763937326898,0.005376065968819194
6483.76493709882,0.005397222835723242
6483.765936870743,0.005418184816211651
6483.766936642666,0.005438949138627957
6483.767936414589,0.005459512999717115
6483.768936186511,0.005479873565426196
6483.769935958434,0.005500027971722972
6483.7709357303565,0.005519973325431986
6483.77193550228,0.005539706705087685
6483.772935274203,0.0055592251618041275
6483.773935046125,0.005578525720160751
6483.774934818048,0.005597605379103656
6483.77593458997,0.005616461112861807
6483.776934361893,0.005635089871877578
6483.777934133816,0.005653488583751007
6483.778933905739,0.005671654154197171
6483.779933677662,0.005689583468016098
6483.780933449584,0.005707273390074677
6483.781933221507,0.005724720766300068
6483.78293299343,0.005741922424684166
6483.783932765353,0.005758875176298763
6483.784932537275,0.0057755758163210895
6483.785932309198,0.0057920211250695255
6483.7869320811205,0.00580820786904927
6483.787931853044,0.005824132802007853
6483.788931624967,0.005839792666000352
6483.789931396889,0.00585518419246422
6483.790931168812,0.005870304103303602
6483.791930940734,0.005885149111982999
6483.792930712657,0.005899715924630086
6483.79393048458,0.005914001241147404
6483.794930256503,0.005928001756332628
6483.795930028426,0.005941714161006976
6483.796929800348,0.005955135143151247
6483.797929572271,0.005968261389048962
6483.798929344194,0.005981089584435981
6483.799929116117,0.005993616415655981
6483.800928888039,0.006005838570821121
6483.801928659962,0.006017752740977177
6483.8029284318845,0.0060293556212724555
6483.803928203808,0.006040643912129711
6483.804927975731,0.006051614320420289
6483.805927747653,0.00606226356063969
6483.806927519576,0.006072588356083733
6483.807927291498,0.006082585440024472
6483.808927063421,0.006092251556885018
6483.809926835344,0.0061015834634123665
6483.810926607267,0.00611057792984734
6483.81192637919,0.006119231741090697
6483.812926151112,0.006127541697864485
6483.813925923035,0.006135504617867732
6483.814925694958,0.006143117336925537
6483.815925466881,0.006150376710130683
6483.816925238803,0.006157279612976848
6483.817925010726,0.006163822942482511
6483.8189247826485,0.006170003618304597
6483.819924554572,0.0061758185838408555
6483.820924326495,0.006181264807319956
6483.821924098417,0.006186339282878259
6483.82292387034,0.006191039031622226
6483.823923642262,0.0061953611026754505
6483.824923414186,0.006199302574209283
6483.825923186108,0.0062028605544561105
6483.826922958031,0.006206032182704343
6483.827922729954,0.00620881463027421
6483.828922501876,0.006211205101473528
6483.829922273799,0.006213200834532677
6483.830922045722,0.006214799102518096
6483.831921817645,0.0062159972142236996
6483.832921589567,0.006216792515039709
6483.83392136149,0.006217182387798495
6483.8349211334125,0.006217164253597056
6483.835920905336,0.00621673557259586
6483.836920677259,0.00621589384479376
6483.837920449181,0.006214636610778799
6483.838920221104,0.006212961452454674
6483.839919993026,0.006210865993742732
6483.840919764949,0.006208347901259334
6483.841919536872,0.006205404884968491
6483.842919308795,0.006202034698809676
6483.843919080718,0.00619823514130077
6483.84491885264,0.006194004056116081
6483.845918624563,0.0061893393326394415
6483.846918396486,0.006184238906492351
6483.847918168409,0.006178700760037156
6483.848917940331,0.006172722922855297
6483.849917712254,0.006166303472200653
6483.8509174841765,0.00615944053342804
6483.8519172561,0.006152132280396968
6483.852917028023,0.006144376935850789
6483.853916799945,0.00613617277177141
6483.854916571868,0.006127518109709775
6483.85591634379,0.006118411321092375
6483.856916115714,0.006108850827504109
6483.857915887636,0.0060988351009478685
6483.858915659559,0.00608836266408124
6483.859915431482,0.00607743209043079
6483.860915203404,0.006066042004584405
6483.861914975327,0.006054191082362199
6483.86291474725,0.006041878050966554
6483.863914519173,0.006029101689111831
6483.864914291095,0.006015860827134366
6483.865914063018,0.0060021543470834176
6483.8669138349405,0.005987981182793783
6483.867913606864,0.005973340319940842
6483.868913378787,0.005958230796078886
6483.869913150709,0.005942651700663603
6483.870912922632,0.005926602175059677
6483.871912694554,0.0059100814125345015
6483.872912466478,0.0058930886582390235
6483.8739122384,0.0058756232091768355
6483.874912010323,0.005857684414162608
6483.875911782246,0.005839271673771
6483.876911554168,0.00582038444027717
6483.877911326091,0.0058010222175900175
6483.878911098014,0.005781184561179234
6483.879910869937,0.0057608710779972734
6483.880910641859,0.005740081426397285
6483.881910413782,0.005718815316048053
6483.8829101857045,0.005697072507846942
6483.883909957628,0.005674852813831819
6483.884909729551,0.0056521560970928374
6483.885909501473,0.0056289822716849265
6483.886909273396,0.0056053313025417615
6483.887909045318,0.005581203205391894
6483.888908817242,0.005556598046677652
6483.889908589164,0.005531515943477352
6483.890908361087,0.00550595706343131
6483.89190813301,0.005479921624672081
6483.892907904932,0.005453409895759369
6483.893907676855,0.005426422195620025
6483.894907448778,0.005398958893493565
6483.895907220701,0.00537102040888367
6483.896906992623,0.005342607211516099
6483.897906764546,0.005313719821303516
6483.8989065364685,0.0052843588083176605
6483.899906308392,0.005254524792769339
6483.900906080315,0.005224218444996691
6483.901905852237,0.005193440485462151
6483.90290562416,0.005162191684758536
6483.903905396082,0.005130472863624636
6483.904905168006,0.0050982848929706625
6483.905904939928,0.005065628693913871
6483.906904711851,0.005032505237824596
6483.907904483774,0.004998915546382938
6483.908904255696,0.0049648606916462895
6483.90990402762,0.004930341796127922
6483.910903799542,0.0048953600328868665
6483.911903571465,0.004859916625629345
6483.912903343387,0.0048240128488220456
6483.91390311531,0.004787650027817598
6483.9149028872325,0.004750829538992605
6483.915902659156,0.00471355280989865
6483.916902431079,0.004675821319426712
6483.917902203001,0.004637636597985413
6483.918901974924,0.004599000227693542
6483.919901746846,0.004559913842587239
6483.92090151877,0.004520379128842244
6483.921901290692,0.004480397825011597
6483.922901062615,0.004439971722279187
6483.923900834538,0.004399102664729523
6483.92490060646,0.004357792549634135
6483.925900378384,0.004316043327754978
6483.926900150306,0.004273857003665226
6483.927899922229,0.004231235636087812
6483.928899694151,0.004188181338252082
6483.929899466074,0.004144696278268906
6483.9308992379965,0.004100782679524586
6483.93189900992,0.004056442821093904
6483.932898781843,0.0040116790381726315
6483.933898553765,0.0039664937225297936
6483.934898325688,0.00392088932297995
6483.93589809761,0.003874868345875685
6483.936897869534,0.003828433355620407
6483.937897641456,0.003781586975201499
6483.938897413379,0.0037343318867437128
6483.939897185302,0.003686670832082618
6483.940896957224,0.003638606613357821
6483.941896729148,0.003590142093625575
6483.94289650107,0.0035412801974903587
6483.943896272993,0.00349202391175494
6483.944896044915,0.0034423762860883956
6483.945895816838,0.0033923404337115443
6483.9468955887605,0.003341919532099227
6483.947895360684,0.0032911168236988493
6483.948895132607,0.0032399356166646002
6483.949894904529,0.003188379285606778
6483.950894676452,0.0031364512723556573
6483.951894448374,0.0030841550867393517
6483.952894220298,0.003031494307375146
6483.95389399222,0.0029784725824737817
6483.954893764143,0.002925093630656154
6483.955893536066,0.0028713612417818816
6483.956893307988,0.002817279277789162
6483.957893079912,0.0027628516735452766
6483.958892851834,0.002708082437707054
6483.959892623757,0.0026529756535905455
6483.960892395679,0.0025975354800491187
6483.961892167602,0.0025417661523591227
6483.962891939525,0.0024856719831122215
6483.963891711448,0.0024292573631134596
6483.964891483371,0.0023725267622840924
6483.965891255293,0.002315484730568199
6483.966891027216,0.0022581358988420772
6483.967890799138,0.002200484979825445
6483.968890571062,0.002142536768993447
6483.969890342984,0.0020842961454884904
6483.970890114907,0.002025768073030895
6483.97188988683,0.001966957600827314
6483.972889658752,0.0019078698644758349
6483.973889430676,0.0018485100868666118
6483.974889202598,0.001788883579076828
6483.975888974521,0.001728995741258714
6483.976888746443,0.0016688520635193037
6483.977888518366,0.001608458126790533
6483.9788882902885,0.0015478196036882305
6483.979888062212,0.0014869422593584772
6483.980887834135,0.0014258319523097326
6483.981887606057,0.001364494635229043
6483.98288737798,0.0013029363557805489
6483.983887149902,0.0012411632573843835
6483.984886921826,0.001179181579973906
6483.985886693748,0.001116997660729068
6483.986886465671,0.0010546179347835566
6483.987886237594,0.0009920489359032197
6483.988886009516,0.0009292972971331536
6483.98988578144,0.0008663697514107173
6483.990885553362,0.0008032731321416236
6483.991885325285,0.0007400143737361622
6483.992885097207,0.0006766005121025215
6483.99388486913,0.0006130386850941089
6483.994884641053,0.000549336132907734
6483.995884412976,0.0004855001984294967
6483.996884184899,0.0004215383275252429
6483.997883956821,0.0003574580692724811
6483.998883728744,0.0002932670761307169
6483.999883500666,0.00022897310404723276
6484.00088327259,0.00016458401249543072
6484.001883044512,0.00010010776444294317
6484.002882816435,3.555242624679526e-05
6484.003882588358,-2.9073832527029413e-05
6484.00488236028,-9.376273936220903e-05
6484.005882132204,-0.00015850591913142725
6484.006881904126,-0.0002232948945189317
6484.007881676049,-0.0002881210865287572
6484.008881447971,-0.0003529758150810229
6484.009881219894,-0.00041785029969866567
6484.010880991817,-0.0004827356602869126
6484.01188076374,-0.0005476229180077178
