Time,Filtered_ECG
6384.806095162715,-0.030379573139961265
6384.80709493493,-0.030347761689886198
6384.808094707145,-0.03031289906178039
6384.80909447936,-0.030274970560777204
6384.810094251576,-0.03023396232374693
6384.811094023791,-0.030189861328315953
6384.812093796007,-0.030142655401454454
6384.813093568221,-0.03009233322761823
6384.814093340437,-0.030038884356430463
6384.815093112652,-0.029982299209889776
6384.816092884867,-0.029922569089091328
6384.817092657083,-0.02985968618044823
6384.818092429298,-0.029793643561401
6384.819092201513,-0.029724435205603344
6384.820091973728,-0.029652055987573048
6384.821091745944,-0.029576501686797298
6384.822091518159,-0.029497768991282276
6384.823091290375,-0.029415855500537602
6384.824091062589,-0.02933075972798669
6384.8250908348045,-0.02924248110279488
6384.82609060702,-0.029151019971107972
6384.827090379235,-0.02905637759669445
6384.828090151451,-0.028958556160985673
6384.829089923666,-0.028857558762509127
6384.830089695881,-0.0287533894157109
6384.831089468096,-0.028646053049164656
6384.832089240312,-0.02853555550316568
6384.833089012527,-0.028421903526709796
6384.834088784743,-0.02830510477385835
6384.835088556957,-0.028185167799491748
6384.8360883291725,-0.02806210205445526
6384.837088101388,-0.027935917880101795
6384.838087873603,-0.027806626502237225
6384.839087645819,-0.027674240024474803
6384.840087418033,-0.027538771421005782
6384.841087190249,-0.027400234528794105
6384.842086962464,-0.027258644039203733
6384.84308673468,-0.0271140154890679
6384.844086506895,-0.026966365251210253
6384.845086279111,-0.026815710524428698
6384.846086051325,-0.02666206932295335
6384.8470858235405,-0.026505460465390866
6384.848085595756,-0.026345903563167863
6384.849085367971,-0.026183419008487113
6384.850085140187,-0.02601802796181064
6384.851084912401,-0.025849752338884726
6384.852084684617,-0.02567861479732247
6384.853084456832,-0.025504638722760403
6384.854084229048,-0.02532784821460645
6384.855084001263,-0.025148268071397233
6384.856083773479,-0.024965923775783362
6384.857083545693,-0.024780841479161906
6384.8580833179085,-0.02459304798597565
6384.859083090124,-0.024402570737698998
6384.860082862339,-0.02420943779653051
6384.861082634555,-0.024013677828812207
6384.862082406769,-0.023815320088195733
6384.863082178985,-0.0236143943985753
6384.8640819512,-0.023410931136807304
6384.865081723416,-0.02320496121523611
6384.866081495631,-0.02299651606404539
6384.867081267847,-0.022785627613454016
6384.868081040061,-0.022572328275775218
6384.8690808122765,-0.022356650927357384
6384.870080584492,-0.0221386288904248
6384.871080356707,-0.02191829591483634
6384.872080128923,-0.021695686159780347
6384.873079901137,-0.02147083417542395
6384.874079673353,-0.021243774884535133
6384.875079445568,-0.021014543564096044
6384.876079217784,-0.020783175826926008
6384.877078989999,-0.02054970760333241
6384.878078762214,-0.020314175122807334
6384.879078534429,-0.020076614895787243
6384.8800783066445,-0.019837063695492253
6384.88107807886,-0.019595558539860832
6384.882077851075,-0.019352136673594946
6384.883077623291,-0.01910683555032981
6384.884077395505,-0.01885969281494173
6384.885077167721,-0.018610746286006775
6384.886076939936,-0.018360033938422296
6384.887076712152,-0.018107593886202825
6384.888076484367,-0.017853464365461286
6384.889076256582,-0.017597683717586035
6384.890076028797,-0.017340290372624093
6384.891075801012,-0.01708132283288062
6384.892075573228,-0.01682081965674482
6384.893075345443,-0.016558819442752285
6384.894075117659,-0.016295360813894075
6384.895074889873,-0.016030482402182623
6384.896074662089,-0.015764222833484758
6384.897074434304,-0.015496620712631842
6384.89807420652,-0.015227714608816799
6384.899073978735,-0.014957543041287345
6384.90007375095,-0.014686144465344239
6384.901073523165,-0.01441355725865273
6384.90207329538,-0.014139819707874802
6384.903073067596,-0.013864969995629065
6384.904072839811,-0.013589046187784589
6384.905072612026,-0.013312086221094352
6384.906072384241,-0.013034127891173499
6384.907072156457,-0.012755208840827034
6384.908071928672,-0.01247536654873112
6384.909071700888,-0.012194638318471765
6384.910071473103,-0.011913061267944232
6384.9110712453175,-0.01163067231911626
6384.912071017533,-0.011347508188157869
6384.913070789748,-0.011063605375940264
6384.914070561964,-0.01077900015890601
6384.915070334179,-0.010493728580312367
6384.916070106394,-0.010207826441849092
6384.917069878609,-0.009921329295631493
6384.918069650825,-0.009634272436568895
6384.91906942304,-0.009346690895107902
6384.920069195256,-0.00905861943034916
6384.921068967471,-0.00877009252353564
6384.9220687396855,-0.008481144371909919
6384.923068511901,-0.008191808882937386
6384.924068284116,-0.007902119668892
6384.925068056332,-0.007612110041800893
6384.926067828547,-0.0073218130087438875
6384.927067600762,-0.0070312612675038026
6384.928067372977,-0.006740487202563257
6384.929067145193,-0.006449522881443612
6384.930066917408,-0.006158400051381676
6384.931066689624,-0.005867150136339847
6384.932066461839,-0.005575804234345515
6384.9330662340535,-0.0052843931151557505
6384.934066006269,-0.004992947218243449
6384.935065778484,-0.0047014966511012115
6384.9360655507,-0.004410071187859244
6384.937065322915,-0.0041187002682134145
6384.93806509513,-0.0038274129966594235
6384.939064867345,-0.003536238142028686
6384.940064639561,-0.00324520413732123
6384.941064411776,-0.0029543390798305023
6384.942064183992,-0.0026636707315545937
6384.943063956206,-0.002373226519888026
6384.9440637284215,-0.0020830335385878082
6384.945063500637,-0.001793118549007091
6384.946063272852,-0.0015035079815893487
6384.947063045068,-0.0012142279376156527
6384.948062817283,-0.0009253041911973164
6384.949062589498,-0.0006367621915060153
6384.950062361713,-0.0003486270652334624
6384.951062133929,-6.092361927286849e-05
6384.952061906144,0.0002263236563852749
6384.95306167836,0.0005130905855501168
6384.954061450574,0.0007993533025266082
6384.9550612227895,0.0010850882486169431
6384.956060995005,0.0013702721684328719
6384.95706076722,0.0016548821060241217
6384.958060539436,0.0019388954008279094
6384.959060311651,0.002222289683444403
6384.960060083866,0.0025050428712429617
6384.961059856081,0.0027871331638040548
6384.962059628297,0.0030685390382018877
6384.963059400512,0.003349239244132956
6384.964059172728,0.003629212798895986
6384.965058944942,0.003908438982228973
6384.9660587171575,0.004186897331009301
6384.967058489373,0.004464567633823155
6384.968058261588,0.004741429925410648
6384.969058033804,0.0050174644809931526
6384.970057806018,0.005292651810489358
6384.971057578234,0.005566972652626443
6384.972057350449,0.005840407968952531
6384.973057122665,0.006112938937756275
6384.97405689488,0.006384546947899125
6384.975056667096,0.0066552135925654855
6384.97605643931,0.006924920662935739
6384.977056211525,0.0071936501417870806
6384.978055983741,0.007461384197027181
6384.979055755956,0.007728105175165871
6384.980055528172,0.007993795594730409
6384.981055300386,0.008258438139630273
6384.982055072602,0.008522015652477908
6384.983054844817,0.008784511127872345
6384.984054617033,0.009045907705653073
6384.985054389248,0.009306188664132034
6384.986054161464,0.009565337413311949
6384.987053933678,0.009823337488099574
6384.988053705893,0.010080172541522747
6384.989053478109,0.01033582633796032
6384.990053250324,0.010590282746394222
6384.99105302254,0.010843525733692894
6384.992052794754,0.011095539357935384
6384.99305256697,0.011346307761785242
6384.994052339185,0.011595815165923269
6384.995052111401,0.011844045862548063
6384.996051883616,0.012090984208953352
6384.997051655832,0.012336614621191115
6384.998051428046,0.012580921567829672
6384.999051200261,0.012823889563816063
6385.000050972477,0.013065503164452319
6385.001050744692,0.013305746959495435
6385.002050516908,0.013544605567391212
6385.003050289122,0.013782063629652438
6385.004050061338,0.014018105805392169
6385.005049833553,0.014252716766023176
6385.006049605769,0.014485881190134815
6385.007049377984,0.01471758375855864
6385.008049150199,0.01494780914963409
6385.009048922414,0.015176542034685398
6385.010048694629,0.015403767073720619
6385.011048466845,0.01562946891136317
6385.01204823906,0.01585363217302584
6385.013048011276,0.016076241461336654
6385.01404778349,0.016297281352825394
6385.015047555706,0.01651673639487905
6385.016047327921,0.016734591102974046
6385.017047100137,0.016950829958192647
6385.018046872352,0.017165437405030737
6385.019046644567,0.017378397849503905
6385.020046416782,0.017589695657558767
6385.021046188997,0.017799315153796295
6385.022045961213,0.018007240620513915
6385.023045733428,0.018213456297073004
6385.024045505644,0.018417946379598107
6385.025045277858,0.018620695021013885
6385.026045050074,0.01882168633142535
6385.027044822289,0.019020904378846272
6385.0280445945045,0.019218333190280004
6385.02904436672,0.01941395675315616
6385.030044138935,0.01960775901712576
6385.03104391115,0.01979972389621653
6385.032043683365,0.019989835271348868
6385.033043455581,0.02017807699321215
6385.034043227796,0.020364432885499634
6385.035043000012,0.02054888674849927
6385.036042772226,0.020731422363036562
6385.037042544442,0.020912023494764616
6385.038042316657,0.021090673898795532
6385.0390420888725,0.02126735732466646
6385.040041861088,0.021442057521632904
6385.041041633303,0.021614758244281152
6385.042041405518,0.02178544325845116
6385.043041177733,0.021954096347460563
6385.044040949949,0.022120701318620116
6385.045040722164,0.02228524201003043
6385.046040494379,0.022447702297649478
6385.047040266594,0.022608066102619923
6385.04804003881,0.02276631739884513
6385.049039811025,0.02292244022080213
6385.0500395832405,0.023076418671579342
6385.051039355456,0.02322823693112631
6385.052039127671,0.023377879264701813
6385.053038899886,0.023525330031506166
6385.054038672101,0.023670573693482744
6385.055038444317,0.02381359482427316
6385.056038216532,0.023954378118309933
6385.057037988747,0.02409290840003015
6385.058037760962,0.024229170633193433
6385.059037533178,0.024363149930287292
6385.060037305393,0.024494831562002984
6385.0610370776085,0.024624200966765174
6385.062036849824,0.024751243760298955
6385.063036622038,0.02487594574521801
6385.064036394254,0.02499829292061797
6385.065036166469,0.02511827149165953
6385.066035938685,0.02523586787912628
6385.0670357109,0.025351068728942595
6385.068035483115,0.025463860921637525
6385.06903525533,0.02557423158174116
6385.070035027546,0.025682168087100315
6385.071034799761,0.025787658078100743
6385.0720345719765,0.02589068946678354
6385.073034344191,0.02599125044584341
6385.074034116406,0.02608932949749683
6385.075033888622,0.02618491540220841
6385.076033660837,0.026277997247264047
6385.077033433053,0.026368564435179844
6385.078033205268,0.026456606691936183
6385.079032977483,0.026542114075027056
6385.080032749698,0.0266250769813151
6385.081032521914,0.026705486154683482
6385.082032294129,0.02678333269347635
6385.0830320663445,0.026858608057720324
6385.084031838559,0.02693130407611998
6385.085031610774,0.027001412952820984
6385.08603138299,0.027068927273935214
6385.087031155205,0.027133840013822606
6385.088030927421,0.02719614454112518
6385.089030699636,0.027255834624549075
6385.090030471851,0.027312904438390663
6385.091030244066,0.02736734856780328
6385.092030016282,0.027419162013801034
6385.093029788497,0.02746834019799641
6385.094029560712,0.027514878967068397
6385.095029332927,0.027558774596957977
6385.096029105142,0.027600023796787974
6385.097028877358,0.02763862371250456
6385.098028649573,0.027674571930238027
6385.099028421789,0.027707866479381043
6385.100028194004,0.027738505835383006
6385.101027966219,0.027766488922259955
6385.102027738434,0.027791815114820005
6385.10302751065,0.027814484240604988
6385.104027282865,0.027834496581549486
6385.10502705508,0.0278518528753589
6385.106026827295,0.027866554316608543
6385.10702659951,0.027878602557566048
6385.108026371726,0.027887999708739664
6385.109026143941,0.02789474833915507
6385.110025916157,0.027898851476363448
6385.111025688371,0.027900312606183524
6385.112025460587,0.02789913567218006
6385.113025232802,0.02789532507488122
6385.1140250050175,0.027888885670737128
6385.115024777233,0.02787982277082179
6385.116024549448,0.02786814213928088
6385.117024321663,0.027853849991527995
6385.118024093878,0.027836952992192562
6385.119023866094,0.02781745825282302
6385.120023638309,0.02779537332934961
6385.121023410525,0.027770706219311617
6385.122023182739,0.02774346535885466
6385.123022954955,0.027713659619503846
6385.12402272717,0.02768129830471933
6385.1250224993855,0.027646391146241078
6385.126022271601,0.027608948300230043
6385.127022043816,0.027568980343213263
6385.128021816031,0.027526498267840656
6385.129021588246,0.02748151347846136
6385.130021360462,0.02743403778652773
6385.131021132677,0.027384083405834897
6385.132020904893,0.027331662947603714
6385.133020677107,0.027276789415414622
6385.134020449323,0.027219476199999617
6385.135020221538,0.02715973707389931
6385.1360199937535,0.027097586185991614
6385.137019765969,0.027033038055898524
6385.138019538184,0.026966107568277352
6385.139019310399,0.026896809967002774
6385.140019082614,0.0268251608492462
6385.14101885483,0.026751176159459083
6385.142018627045,0.02667487218326696
6385.143018399261,0.026596265541281156
6385.144018171475,0.02651537318283537
6385.145017943691,0.026432212379654246
6385.146017715906,0.026346800719461345
6385.1470174881215,0.026259156099533866
6385.148017260337,0.026169296720211413
6385.149017032552,0.026077241078365992
6385.150016804767,0.025983007960840163
6385.151016576982,0.02588661643785993
6385.152016349198,0.02578808585642842
6385.153016121413,0.025687435833705936
6385.154015893629,0.025584686250381464
6385.155015665843,0.025479857244040137
6385.156015438059,0.02537296920253082
6385.157015210274,0.025264042757337738
6385.1580149824895,0.0251530987769598
6385.159014754705,0.025040158360301323
6385.160014526919,0.024925242830077843
6385.161014299135,0.024808373726240906
6385.16201407135,0.024689572799425758
6385.163013843566,0.02456886200442626
6385.164013615781,0.02444626349370158
6385.165013387997,0.02432179961091948
6385.166013160211,0.024195492884541224
6385.167012932427,0.024067366021453672
6385.168012704642,0.023937441900654104
6385.1690124768575,0.023805743566993602
6385.170012249073,0.023672294224984795
6385.171012021287,0.02353711723267962
6385.172011793503,0.023400236095622494
6385.173011565718,0.023261674460883664
6385.174011337934,0.02312145611117725
6385.175011110149,0.022979604959067906
6385.176010882364,0.022836145041269774
6385.177010654579,0.022691100513041105
6385.178010426795,0.022544495642677666
6385.17901019901,0.02239635480610814
6385.180009971225,0.022246702481594494
6385.181009743441,0.022095563244540626
6385.182009515655,0.021942961762412602
6385.183009287871,0.02178892278977395
6385.184009060086,0.021633471163439628
6385.185008832302,0.021476631797752353
6385.186008604517,0.02131842967998511
6385.187008376732,0.02115888986587369
6385.188008148947,0.020998037475282998
6385.189007921163,0.02083589768801099
6385.190007693378,0.020672495739733746
6385.191007465593,0.020507856918094893
6385.192007237809,0.02034200655894214
6385.193007010023,0.020174970042712854
6385.194006782239,0.020006772790970174
6385.195006554454,0.01983744026309014
6385.19600632667,0.019666997953099865
6385.197006098885,0.019495471386665943
6385.1980058711,0.019322886118231897
6385.199005643315,0.01914926772830304
6385.2000054155305,0.018974641820876714
6385.201005187746,0.01879903402101579
6385.202004959961,0.018622469972563133
6385.203004732176,0.018444975335994755
6385.204004504391,0.018266575786409285
6385.205004276607,0.01808729701165142
6385.206004048822,0.017907164710566952
6385.207003821038,0.017726204591386876
6385.208003593253,0.017544442370237865
6385.209003365468,0.01736190376977601
6385.210003137683,0.01717861451794034
6385.2110029098985,0.0169946003468221
6385.212002682114,0.016809886991645106
6385.213002454329,0.016624500189852065
6385.214002226544,0.016438465680291076
6385.215001998759,0.016251809202496158
6385.216001770975,0.01606455649605526
6385.21700154319,0.015876733300059075
6385.218001315406,0.01568836535262389
6385.219001087621,0.015499478390481854
6385.220000859836,0.015310098148632259
6385.221000632051,0.015120250360047893
6385.2220004042665,0.014929960755430814
6385.223000176482,0.01473925506301241
6385.223999948697,0.01454815900839304
6385.224999720912,0.014356698314417037
6385.225999493127,0.014164898701079226
6385.226999265343,0.01397278588545954
6385.227999037558,0.013780385581682578
6385.228998809774,0.013587723500899108
6385.229998581989,0.013394825351286523
6385.230998354204,0.01320171683806514
6385.231998126419,0.013008423663527044
6385.2329978986345,0.012814971527073922
6385.23399767085,0.012621386125260195
6385.234997443065,0.012427693151837517
6385.23599721528,0.01223391829779683
6385.236996987495,0.012040087251404147
6385.237996759711,0.01184622569822652
6385.238996531926,0.011652359321144987
6385.239996304142,0.011458513800351738
6385.240996076356,0.011264714813329193
6385.241995848572,0.01107098803480921
6385.242995620787,0.010877359136711146
6385.2439953930025,0.010683853788058056
6385.244995165218,0.010490497654870787
6385.245994937433,0.010297316400040217
6385.246994709648,0.010104335683178377
6385.247994481863,0.009911581160449578
6385.248994254079,0.009719078484382937
6385.249994026294,0.009526853303667884
6385.25099379851,0.009334931262934196
6385.251993570724,0.009143338002518027
6385.25299334294,0.008952099158215134
6385.253993115155,0.008761240361022262
6385.2549928873705,0.008570787236867427
6385.255992659586,0.008380765406329677
6385.256992431801,0.008191200484348878
6385.257992204016,0.008002118079926105
6385.258991976231,0.007813543795815473
6385.259991748447,0.007625503228208501
6385.260991520662,0.007438021966412385
6385.261991292878,0.007251125592523965
6385.262991065092,0.0070648396811013765
6385.263990837308,0.006879189798835698
6385.264990609523,0.00669420150422514
6385.265990381738,0.006509900347254455
6385.266990153954,0.00632631186908241
6385.267989926168,0.0061434616017402065
6385.268989698384,0.005961375067843726
6385.269989470599,0.005780077780322354
6385.270989242815,0.005599595242167
6385.27198901503,0.0054199529461996035
6385.272988787246,0.005241176374866136
6385.27398855946,0.005063291000054718
6385.274988331676,0.004886322282940129
6385.275988103891,0.004710295673855697
6385.276987876106,0.004535236612193361
6385.277987648322,0.004361170526332669
6385.278987420536,0.004188122833599519
6385.279987192752,0.004016118940255637
6385.280986964967,0.0038451842415199856
6385.281986737183,0.003675344121623501
6385.282986509398,0.003506623953898708
6385.283986281614,0.0033390491009058355
6385.284986053828,0.0031726449145970986
6385.285985826044,0.003007436736520784
6385.286985598259,0.00284344989806671
6385.287985370474,0.0026807097207544664
6385.28898514269,0.0025192415165656346
6385.289984914904,0.002359070588320798
6385.29098468712,0.00220022223010166
6385.291984459335,0.0020427217277179275
6385.292984231551,0.001886594359217838
6385.293984003766,0.0017318653954403634
6385.294983775982,0.0015785601006062687
6385.295983548196,0.0014267037329443932
6385.296983320412,0.0012763215453487843
6385.297983092627,0.0011274387860616682
6385.298982864842,0.0009800806993766945
6385.299982637058,0.0008342725263564442
6385.300982409272,0.0006900395055578157
6385.301982181488,0.0005474068737586061
6385.302981953703,0.0004063998666783371
6385.303981725919,0.0002670437196861415
6385.304981498134,0.00012936366848828647
6385.305981270349,-6.615050212335473e-06
6385.306981042564,-0.00014086719809268617
6385.30798081478,-0.0002733675346302627
6385.308980586995,-0.0004040908165765489
6385.30998035921,-0.0005330117974922095
6385.310980131426,-0.0006601052273534858
6385.31197990364,-0.000785345852239812
6385.312979675856,-0.0009087084141132762
6385.313979448071,-0.001030167650701127
6385.314979220287,-0.001149698295493026
6385.315978992502,-0.0012672750778650853
6385.316978764717,-0.0013828727233428863
6385.317978536932,-0.0014964659540156393
6385.318978309148,-0.0016080294891134001
6385.319978081363,-0.001717538045758894
6385.320977853578,-0.0018249663399050005
6385.321977625794,-0.001930289087468409
6385.322977398008,-0.002033481005669366
6385.323977170224,-0.0021345168145868536
6385.324976942439,-0.0022333712389379385
6385.325976714655,-0.0023300190100894722
6385.32697648687,-0.0024244348683097505
6385.327976259085,-0.0025165935652672177
6385.3289760313,-0.0026064698667828804
6385.329975803516,-0.002694038555842796
6385.330975575731,-0.0027792744358768333
6385.331975347946,-0.0028621523343098734
6385.332975120161,-0.002942647106391623
6385.333974892376,-0.0030207336393112336
6385.334974664592,-0.003096386856602831
6385.335974436807,-0.003169581722847863
6385.336974209023,-0.0032402932486798163
6385.337973981238,-0.0033084964960963478
6385.338973753453,-0.0033741665840832627
6385.339973525668,-0.0034372786945540603
6385.340973297884,-0.003497808078607963
6385.341973070099,-0.00355573006310854
6385.342972842314,-0.003611020057584184
6385.343972614529,-0.0036636535614508856
6385.344972386744,-0.003713606171557013
6385.34597215896,-0.003760853590049051
6385.346971931175,-0.0038053716325566643
6385.347971703391,-0.0038471362366949077
6385.348971475606,-0.0038861234708810473
6385.349971247821,-0.003922309543463231
6385.350971020036,-0.003955670812158221
6385.351970792251,-0.003986183793795518
6385.352970564467,-0.0040138251743654044
6385.353970336682,-0.004038571819368705
6385.354970108897,-0.004060400784466221
6385.355969881112,-0.004079289326425902
6385.356969653328,-0.004095214914365777
6385.357969425543,-0.00410815524129042
6385.358969197759,-0.004118088235918414
6385.359968969974,-0.004124992074797816
6385.360968742189,-0.004128845194706145
6385.361968514404,-0.004129626305330836
6385.362968286619,-0.004127314402225563
6385.363968058835,-0.004121888780037345
6385.36496783105,-0.004113329045998832
6385.365967603265,-0.0041016151336797655
6385.36696737548,-0.004086727316991245
6385.367967147696,-0.004068646224436157
6385.368966919911,-0.004047352853598946
6385.369966692127,-0.0040228285858678525
6385.370966464341,-0.003995055201382783
6385.371966236557,-0.003964014894202124
6385.372966008772,-0.003929690287682032
6385.373965780987,-0.0038920644500619345
6385.374965553203,-0.003851120910250156
6385.375965325418,-0.0038068436738036746
6385.376965097633,-0.0037592172390959145
6385.377964869848,-0.0037082266136662686
6385.378964642064,-0.0036538573307446378
6385.379964414279,-0.0035960954659437798
6385.380964186495,-0.003534927654111682
6385.381963958709,-0.003470341106335588
6385.3829637309245,-0.003402323627088736
6385.38396350314,-0.0033308636315103573
6385.384963275355,-0.0032559501628089864
6385.385963047571,-0.003177572909778744
6385.386962819786,-0.0030957222244178593
6385.387962592001,-0.003010389139638367
6385.388962364216,-0.0029215653870556585
6385.389962136432,-0.002829243414846383
6385.390961908647,-0.0027334164056630962
6385.391961680863,-0.002634078294594084
6385.392961453077,-0.0025312237871568215
6385.3939612252925,-0.0024248483773136012
6385.394960997508,-0.0023149483654979013
6385.395960769723,-0.0022015208766400503
6385.396960541939,-0.0020845638781806807
6385.397960314153,-0.0019640761980602842
6385.398960086369,-0.0018400575426729278
6385.399959858584,-0.001712508514771879
6385.4009596308,-0.0015814306313145351
6385.401959403015,-0.0014468263412336759
6385.402959175231,-0.001308699043121677
6385.403958947445,-0.0011670531028139391
6385.4049587196605,-0.0010218938708574062
6385.405958491876,-0.0008732276998496747
6385.406958264091,-0.0007210619616338603
6385.407958036307,-0.0005654050643340906
6385.408957808521,-0.00040626646921628715
6385.409957580737,-0.00024365670735879616
6385.410957352952,-7.758739611745172e-05
6385.411957125168,9.192874463020728e-05
6385.412956897383,0.00026487787647661894
6385.413956669599,0.0004412450267265858
6385.414956441813,0.0006210140729049613
6385.4159562140285,0.0008041677275441008
6385.416955986244,0.0009906875232655254
6385.417955758459,0.001180553798170348
6385.418955530675,0.0013737456815532004
6385.419955302889,0.0015702410799546683
6385.420955075105,0.0017700166635675222
6385.42195484732,0.001973047853012323
6385.422954619536,0.0021793088064982415
6385.423954391751,0.0023887724073851464
6385.424954163967,0.0026014102521632124
6385.425953936181,0.0028171926388664585
6385.4269537083965,0.003036088555936757
6385.427953480612,0.003258065671554898
6385.428953252827,0.0034830903234552265
6385.429953025043,0.0037111275092401113
6385.430952797257,0.003942140877210115
6385.431952569473,0.004176092717725157
6385.432952341688,0.004412943955111321
6385.433952113904,0.004652654140127245
6385.434951886119,0.004895181443003417
6385.435951658334,0.005140482647067081
6385.436951430549,0.005388513142965011
6385.437951202764,0.005639226923496064
6385.43895097498,0.005892576579065231
6385.439950747195,0.006148513293770747
6385.440950519411,0.006406986842135847
6385.441950291625,0.006667945586496697
6385.442950063841,0.006931336475058004
6385.443949836056,0.007197105040627756
6385.444949608272,0.007465195400042441
6385.445949380487,0.007735550254293931
6385.446949152702,0.008008110889369032
6385.447948924917,0.008282817177812448
6385.448948697132,0.008559607581023587
6385.449948469348,0.0088384191522972
6385.450948241563,0.00911918754061734
6385.451948013779,0.009401846995213467
6385.452947785993,0.009686330370886809
6385.453947558209,0.009972569134114408
6385.454947330424,0.01026049336993762
6385.45594710264,0.010550031789641274
6385.456946874855,0.010841111739229295
6385.45794664707,0.011133659208702336
6385.458946419285,0.011427598842142913
6385.4599461915,0.011722853948613483
6385.460945963716,0.012019346513872917
6385.461945735931,0.012316997212916861
6385.462945508147,0.012615725423347398
6385.463945280361,0.01291544923957741
6385.464945052577,0.013216085487874868
6385.465944824792,0.013517549742252253
6385.466944597008,0.013819756341206139
6385.467944369223,0.014122618405311831
6385.4689441414375,0.014426047855677769
6385.469943913653,0.014729955433264197
6385.470943685868,0.015034250719070146
6385.471943458084,0.0153388421551925
6385.472943230299,0.015643637066760238
6385.473943002514,0.015948541684746517
6385.474942774729,0.01625346116966055
6385.475942546945,0.016558299636120637
6385.47694231916,0.016862960178309128
6385.477942091376,0.017167344896309465
6385.478941863591,0.01747135492332483
6385.4799416358055,0.017774890453777323
6385.480941408021,0.018077850772285877
6385.481941180236,0.018380134283520432
6385.482940952452,0.01868163854292904
6385.483940724667,0.018982260288333816
6385.484940496882,0.019281895472390773
6385.485940269097,0.01958043929590774
6385.486940041313,0.019877786242013702
6385.487939813528,0.02017383011117188
6385.488939585744,0.02046846405702797
6385.489939357959,0.020761580623083795
6385.4909391301735,0.021053071780185492
6385.491938902389,0.02134282896481416
6385.492938674604,0.021630743118165395
6385.49393844682,0.021916704726002885
6385.494938219035,0.022200603859269915
6385.49593799125,0.022482330215441482
6385.496937763465,0.022761773160598565
6385.497937535681,0.023038821772205228
6385.498937307896,0.023313364882568306
6385.499937080112,0.023585291122958728
6385.500936852326,0.023854488968372705
6385.5019366245415,0.024120846782910356
6385.502936396757,0.02438425286574869
6385.503936168972,0.024644595497685298
6385.504935941188,0.02490176298822857
6385.505935713403,0.02515564372320976
6385.506935485618,0.02540612621289171
6385.507935257833,0.025653099140548558
6385.508935030049,0.025896451411490443
6385.509934802264,0.02613607220250652
6385.51093457448,0.026371851011699008
6385.511934346694,0.026603677708680596
6385.5129341189095,0.026831442585106672
6385.513933891125,0.02705503640551352
6385.51493366334,0.02727435045843298
6385.515933435556,0.02748927660775381
6385.516933207771,0.027699707344299735
6385.517932979986,0.027905535837594055
6385.518932752201,0.028106655987780747
6385.519932524417,0.028302962477672087
6385.520932296632,0.028494350824892888
6385.521932068848,0.028680717434091584
6385.522931841062,0.028861959649188473
6385.523931613277,0.02903797580563143
6385.524931385493,0.029208665282629203
6385.525931157708,0.0293739285553324
6385.526930929924,0.02953366724693167
6385.527930702139,0.02968778418064251
6385.528930474354,0.029836183431545274
6385.529930246569,0.029978770378248094
6385.530930018785,0.03011545175433946
6385.531929791,0.03024613569959577
6385.532929563216,0.030370731810907742
6385.53392933543,0.03048915119288773
6385.534929107645,0.030601306508118133
6385.535928879861,0.030707112026999002
6385.536928652076,0.030806483677151
6385.537928424292,0.030899339092327803
6385.538928196506,0.030985597660790114
6385.539927968722,0.031065180573091596
6385.540927740937,0.03113801086922506
6385.541927513153,0.031204013485075576
6385.542927285368,0.0312631152981253
6385.543927057584,0.03131524517235306
6385.544926829798,0.03136033400227017
6385.545926602013,0.03139831475603255
6385.546926374229,0.03142912251756788
6385.547926146444,0.031452694527655436
6385.54892591866,0.03146897022389569
6385.549925690874,0.0314778912795059
6385.55092546309,0.031479401640877584
6385.551925235305,0.03147344756383177
6385.552925007521,0.03145997764850773
6385.553924779736,0.03143894287282162
6385.554924551951,0.03141029662443208
6385.555924324166,0.03137399473115132
6385.556924096381,0.03132999548974195
6385.557923868597,0.0312782596930423
6385.558923640812,0.031218750655365963
6385.559923413028,0.031151434236124403
6385.560923185242,0.031076278861625155
6385.561922957458,0.030993255545001867
6385.562922729673,0.030902337904236275
6385.563922501889,0.03080350217823632
6385.564922274104,0.03069672724093912
6385.565922046319,0.030581994613411927
6385.566921818534,0.03045928847392941
6385.567921590749,0.03032859566601056
6385.568921362965,0.030189905704403743
6385.56992113518,0.0300432107790137
6385.570920907396,0.029888505756769105
6385.57192067961,0.02972578818143429
6385.572920451826,0.02955505827137317
6385.573920224041,0.02937631891527768
6385.5749199962565,0.029189575665877338
6385.575919768472,0.02899483673165067
6385.576919540687,0.028792112966563366
6385.577919312902,0.028581417857862227
6385.578919085117,0.02836276751195825
6385.579918857333,0.028136180638436387
6385.580918629548,0.027901678532233718
6385.581918401764,0.027659285054031632
6385.582918173978,0.02740902660891135
6385.583917946194,0.027150932123325307
6385.584917718409,0.02688503302043976
6385.5859174906245,0.02661136319390666
6385.58691726284,0.026329958980124735
6385.587917035055,0.026040859129051522
6385.58891680727,0.025744104773629376
6385.589916579485,0.025439739397889308
6385.590916351701,0.025127808803797003
6385.591916123916,0.02480836107690543
6385.592915896132,0.024481446550878198
6385.593915668346,0.024147117770947444
6385.594915440562,0.02380542945636941
6385.595915212777,0.023456438461940052
6385.5969149849925,0.023100203738632395
6385.597914757208,0.022736786293416588
6385.598914529423,0.02236624914832305
6385.599914301638,0.02198865729880837
6385.600914073853,0.021604077671482994
6385.601913846069,0.0212125790812592
6385.602913618284,0.020814232187977053
6385.603913390499,0.020409109452565476
6385.604913162714,0.01999728509279466
6385.60591293493,0.019578835038675232
6385.606912707145,0.019153836887558777
6385.6079124793605,0.018722369858993393
6385.608912251576,0.01828451474938699
6385.609912023791,0.017840353886530082
6385.610911796006,0.01738997108402857
6385.611911568221,0.01693345159569586
6385.612911340437,0.016470882069952182
6385.613911112652,0.016002350504277688
6385.614910884867,0.01552794619976425
6385.615910657082,0.015047759715809527
6385.616910429298,0.014561882824995431
6385.617910201513,0.014070408468191756
6385.6189099737285,0.013573430709924422
6385.619909745944,0.013071044694046591
6385.620909518158,0.012563346599749654
6385.621909290374,0.012050433597949802
6385.622909062589,0.011532403808084613
6385.623908834805,0.011009356255352744
6385.62490860702,0.010481390828428316
6385.625908379235,0.00994860823768027
6385.62690815145,0.009411109973925469
6385.627907923666,0.00886899826774286
6385.628907695881,0.008322376049374658
6385.6299074680965,0.00777134690923891
6385.630907240311,0.007216015059076273
6385.631907012526,0.006656485293752085
6385.632906784742,0.006092862953733032
6385.633906556957,0.005525253888255848
6385.634906329173,0.0049537644192036885
6385.635906101388,0.004378501305704004
6385.636905873603,0.003799571709460115
6385.637905645818,0.003217083160827172
6385.638905418034,0.002631143525641788
6385.639905190249,0.0020418609728134075
6385.640904962464,0.0014493439426843022
6385.641904734679,0.0008537011161640632
6385.642904506894,0.00025504138464342525
6385.64390427911,-0.00034652617930872433
6385.644904051325,-0.0009508923504623094
6385.645903823541,-0.0015579477786552185
6385.646903595756,-0.002167583015734009
6385.647903367971,-0.002779688541706774
6385.648903140186,-0.0033941547901101266
6385.649902912402,-0.00401087217259369
6385.650902684617,-0.00462973110272695
6385.651902456832,-0.005250622019034832
6385.652902229047,-0.0058734354072698105
6385.653902001262,-0.0064980618219298
6385.654901773478,-0.0071243919070323415
6385.655901545693,-0.007752316416156845
6385.656901317909,-0.008381726231767667
6385.657901090124,-0.00901251238383174
6385.658900862339,-0.009644566067745258
6385.659900634554,-0.010277778661584637
6385.6609004067695,-0.010912041742697543
6385.661900178985,-0.011547247103650241
6385.6628999512,-0.012183286767547956
6385.663899723415,-0.012820053002745238
6385.66489949563,-0.013457438336963648
6385.665899267846,-0.014095335570834299
6385.666899040061,-0.014733637790883132
6385.667898812277,-0.015372238381977158
6385.668898584491,-0.016011031039250265
6385.669898356707,-0.016649909779527794
6385.670898128922,-0.017288768952269544
6385.6718979011375,-0.017927503250051557
6385.672897673353,-0.01856600771860758
6385.673897445568,-0.019204177766451596
6385.674897217783,-0.01984190917410331
6385.675896989998,-0.020479098102938624
6385.676896762214,-0.021115641103687317
6385.677896534429,-0.021751435124599944
6385.678896306645,-0.022386377519305674
6385.679896078859,-0.023020366054382332
6385.680895851075,-0.023653298916659272
6385.68189562329,-0.024285074720273112
6385.6828953955055,-0.024915592513495465
6385.683895167721,-0.025544751785351167
6385.684894939936,-0.026172452472044614
6385.685894712151,-0.026798594963211214
6385.686894484366,-0.027423080108010076
6385.687894256582,-0.028045809221073442
6385.688894028797,-0.028666684088327683
6385.689893801013,-0.02928560697270003
6385.690893573227,-0.029902480619724694
6385.691893345443,-0.030517208263061688
6385.692893117658,-0.031129693629941127
6385.6938928898735,-0.031739840946545556
6385.694892662089,-0.03234755494334253
6385.695892434304,-0.03295274086037923
6385.696892206519,-0.033555304452550436
6385.697891978734,-0.03415515199485055
6385.69889175095,-0.03475219028761961
6385.699891523165,-0.03534632666179255
6385.700891295381,-0.03593746898415983
6385.701891067595,-0.03652552566264684
6385.702890839811,-0.037110405651618376
6385.703890612026,-0.03769201845721372
6385.7048903842415,-0.03827027414271693
6385.705890156457,-0.03884508333396587
6385.706889928671,-0.03941635722480292
6385.707889700887,-0.03998400758256929
6385.708889473102,-0.040547946753644565
6385.709889245318,-0.04110808766903231
6385.710889017533,-0.0416643438499926
6385.711888789749,-0.04221662941372192
6385.712888561963,-0.042764859079081105
6385.713888334179,-0.04330894817237166
6385.714888106394,-0.043848812633161115
6385.7158878786095,-0.044384369020157716
6385.716887650825,-0.04491553451713451
6385.717887423039,-0.04544222693890277
6385.718887195255,-0.04596436473733404
6385.71988696747,-0.04648186700742987
6385.720886739686,-0.046994653493437705
6385.721886511901,-0.047502644595011016
6385.722886284117,-0.04800576137341118
6385.723886056331,-0.048503925557748045
6385.724885828547,-0.048997059551255676
6385.725885600762,-0.0494850864375995
6385.726885372977,-0.04996792998721065
6385.727885145193,-0.05044551466364285
6385.728884917407,-0.05091776562994732
6385.729884689623,-0.05138460875506084
6385.730884461838,-0.05184597062020237
6385.731884234054,-0.05230177852527377
6385.732884006269,-0.052751960495260625
6385.733883778484,-0.05319644528662946
6385.734883550699,-0.05363516239371828
6385.735883322915,-0.054068042055117504
6385.73688309513,-0.05449501526003897
6385.737882867345,-0.05491601375467112
6385.738882639561,-0.05533097004851839
6385.739882411775,-0.05573981742072351
6385.740882183991,-0.056142489926371435
6385.741881956206,-0.05653892240277412
6385.742881728422,-0.056929050475735495
6385.743881500637,-0.05731281056579633
6385.744881272852,-0.05769013989445888
6385.745881045067,-0.058060976490391845
6385.7468808172825,-0.05842525919561625
6385.747880589498,-0.058782927671673646
6385.748880361713,-0.059133922405778194
6385.749880133929,-0.05947818471695529
6385.750879906143,-0.05981565676216954
6385.751879678359,-0.06014628154244609
6385.752879450574,-0.06047000290898989
6385.75387922279,-0.06078676556930833
6385.754878995005,-0.061096515093343594
6385.75587876722,-0.06139919791962161
6385.756878539435,-0.06169476136142496
6385.7578783116505,-0.06198315361299764
6385.758878083866,-0.062264323755789636
6385.759877856081,-0.0625382217647493
6385.760877628296,-0.06280479851467129
6385.761877400511,-0.0630640057866081
6385.762877172727,-0.06331579627435249
6385.763876944942,-0.06356012359099822
6385.764876717158,-0.06379694227558613
6385.765876489373,-0.06402620779984242
6385.766876261588,-0.0642478765750155
6385.767876033803,-0.06446190595881807
6385.7688758060185,-0.06466825426247984
6385.769875578234,-0.06486688075791713
6385.770875350449,-0.06505774568502481
6385.771875122664,-0.06524081025909614
6385.772874894879,-0.06541603667837613
6385.773874667095,-0.06558338813175384
6385.77487443931,-0.06574282880659907
6385.775874211526,-0.06589432389674871
6385.776873983741,-0.06603783961064791
6385.777873755956,-0.06617334317965068
6385.778873528171,-0.06630080286648397
6385.7798733003865,-0.066420187973879
6385.780873072602,-0.06653146885337263
6385.781872844817,-0.0666346169142811
6385.782872617032,-0.06672960463284733
6385.783872389247,-0.06681640556156254
6385.784872161463,-0.06689499433866178
6385.785871933678,-0.0669653466977923
6385.786871705894,-0.06702743947785306
6385.787871478109,-0.0670812506330023
6385.788871250324,-0.06712675924283032
6385.789871022539,-0.06716394552269302
6385.7908707947545,-0.06719279083420146
6385.79187056697,-0.0672132776958623
6385.792870339185,-0.06722538979386261
6385.7938701114,-0.06722911199299278
6385.794869883615,-0.06722443034769986
6385.795869655831,-0.06721133211326316
6385.796869428046,-0.06718980575708317
6385.797869200262,-0.06715984097007367
6385.798868972476,-0.06712142867814608
6385.799868744692,-0.06707456105377356
6385.800868516907,-0.06701923152762175
6385.8018682891225,-0.06695543480023125
6385.802868061338,-0.06688316685373641
6385.803867833553,-0.0668024249636033
6385.804867605768,-0.06671320771036894
6385.805867377983,-0.0666155149913627
6385.806867150199,-0.06650934803238946
6385.807866922414,-0.066394709399354
6385.80886669463,-0.0662716030098042
6385.809866466844,-0.06614003414437108
6385.81086623906,-0.0660000094580827
6385.811866011275,-0.06585153699152868
6385.81286578349,-0.06569462618185246
6385.813865555706,-0.06552928787354792
6385.814865327921,-0.06535553432903721
6385.815865100136,-0.06517337923900654
6385.816864872351,-0.06498283773247682
6385.817864644567,-0.06478392638658557
6385.818864416782,-0.06457666323605694
6385.819864188998,-0.06436106778233582
6385.820863961212,-0.06413716100236244
6385.821863733428,-0.06390496535696344
6385.822863505643,-0.06366450479883501
6385.823863277858,-0.06341580478009412
6385.824863050074,-0.06315889225937324
6385.825862822288,-0.06289379570843451
6385.826862594504,-0.06262054511827901
6385.827862366719,-0.06233917200472732
6385.828862138935,-0.06204970941344797
6385.82986191115,-0.06175219192441097
6385.830861683366,-0.0614466556557444
6385.83186145558,-0.06113313826697326
6385.832861227796,-0.06081167896162083
6385.833861000011,-0.06048231848915393
6385.834860772226,-0.06014509914625517
6385.835860544442,-0.05980006477740636
6385.836860316656,-0.05944726077476876
6385.837860088872,-0.059086734077347
6385.838859861087,-0.058718533169424846
6385.839859633303,-0.058342708078261606
6385.840859405518,-0.05795931037103953
6385.841859177734,-0.05756839315105287
6385.842858949948,-0.057170011053130486
6385.843858722164,-0.056764220238284945
6385.844858494379,-0.05635107838758153
6385.845858266594,-0.0559306446952221
6385.84685803881,-0.05550297986083945
6385.847857811024,-0.055068146080999074
6385.84885758324,-0.054626207039906574
6385.849857355455,-0.054177227899320224
6385.850857127671,-0.053721275287669665
6385.851856899886,-0.053258417288383285
6385.852856672102,-0.0527887234274283
6385.853856444316,-0.052312264660069066
6385.854856216532,-0.05182911335685082
6385.855855988747,-0.05133934328881739
6385.856855760962,-0.05084302961197254
6385.857855533178,-0.050340248850995924
6385.858855305392,-0.049831078882225634
6385.859855077608,-0.04931559891592026
6385.860854849823,-0.04879388947781407
6385.861854622039,-0.048266032389979806
6385.862854394254,-0.04773211075101418
6385.863854166469,-0.04719220891556201
6385.864853938684,-0.046646412473195224
6385.8658537109,-0.046094808226663946
6385.866853483115,-0.045537484169537075
6385.86785325533,-0.04497452946325077
6385.868853027546,-0.04440603441358363
6385.86985279976,-0.04383209044657805
6385.870852571976,-0.04325279008392819
6385.871852344191,-0.042668226917855476
6385.872852116407,-0.042078495585493564
6385.873851888622,-0.04148369174280518
6385.874851660837,-0.04088391203805421
6385.875851433052,-0.04027925408485691
6385.876851205268,-0.03966981643483647
6385.877850977483,-0.039055698549905586
6385.878850749698,-0.038437000774201736
6385.879850521914,-0.03781382430570007
6385.880850294128,-0.03718627116752848
6385.881850066344,-0.036554444179009556
6385.882849838559,-0.0359184469264539
6385.883849610775,-0.03527838373372884
6385.88484938299,-0.034634359632626704
6385.885849155205,-0.033986480333056235
6385.88684892742,-0.03333485219308057
6385.887848699636,-0.03267958218882488
6385.888848471851,-0.032020777884276486
6385.889848244066,-0.03135854740100006
6385.890848016281,-0.03069299938779037
6385.891847788496,-0.030024242990285086
6385.892847560712,-0.02935238782056004
6385.893847332927,-0.02867754392672957
6385.894847105143,-0.02799982176257441
6385.895846877358,-0.02731933215721962
6385.896846649573,-0.02663618628488488
6385.897846421788,-0.025950495634728923
6385.898846194003,-0.025262371980809526
6385.899845966219,-0.024571927352179678
6385.900845738434,-0.02387927400313985
6385.901845510649,-0.023184524383665393
6385.902845282864,-0.02248779111002726
6385.90384505508,-0.021789186935623307
6385.904844827295,-0.021088824722036572
6385.905844599511,-0.020386817410336266
6385.906844371726,-0.019683277992636146
6385.907844143941,-0.018978319483924498
6385.908843916156,-0.018272054894179136
6385.909843688371,-0.017564597200780258
6385.910843460587,-0.01685605932123355
6385.911843232802,-0.016146554086215605
6385.912843005017,-0.01543619421295336
6385.913842777232,-0.014725092278949166
6385.914842549448,-0.014013360696062745
6385.915842321663,-0.013301111684960976
6385.916842093879,-0.012588457249946037
6385.917841866094,-0.011875509154171822
6385.918841638309,-0.011162378895257865
6385.919841410524,-0.01044917768130924
6385.920841182739,-0.009736016407350102
6385.921840954955,-0.009023005632177672
6385.92284072717,-0.00831025555564279
6385.923840499385,-0.007597875996362342
6385.9248402716,-0.006885976369868172
6385.925840043816,-0.006174665667196284
6385.926839816031,-0.005464052433919435
6385.927839588247,-0.0047542447496253465
6385.928839360461,-0.004045350207842032
6385.9298391326765,-0.0033374758964109567
6385.930838904892,-0.002630728378308117
6385.931838677107,-0.0019252136729125326
6385.932838449323,-0.001221037237721166
6385.933838221538,-0.0005183039505089193
6385.934837993753,0.00018288190806797365
6385.935837765968,0.000882416671427065
6385.936837538184,0.0015801973035754438
6385.937837310399,0.00227612141518845
6385.938837082615,0.0029700872792539196
6385.939836854829,0.0036619938462848366
6385.9408366270445,0.004351740759103594
6385.94183639926,0.00503922836720146
6385.942836171475,0.005724357740677202
6385.943835943691,0.0064070306837591675
6385.944835715906,0.007087149747915428
6385.945835488121,0.007764618244556828
6385.946835260336,0.008439340257337915
6385.947835032552,0.009111220654060835
6385.948834804767,0.009780165098187221
6385.949834576983,0.010446080059962943
6385.950834349197,0.011108872827160337
6385.9518341214125,0.011768451515442173
6385.952833893628,0.012424725078351153
6385.953833665843,0.01307760331692834
6385.954833438059,0.01372699688896343
6385.955833210273,0.01437281731787945
6385.956832982489,0.015014977001254148
6385.957832754704,0.015653389218980192
6385.95883252692,0.016287968141066214
6385.959832299135,0.016918628835080836
6385.960832071351,0.01754528727324197
6385.961831843565,0.018167860339153918
6385.9628316157805,0.01878626583419497
6385.963831387996,0.019400422483558607
6385.964831160211,0.020010249941951466
6385.965830932427,0.020615668798951502
6385.966830704641,0.021216600584029997
6385.967830476857,0.021812967771241164
6385.968830249072,0.022404693783583292
6385.969830021288,0.022991702997035166
6385.970829793503,0.023573920744271434
6385.971829565719,0.024151273318060284
6385.972829337933,0.024723687974346306
6385.9738291101485,0.0252910929350211
6385.974828882364,0.02585341739038367
6385.975828654579,0.02641059150129236
6385.976828426795,0.026962546401009948
6385.977828199009,0.02750921419674343
6385.978827971225,0.028050527970880115
6385.97982774344,0.028586421781921924
6385.980827515656,0.02911683066512012
6385.981827287871,0.029641690632812922
6385.982827060087,0.03016093867446903
6385.983826832301,0.030674512756440238
6385.9848266045165,0.031182351821426774
6385.985826376732,0.031684395787659234
6385.986826148947,0.032180585547801184
6385.987825921163,0.03267086296757675
6385.988825693377,0.0331551708841274
6385.989825465593,0.03363345310410234
6385.990825237808,0.03410565440148675
6385.991825010024,0.034571720515171975
6385.992824782239,0.03503159814627141
6385.993824554454,0.03548523495518586
6385.994824326669,0.03593257955842176
6385.995824098884,0.03637358152516583
6385.9968238711,0.03680819137361962
6385.997823643315,0.03723636056709773
6385.998823415531,0.037658041509893846
6385.999823187745,0.03807318754291897
6386.000822959961,0.038481752939117146
6386.001822732176,0.03888369289866405
6386.002822504392,0.03927896354395473
6386.003822276607,0.039667521914387265
6386.004822048822,0.04004932596094978
6386.005821821037,0.04042433454061846
6386.006821593252,0.040792507410574975
6386.007821365468,0.041153805222251955
6386.008821137683,0.041508189515215246
6386.009820909899,0.04185562271089199
6386.010820682113,0.042196068106153437
6386.011820454329,0.0425294898667614
6386.012820226544,0.042855853020687125
6386.01381999876,0.04317512345131109
6386.014819770975,0.04348726789051234
6386.0158195431895,0.04379225391165577
6386.016819315405,0.04409004992248595
6386.01781908762,0.044380625157936275
6386.018818859836,0.044663949672862704
6386.019818632051,0.04493999433471166
6386.020818404266,0.045208730816132116
6386.021818176481,0.04547013158754265
6386.022817948697,0.04572416990966488
6386.023817720912,0.04597081982603507
6386.024817493128,0.046210056155506544
6386.025817265343,0.04644185448475595
6386.0268170375575,0.04666619116080665
6386.027816809773,0.04688304328358298
6386.028816581988,0.04709238869850885
6386.029816354204,0.04729420598916447
6386.030816126419,0.04748847447001475
6386.031815898634,0.047675174179222325
6386.032815670849,0.04785428587155837
6386.033815443065,0.048025791011423874
6386.03481521528,0.048189671765993806
6386.035814987496,0.048345910998496715
6386.036814759711,0.04849449226164227
6386.0378145319255,0.04863539979120935
6386.038814304141,0.048768618499807605
6386.039814076356,0.04889413397082549
6386.040813848572,0.0490119324525781
6386.041813620787,0.04912200085266828
6386.042813393002,0.04922432673257436
6386.043813165217,0.04931889830247779
6386.044812937433,0.049405704416343746
6386.045812709648,0.04948473456726743
6386.046812481864,0.049555978883098456
6386.047812254079,0.0496194281223552
6386.0488120262935,0.04967507367044068
6386.049811798509,0.04972290753617061
6386.050811570724,0.049762922348623784
6386.05181134294,0.049795111354323913
6386.052811115155,0.04981946841476088
6386.05381088737,0.049835988004258355
6386.054810659585,0.0498446652081937
6386.055810431801,0.049845495721574755
6386.056810204016,0.04983847584797733
6386.057809976232,0.04982360249884632
6386.058809748446,0.049800873193162364
6386.0598095206615,0.04977028605747567
6386.060809292877,0.04973183982630792
6386.061809065092,0.04968553384292255
6386.062808837308,0.049631368060463386
6386.063808609523,0.04956934304346109
6386.064808381738,0.04949945996970634
6386.065808153953,0.049421720632488265
6386.066807926169,0.0493361274431963
6386.067807698384,0.049242683434282994
6386.0688074706,0.04914139226258541
6386.069807242814,0.049032258213002035
6386.0708070150295,0.04891528620252194
6386.071806787245,0.048790481784602505
6386.07280655946,0.048657851153891644
6386.073806331676,0.048517401151290156
6386.074806103891,0.04836913926934945
6386.075805876106,0.048213073657999504
6386.076805648321,0.04804921313060202
6386.077805420537,0.04787756717032348
6386.078805192752,0.047698145936823054
6386.079804964968,0.047510960273250503
6386.080804737182,0.04731602171354955
6386.081804509397,0.047113342490062486
6386.082804281613,0.0469029355414323
6386.083804053828,0.04668481452079906
6386.084803826044,0.046458993804287675
6386.085803598258,0.04622548849978476
6386.086803370474,0.045984314456002456
6386.087803142689,0.04573548827182757
6386.088802914905,0.045479027305954746
6386.08980268712,0.0452149496868024
6386.090802459336,0.04494327432271031
6386.09180223155,0.044664020912417654
6386.092802003765,0.044377209955820084
6386.093801775981,0.044082862765004116
6386.094801548196,0.04378100147555678
6386.095801320412,0.04347164905814838
6386.096801092626,0.043154829330385565
6386.097800864842,0.04283056696893212
6386.098800637057,0.04249888752189489
6386.099800409273,0.04215981742147214
6386.100800181488,0.04181338399686188
6386.101799953703,0.041459615487427735
6386.102799725918,0.041098541056120125
6386.103799498133,0.04073019080315043
6386.104799270349,0.04035459577991587
6386.105799042564,0.03997178800317268
6386.10679881478,0.039581800469455086
6386.107798586994,0.039184667169737335
6386.10879835921,0.03878042310433564
6386.109798131425,0.038369104298046526
6386.110797903641,0.03795074781551748
6386.111797675856,0.03752539177684511
6386.112797448071,0.037093075373395186
6386.113797220286,0.03665383888383822
6386.114796992501,0.036207723690393004
6386.115796764717,0.0357547722952703
6386.116796536932,0.035295028337307875
6386.117796309148,0.03482853660878764
6386.118796081362,0.034355343072425375
6386.119795853578,0.033875494878523066
6386.120795625793,0.033389040382273444
6386.1217953980085,0.032896029161206285
6386.122795170224,0.0323965120327653
6386.123794942439,0.03189054107200447
6386.124794714654,0.03137816962939204
6386.125794486869,0.030859452348709994
6386.126794259085,0.030334445185036554
6386.1277940313,0.0298032054227986
6386.128793803516,0.02926579169388009
6386.12979357573,0.028722263995772
6386.130793347946,0.02817268370974817
6386.131793120161,0.027617113619050556
6386.1327928923765,0.02705561792706589
6386.133792664592,0.026488262275474874
6386.134792436807,0.025915113762353777
6386.135792209022,0.025336240960207444
6386.136791981237,0.02475171393391178
6386.137791753453,0.024161604258543228
6386.138791525668,0.02356598503707209
6386.139791297884,0.022964930917896025
6386.140791070098,0.02235851811218956
6386.141790842314,0.02174682441104483
6386.142790614529,0.021129929202378293
6386.1437903867445,0.02050791348757771
6386.14479015896,0.019880859897863153
6386.145789931175,0.01924885271033553
6386.14678970339,0.018611977863685722
6386.147789475605,0.017970322973537112
6386.148789247821,0.01732397734739396
6386.149789020036,0.016673031999167743
6386.150788792251,0.016017579663253043
6386.151788564466,0.015357714808124168
6386.152788336682,0.014693533649423149
6386.153788108897,0.014025134162509393
6386.1547878811125,0.013352616094440871
6386.155787653328,0.012676080975356739
6386.156787425543,0.01199563212923138
6386.157787197758,0.01131137468397031
6386.158786969973,0.010623415580818932
6386.159786742189,0.009931863583055905
6386.160786514404,0.009236829283943721
6386.161786286619,0.008538425113909877
6386.162786058834,0.007836765346932862
6386.16378583105,0.007131966106107987
6386.164785603265,0.0064241453683688155
6386.1657853754805,0.0057134229683407835
6386.166785147696,0.004999920601304417
6386.16778491991,0.004283761825246447
6386.168784692126,0.0035650720619780575
6386.169784464341,0.002843978597300358
6386.170784236557,0.0021206105801980166
6386.171784008772,0.001395099021042755
6386.172783780987,0.0006675767887891278
6386.173783553202,-6.182139285428464e-05
6386.174783325418,-0.000792958950294413
6386.175783097633,-0.0015256974659792815
6386.1767828698485,-0.002259896685393987
6386.177782642064,-0.0029954145251402733
6386.178782414278,-0.0037321070821116054
6386.179782186494,-0.004469828643774244
6386.180781958709,-0.005208431699563369
6386.181781730925,-0.005947766953401865
6386.18278150314,-0.006687683337347981
6386.183781275355,-0.0074280280263767495
6386.18478104757,-0.008168646454298883
6386.185780819786,-0.008909382330819771
6386.186780592001,-0.009650077659740226
6386.187780364216,-0.010390572758299745
6386.188780136431,-0.011130706277662234
6386.189779908646,-0.011870315224543432
6386.190779680862,-0.012609234983978727
6386.191779453077,-0.01334729934322966
6386.192779225293,-0.014084340516827191
6386.193778997508,-0.014820189172749671
6386.194778769723,-0.015554674459733334
6386.195778541938,-0.016287624035712957
6386.196778314154,-0.01701886409739013
6386.197778086369,-0.017748219410926244
6386.198777858584,-0.01847551334375677
6386.199777630799,-0.019200567897522905
6386.200777403014,-0.019923203742115918
6386.20177717523,-0.020643240250828837
6386.202776947445,-0.021360495536609334
6386.203776719661,-0.022074786489406976
6386.204776491876,-0.022785928814607295
6386.205776264091,-0.023493737072544582
6386.206776036306,-0.024198024719084894
6386.207775808522,-0.02489860414727023
6386.208775580737,-0.025595286730014714
6386.209775352952,-0.026287882863843336
6386.210775125167,-0.026976202013663856
6386.211774897382,-0.027660052758562495
6386.212774669598,-0.028339242838614335
6386.213774441813,-0.029013579202699553
6386.214774214029,-0.02968286805731696
6386.215773986243,-0.030346914916386844
6386.216773758459,-0.031005524652035363
6386.217773530674,-0.031658501546353135
6386.2187733028895,-0.03230564934412087
6386.219773075105,-0.032946771306494836
6386.22077284732,-0.03358167026564513
6386.221772619535,-0.034210148680339454
6386.22277239175,-0.03483200869246535
6386.223772163966,-0.03544705218448381
6386.224771936181,-0.036055080837807604
6386.225771708397,-0.036655896192098
6386.226771480611,-0.037249299705474234
6386.227771252827,-0.03783509281563089
6386.228771025042,-0.038413077001859114
6386.2297707972575,-0.03898305384796895
6386.230770569473,-0.03954482510611125
6386.231770341688,-0.040098192761499146
6386.232770113903,-0.0406429590980305
6386.233769886118,-0.04117892676481434
6386.234769658334,-0.04170589884360592
6386.235769430549,-0.04222367891715642
6386.236769202765,-0.042732071138484894
6386.237768974979,-0.04323088030108103
6386.238768747195,-0.04371991191004818
6386.23976851941,-0.044198972254196556
6386.2407682916255,-0.0446678684790962
6386.241768063841,-0.04512640866109916
6386.242767836056,-0.04557440188233914
6386.243767608271,-0.04601165830671601
6386.244767380486,-0.046437989256871016
6386.245767152702,-0.04685320729215713
6386.246766924917,-0.04725712628760719
6386.247766697133,-0.04764956151390038
6386.248766469347,-0.048030329718325694
6386.249766241563,-0.04839924920673874
6386.250766013778,-0.04875613992650597
6386.2517657859935,-0.0491008235504281
6386.252765558209,-0.04943312356163216
6386.253765330423,-0.04975286533941935
6386.254765102639,-0.05005987624605287
6386.255764874854,-0.05035398571446741
6386.25676464707,-0.05063502533687892
6386.257764419285,-0.05090282895427019
6386.258764191501,-0.05115723274672431
6386.259763963715,-0.05139807532457446
6386.260763735931,-0.051625197820334465
6386.261763508146,-0.05183844398137069
6386.2627632803615,-0.05203766026327134
6386.263763052577,-0.052222695923864845
6386.264762824791,-0.05239340311783478
6386.265762597007,-0.0525496369918742
6386.266762369222,-0.05269125578031805
6386.267762141438,-0.05281812090118815
6386.268761913653,-0.05293009705258099
6386.269761685869,-0.053027052309324973
6386.270761458083,-0.05310885821982954
6386.271761230299,-0.05317538990304531
6386.272761002514,-0.053226526145450925
6386.273760774729,-0.05326214949797873
6386.274760546945,-0.05328214637278845
6386.275760319159,-0.05328640713979525
6386.276760091375,-0.05327482622285534
6386.27775986359,-0.05324730219550958
6386.278759635806,-0.05320373787618319
6386.279759408021,-0.053144040422737036
6386.280759180236,-0.05306812142626367
6386.281758952451,-0.052975897004019216
6386.282758724667,-0.052867287891380184
6386.283758496882,-0.05274221953271269
6386.284758269097,-0.05260062217103983
6386.285758041313,-0.05244243093639194
6386.286757813527,-0.05226758593272373
6386.287757585743,-0.05207603232328091
6386.288757357958,-0.05186772041429928
6386.289757130174,-0.05164260573691873
6386.290756902389,-0.05140064912719505
6386.291756674604,-0.05114181680409313
6386.292756446819,-0.05086608044534579
6386.293756219035,-0.05057341726106402
6386.29475599125,-0.05026381006498545
6386.295755763465,-0.049937247343249315
6386.296755535681,-0.04959372332058797
6386.297755307895,-0.04923323802382623
6386.298755080111,-0.048855797342581754
6386.299754852326,-0.04846141308706154
6386.300754624542,-0.04805010304285138
6386.301754396757,-0.0476218910225973
6386.302754168972,-0.0471768069144801
6386.303753941187,-0.046714886727386454
6386.3047537134025,-0.04623617263268251
6386.305753485618,-0.04574071300249865
6386.306753257833,-0.045228562444436925
6386.307753030049,-0.04469978183261591
6386.308752802263,-0.044154438334971194
6386.309752574479,-0.043592605436733746
6386.310752346694,-0.04301436296001221
6386.31175211891,-0.04241979707941042
6386.312751891125,-0.0418090003336156
6386.31375166334,-0.041182071632898144
6386.314751435555,-0.04053911626246906
6386.3157512077705,-0.03988024588164624
6386.316750979986,-0.03920557851878571
6386.317750752201,-0.038515238561939315
6386.318750524416,-0.037809356745205115
6386.319750296631,-0.037088070130741675
6386.320750068847,-0.03635152208642279
6386.321749841062,-0.035599862259113886
6386.322749613278,-0.034833246543556635
6386.323749385493,-0.03405183704685344
6386.324749157708,-0.03325580204854842
6386.325748929923,-0.03244531595630684
6386.3267487021385,-0.0316205592571997
6386.327748474354,-0.030781718464605735
6386.328748246569,-0.029928986060747998
6386.329748018784,-0.0290625604348875
6386.330747790999,-0.028182645817201795
6386.331747563215,-0.027289452208381654
6386.33274733543,-0.026383195304984328
6386.333747107646,-0.02546409642058709
6386.334746879861,-0.02453238240279001
6386.335746652076,-0.02358828554612167
6386.336746424291,-0.022632043500906536
6386.3377461965065,-0.02166389917815709
6386.338745968722,-0.020684100650558212
6386.339745740937,-0.019692901049615786
6386.340745513152,-0.018690558459045544
6386.341745285367,-0.017677335804482414
6386.342745057583,-0.016653500739594963
6386.343744829798,-0.01561932552869375
6386.344744602014,-0.014575086925926914
6386.345744374228,-0.013521066051160883
6386.346744146444,-0.012457548262648598
6386.347743918659,-0.011384823026592498
6386.3487436908745,-0.010303183783714184
6386.34974346309,-0.009212927812947658
6386.350743235305,-0.008114356092377891
6386.35174300752,-0.007007773157551521
6386.352742779735,-0.005893486957291494
6386.353742551951,-0.0047718087071526045
6386.354742324166,-0.0036430527406600553
6386.355742096382,-0.002507536358478293
6386.356741868596,-0.0013655796756623976
6386.357741640812,-0.00021750546714913602
6386.358741413027,0.0009363609883506493
6386.3597411852425,0.00209569206589238
6386.360740957458,0.003260157953100886
6386.361740729673,0.004429426810062722
6386.362740501888,0.005603164930130526
6386.363740274103,0.006781036901459072
6386.364740046319,0.007962705769089683
6386.365739818534,0.009147833197397143
6386.36673959075,0.010336079632711036
6386.367739362964,0.011527104465921801
6386.36873913518,0.012720566194880592
6386.369738907395,0.0139161225864014
6386.37073867961,0.015113430837673863
6386.371738451826,0.01631214773689573
6386.372738224041,0.017511929822935188
6386.373737996256,0.01871243354383534
6386.374737768471,0.0199133154139759
6386.375737540687,0.021114232169710895
6386.376737312902,0.022314840923305577
6386.377737085118,0.023514799315001274
6386.378736857332,0.02471376566304303
6386.379736629548,0.025911399111511666
6386.380736401763,0.027107359775809445
6386.381736173978,0.028301308885656476
6386.382735946194,0.02949290892546347
6386.383735718408,0.030681823771955778
6386.384735490624,0.031867718828933175
6386.385735262839,0.03305026115906019
6386.386735035055,0.034229119612592354
6386.38773480727,0.035403964952954316
6386.388734579486,0.03657446997909688
6386.3897343517,0.03774030964457048
6386.390734123916,0.0389011611732632
6386.391733896131,0.04005670417176159
6386.392733668346,0.04120662073830238
6386.393733440562,0.04235059556829258
6386.394733212776,0.04348831605638455
6386.395732984992,0.0446194723951015
6386.396732757207,0.04574375767001736
6386.397732529423,0.046860867951503286
6386.398732301638,0.047970502383061546
6386.399732073854,0.04907236326627527
6386.400731846068,0.050166156142410635
6386.401731618284,0.05125158987071492
6386.402731390499,0.052328376703461056
6386.403731162714,0.05339623235779543
6386.40473093493,0.05445487608445148
6386.405730707144,0.055504030733396624
6386.40673047936,0.05654342281648449
6386.407730251575,0.05757278256718853
6386.408730023791,0.05859184399749622
6386.409729796006,0.05960034495204561
6386.410729568221,0.06059802715958873
6386.411729340436,0.06158463628186772
6386.412729112652,0.06255992195999102
6386.413728884867,0.06352363785839783
6386.414728657082,0.0644755417064998
6386.415728429298,0.06541539533808902
6386.416728201512,0.06634296472860172
6386.417727973728,0.06725802003032708
6386.418727745943,0.06816033560564982
6386.419727518159,0.06904969005841559
6386.420727290374,0.06992586626350655
6386.421727062589,0.07078865139471466
6386.422726834804,0.07163783695099812
6386.42372660702,0.0724732187812058
6386.424726379235,0.07329459710735188
6386.42572615145,0.07410177654652172
6386.426725923666,0.07489456613148715
6386.42772569588,0.07567277933010699
6386.428725468096,0.07643623406358598
6386.429725240311,0.07718475272366172
6386.430725012527,0.07791816218878664
6386.431724784742,0.07863629383936753
6386.432724556957,0.07933898357212268
6386.433724329172,0.0800260718136119
6386.434724101388,0.08069740353299129
6386.435723873603,0.08135282825404086
6386.436723645818,0.08199220006650894
6386.437723418034,0.08261537763681405
6386.438723190248,0.08322222421814109
6386.439722962464,0.08381260765996505
6386.440722734679,0.08438640041703212
6386.441722506895,0.08494347955782425
6386.44272227911,0.08548372677252997
6386.443722051325,0.08600702838054014
6386.44472182354,0.0865132753374841
6386.445721595756,0.08700236324181823
6386.446721367971,0.0874741923409756
6386.447721140186,0.08792866753708208
6386.448720912401,0.08836569839224166
6386.449720684616,0.08878519913339013
6386.450720456832,0.08918708865671288
6386.451720229047,0.08957129053162043
6386.452720001263,0.08993773300427133
6386.453719773478,0.09028634900062964
6386.454719545693,0.09061707612904189
6386.455719317908,0.09092985668231506
6386.456719090123,0.09122463763927544
6386.457718862339,0.09150137066578568
6386.458718634554,0.09176001211519523
6386.459718406769,0.09200052302819807
6386.460718178984,0.09222286913206952
6386.4617179512,0.09242702083925307
6386.462717723415,0.09261295324526624
6386.463717495631,0.09278064612589443
6386.464717267846,0.09293008393363995
6386.465717040061,0.09306125579339321
6386.466716812276,0.09317415549729213
6386.467716584491,0.09326878149873538
6386.468716356707,0.0933451369055142
6386.469716128922,0.09340322947202727
6386.470715901137,0.09344307159054258
6386.471715673352,0.09346468028146962
6386.472715445568,0.09346807718260483
6386.473715217783,0.09345328853731333
6386.474714989999,0.09342034518160981
6386.475714762213,0.0933692825301021
6386.4767145344285,0.09330014056076069
6386.477714306644,0.09321296379847914
6386.478714078859,0.09310780129739048
6386.479713851075,0.09298470662190646
6386.48071362329,0.09284373782644756
6386.481713395505,0.09268495743383312
6386.48271316772,0.0925084324123029
6386.483712939936,0.09231423415114282
6386.484712712151,0.0921024384348895
6386.485712484367,0.09187312541608994
6386.486712256581,0.09162637958659486
6386.4877120287965,0.09136228974736546
6386.488711801012,0.09108094897677595
6386.489711573227,0.09078245459739559
6386.490711345443,0.0904669081412361
6386.491711117658,0.09013441531345265
6386.492710889873,0.08978508595448785
6386.493710662088,0.08941903400065092
6386.494710434304,0.08903637744312584
6386.495710206519,0.08863723828540516
6386.496709978735,0.0882217424991479
6386.497709750949,0.08779001997846321
6386.4987095231645,0.08734220449262423
6386.49970929538,0.08687843363721884
6386.500709067595,0.08639884878374783
6386.501708839811,0.0859035950276832
6386.502708612026,0.08539282113500292
6386.503708384241,0.08486667948722071
6386.504708156456,0.08432532602493223
6386.505707928672,0.08376892018990192
6386.506707700887,0.08319762486571712
6386.507707473103,0.08261160631703861
6386.508707245317,0.08201103412747916
6386.5097070175325,0.08139608113614398
6386.510706789748,0.08076692337286887
6386.511706561963,0.0801237399921942
6386.512706334179,0.07946671320611429
6386.513706106393,0.07879602821564355
6386.514705878609,0.07811187314124235
6386.515705650824,0.07741443895214661
6386.51670542304,0.0767039193946468
6386.517705195255,0.07598051091936295
6386.518704967471,0.07524441260756383
6386.519704739685,0.07449582609657938
6386.5207045119005,0.07373495550435721
6386.521704284116,0.07296200735321501
6386.522704056331,0.07217719049284226
6386.523703828547,0.07138071602260572
6386.524703600761,0.07057279721321476
6386.525703372977,0.06975364942780327
6386.526703145192,0.0689234900424863
6386.527702917408,0.06808253836645019
6386.528702689623,0.06723101556163605
6386.529702461839,0.06636914456207643
6386.530702234053,0.06549714999294609
6386.5317020062685,0.06461525808938715
6386.532701778484,0.06372369661516936
6386.533701550699,0.0628226947812452
6386.534701322915,0.06191248316425955
6386.535701095129,0.060993293625072435
6386.536700867345,0.06006535922735327
6386.53770063956,0.05912891415630317
6386.538700411776,0.05818419363756183
6386.539700183991,0.057231433856353695
6386.540699956206,0.056270871876927406
6386.541699728421,0.05530274556234114
6386.542699500636,0.05432729349464502
6386.543699272852,0.05334475489551049
6386.544699045067,0.052355369547355146
6386.545698817283,0.0513593777150098
6386.546698589497,0.05035702006797355
6386.547698361713,0.04934853760330064
6386.548698133928,0.04833417156916156
6386.549697906144,0.04731416338911903
6386.550697678359,0.04628875458715786
6386.551697450574,0.04525818671350567
6386.552697222789,0.04422270127127958
6386.553696995004,0.043182539643992074
6386.55469676722,0.04213794302394694
6386.555696539435,0.04108915234155387
6386.556696311651,0.04003640819558835
6386.557696083865,0.03897995078442061
6386.558695856081,0.03792001983823546
6386.559695628296,0.03685685455226209
6386.560695400512,0.03579069352103093
6386.561695172727,0.03472177467367209
6386.5626949449415,0.0336503352102678
6386.563694717157,0.03257661153926914
6386.564694489372,0.03150083921598477
6386.565694261588,0.030423252882147547
6386.566694033803,0.029344086206562748
6386.567693806019,0.028263571826839178
6386.568693578233,0.02718194129220255
6386.569693350449,0.026099425007388332
6386.570693122664,0.025016252177608982
6386.57169289488,0.023932650754588745
6386.572692667095,0.022848847383657025
6386.5736924393095,0.021765067351889707
6386.574692211525,0.02068153453728618
6386.57569198374,0.019598471358968524
6386.576691755956,0.018516098728388157
6386.577691528171,0.01743463600152428
6386.578691300386,0.01635430093205797
6386.579691072601,0.015275309625505287
6386.580690844817,0.01419787649429263
6386.581690617032,0.013122214213757508
6386.582690389248,0.012048533679057982
6386.583690161463,0.010977043962974211
6386.5846899336775,0.009907952274585803
6386.585689705893,0.008841463918808929
6386.586689478108,0.007777782256777598
6386.587689250324,0.006717108667053913
6386.588689022539,0.005659642507652692
6386.589688794754,0.004605581078866358
6386.590688566969,0.003555119586876611
6386.591688339185,0.002508451108139965
6386.5926881114,0.0014657665545348146
6386.593687883616,0.0004272546392582985
6386.594687655831,-0.0006068981565381533
6386.5956874280455,-0.0016365076163849823
6386.596687200261,-0.0026613918204119636
6386.597686972476,-0.0036813711765556574
6386.598686744692,-0.004696268451064566
6386.599686516907,-0.005705908798308691
6386.600686289122,-0.006710119789899152
6386.601686061337,-0.007708731443122466
6386.602685833553,-0.008701576248693048
6386.603685605768,-0.009688489197826463
6386.604685377984,-0.01066930780863495
6386.605685150198,-0.011643872151845744
6386.6066849224135,-0.012612024875841895
6386.607684694629,-0.013573611231024437
6386.608684466844,-0.014528479093494168
6386.60968423906,-0.015476478988050721
6386.610684011275,-0.01641746411050626
6386.61168378349,-0.01735129034931086
6386.612683555705,-0.018277816306486526
6386.613683327921,-0.01919690331786677
6386.614683100136,-0.02010841547263875
6386.615682872352,-0.0210122196321852
6386.616682644566,-0.02190818544822344
6386.6176824167815,-0.022796185380238955
6386.618682188997,-0.02367609471221085
6386.619681961212,-0.024547791568626683
6386.620681733428,-0.025411156929783622
6386.621681505643,-0.02626607464637269
6386.622681277858,-0.027112431453342183
6386.623681050073,-0.027950116983035966
6386.624680822289,-0.028779023777601692
6386.625680594504,-0.02959904730066358
6386.62668036672,-0.030410085948253878
6386.627680138934,-0.031212041058996845
6386.628679911149,-0.032004816923538855
6386.629679683365,-0.03278832079321806
6386.63067945558,-0.03356246288796703
6386.631679227796,-0.03432715640344172
6386.632679000011,-0.03508231751737047
6386.633678772226,-0.03582786539511628
6386.634678544441,-0.03656372219444633
6386.635678316657,-0.0372898130695024
6386.636678088872,-0.03800606617396641
6386.637677861088,-0.03871241266341499
6386.638677633302,-0.03940878669685758
6386.639677405517,-0.040095125437452105
6386.640677177733,-0.04077136905239272
6386.641676949948,-0.04143746071196362
6386.642676722164,-0.04209334658775317
6386.643676494378,-0.04273897585002217
6386.644676266594,-0.04337430066422026
6386.645676038809,-0.04399927618664412
6386.646675811025,-0.04461386055923142
6386.64767558324,-0.04521801490348432
6386.648675355455,-0.045811703313516645
6386.64967512767,-0.04639489284821906
6386.650674899885,-0.0469675535225369
6386.651674672101,-0.04752965829785586
6386.652674444316,-0.04808118307149121
6386.653674216532,-0.04862210666527706
6386.654673988746,-0.04915241081325261
6386.655673760962,-0.04967208014844293
6386.656673533177,-0.05018110218873286
6386.657673305393,-0.050679467321833066
6386.658673077608,-0.051167168789337684
6386.659672849823,-0.051644202669873795
6386.660672622038,-0.0521105678613434
6386.661672394253,-0.05256626606225896
6386.662672166469,-0.05301130175217403
6386.663671938684,-0.05344568217121133
6386.6646717109,-0.05386941729869074
6386.665671483114,-0.05428251983086046
6386.66667125533,-0.054685005157735236
6386.667671027545,-0.05507689133904638
6386.668670799761,-0.055458199079308886
6386.669670571976,-0.05582895170201208
6386.670670344191,-0.05618917512294089
6386.671670116406,-0.056538897822636186
6386.672669888621,-0.05687815081800357
6386.673669660837,-0.05720696763308101
6386.674669433052,-0.057525384268976985
6386.675669205268,-0.057833439172991684
6386.676668977482,-0.05813117320693461
6386.677668749698,-0.05841862961465311
6386.678668521913,-0.05869585398878666
6386.6796682941285,-0.05896289423676262
6386.680668066344,-0.05921980054604976
6386.681667838559,-0.05946662534868636
6386.682667610774,-0.05970342328510009
6386.683667382989,-0.05993025116723748
6386.684667155205,-0.06014716794102127
6386.68566692742,-0.0603542346481543
6386.686666699636,-0.06055151438728933
6386.68766647185,-0.06073907227458455
6386.688666244066,-0.06091697540366519
6386.689666016281,-0.06108529280501242
6386.6906657884965,-0.06124409540480082
6386.691665560712,-0.06139345598320714
6386.692665332927,-0.06153344913221305
6386.693665105142,-0.06166415121292568
6386.694664877357,-0.06178564031243988
6386.695664649573,-0.06189799620026669
6386.696664421788,-0.06200130028435257
6386.697664194004,-0.0620956355667143
6386.698663966218,-0.06218108659871424
6386.699663738434,-0.062257739436000895
6386.700663510649,-0.06232568159313938
6386.7016632828645,-0.0623850019979565
6386.70266305508,-0.06243579094562509
6386.703662827295,-0.06247814005251215
6386.70466259951,-0.06251214220981498
6386.705662371725,-0.06253789153700945
6386.706662143941,-0.06255548333513421
6386.707661916156,-0.06256501403993427
6386.708661688371,-0.0625665811748871
6386.709661460586,-0.06256028330413389
6386.710661232802,-0.06254621998533819
6386.711661005017,-0.06252449172249425
6386.7126607772325,-0.06249519991870669
6386.713660549448,-0.062458446828963114
6386.714660321662,-0.06241433551292091
6386.715660093878,-0.06236296978772907
6386.716659866093,-0.06230445418090559
6386.717659638309,-0.06223889388329028
6386.718659410524,-0.06216639470209246
6386.719659182739,-0.06208706301405206
6386.720658954954,-0.062001005718731635
6386.72165872717,-0.061908330191956074
6386.722658499385,-0.06180914423941562
6386.7236582716005,-0.061703556050446966
6386.724658043816,-0.06159167415200625
6386.72565781603,-0.061473607362846766
6386.726657588246,-0.06134946474791348
6386.727657360461,-0.061219355572965796
6386.728657132677,-0.06108338925943948
6386.729656904892,-0.06094167533955812
6386.730656677107,-0.06079432341170425
6386.731656449322,-0.06064144309606019
6386.732656221538,-0.060483143990528544
6386.733655993753,-0.060319535626942374
6386.7346557659685,-0.0601507274275749
6386.735655538184,-0.059976828661958914
6386.736655310398,-0.05979794840402567
6386.737655082614,-0.05961419548957303
6386.738654854829,-0.05942567847407263
6386.739654627045,-0.059232505590825664
6386.74065439926,-0.059034784709476824
6386.741654171475,-0.0588326232948959
6386.74265394369,-0.05862612836643643
6386.743653715906,-0.05841540645758098
6386.744653488121,-0.058200563575982606
6386.745653260336,-0.05798170516391211
6386.746653032551,-0.05775893605912116
6386.747652804766,-0.05753236045613124
6386.748652576982,-0.05730208186795889
6386.749652349197,-0.057068203088288263
6386.750652121413,-0.05683082615410233
6386.751651893628,-0.0565900523087848
6386.752651665843,-0.05634598196570548
6386.753651438058,-0.05609871467230236
6386.754651210274,-0.05584834907467477
6386.755650982489,-0.055594982882702315
6386.756650754704,-0.055338712835705337
6386.757650526919,-0.05507963466866325
6386.758650299134,-0.0548178430790077
6386.75965007135,-0.05455343169400811
6386.760649843565,-0.05428649303876785
6386.761649615781,-0.054017118504849575
6386.762649387996,-0.05374539831954875
6386.763649160211,-0.0534714215158349
6386.764648932426,-0.053195275902980295
6386.7656487046415,-0.05291704803789609
6386.766648476857,-0.05263682319719642
6386.767648249072,-0.05235468535001105
6386.768648021287,-0.05207071713156751
6386.769647793502,-0.051784999817563744
6386.770647565718,-0.05149761329935306
6386.771647337933,-0.05120863605996274
6386.772647110149,-0.05091814515096876
6386.773646882363,-0.050626216170248886
6386.774646654579,-0.05033292324063662
6386.775646426794,-0.050038338989498964
6386.7766461990095,-0.04974253452926055
6386.777645971225,-0.049445579438897005
6386.77864574344,-0.049147541746419866
6386.779645515655,-0.04884848791237542
6386.78064528787,-0.04854848281437911
6386.781645060086,-0.04824758973270654
6386.782644832301,-0.047945870336962015
6386.783644604517,-0.04764338467384412
6386.784644376731,-0.0473401911560276
6386.785644148947,-0.04703634655217972
6386.786643921162,-0.046731905978128326
6386.7876436933775,-0.0464269228891978
6386.788643465593,-0.0461214490737282
6386.789643237808,-0.045815534647791596
6386.790643010023,-0.04550922805111872
6386.791642782238,-0.04520257604424786
6386.792642554454,-0.04489562370690699
6386.793642326669,-0.04458841443763907
6386.794642098885,-0.04428098995467917
6386.795641871099,-0.04397339029809107
6386.796641643315,-0.043665653833169775
6386.79764141553,-0.04335781725511497
6386.7986411877455,-0.04304991559497903
6386.799640959961,-0.0427419822268916
6386.800640732176,-0.042434048876561284
6386.801640504391,-0.04212614563105332
6386.802640276606,-0.04181830094984016
6386.803640048822,-0.04151054167712043
6386.804639821037,-0.041202893055399654
6386.805639593253,-0.04089537874032468
6386.806639365467,-0.04058802081676173
6386.807639137683,-0.040280839816106605
6386.808638909898,-0.0399738547348137
6386.8096386821135,-0.03966708305412899
6386.810638454329,-0.03936054076101053
6386.811638226543,-0.03905424237021848
6386.812637998759,-0.038748200947554955
6386.813637770974,-0.038442428134232785
6386.81463754319,-0.038136934172350256
6386.815637315405,-0.03783172793144796
6386.816637087621,-0.03752681693612227
6386.817636859835,-0.037222207394668465
6386.818636632051,-0.036917904228725346
6386.819636404266,-0.03661391110389153
6386.8206361764815,-0.036310230461282504
6386.821635948697,-0.03600686354999586
6386.822635720911,-0.03570381046045116
6386.823635493127,-0.03540107015856934
6386.824635265342,-0.03509864052075564
6386.825635037558,-0.034796518369648914
6386.826634809773,-0.03449469951059925
6386.827634581989,-0.03419317876883492
6386.828634354203,-0.03389195002727913
6386.829634126419,-0.03359100626497602
6386.830633898634,-0.0332903395960852
6386.831633670849,-0.03298994130940331
6386.832633443065,-0.03268980190837096
6386.833633215279,-0.032389911151522975
6386.834632987495,-0.03209025809333982
6386.83563275971,-0.0317908311254577
6386.836632531926,-0.03149161801819477
6386.837632304141,-0.031192605962350423
6386.838632076356,-0.030893781611234575
6386.839631848571,-0.03059513112288344
6386.840631620787,-0.03029664020241796
6386.841631393002,-0.0299982941445008
6386.842631165217,-0.029700077875847556
6386.843630937433,-0.029401975997747704
6386.844630709647,-0.02910397282855055
6386.845630481863,-0.028806052446071338
6386.846630254078,-0.028508198729872414
6386.847630026294,-0.02821039540337428
6386.848629798509,-0.027912626075751176
6386.849629570724,-0.027614874283565852
6386.850629342939,-0.027317123532098333
6386.8516291151545,-0.027019357336323466
6386.85262888737,-0.02672155926149289
6386.853628659585,-0.026423712963277217
6386.854628431801,-0.02612580222742507
6386.855628204015,-0.025827811008896022
6386.856627976231,-0.025529723470425265
6386.857627748446,-0.025231524020478003
6386.858627520662,-0.024933197350552255
6386.859627292877,-0.024634728471788925
6386.860627065092,-0.024336102750848423
6386.861626837307,-0.024037305945013406
6386.8626266095225,-0.023738324236477613
6386.863626381738,-0.023439144265781222
6386.864626153953,-0.023139753164353575
6386.865625926169,-0.02284013858612492
6386.866625698383,-0.022540288738169476
6386.867625470599,-0.02224019241034318
6386.868625242814,-0.02193983900388041
6386.86962501503,-0.02163921855891558
6386.870624787245,-0.021338321780896872
6386.87162455946,-0.021037140065861232
6386.872624331675,-0.02073566552454156
6386.8736241038905,-0.02043389100527921
6386.874623876106,-0.020131810115716922
6386.875623648321,-0.0198294172432494
6386.876623420536,-0.019526707574210926
6386.877623192751,-0.019223677111781485
6386.878622964967,-0.01892032269259487
6386.879622737182,-0.018616642002034386
6386.880622509398,-0.018312633588203935
6386.881622281613,-0.01800829687456448
6386.882622053828,-0.01770363217122828
6386.883621826043,-0.01739864068490565
6386.8846215982585,-0.017093324527501567
6386.885621370474,-0.016787686723361776
6386.886621142689,-0.016481731215170534
6386.887620914904,-0.01617546286850447
6386.888620687119,-0.015868887475049404
6386.889620459335,-0.015562011754489232
6386.89062023155,-0.015254843355078299
6386.891620003766,-0.014947390852910917
6386.892619775981,-0.014639663749903909
6386.893619548196,-0.014331672470510235
6386.894619320411,-0.01402342835718379
6386.8956190926265,-0.0137149436646175
6386.896618864842,-0.013406231552778694
6386.897618637057,-0.013097306078767417
6386.898618409272,-0.01278818218752493
6386.899618181487,-0.01247887570142098
6386.900617953703,-0.012169403308749747
6386.901617725918,-0.011859782551165429
6386.902617498134,-0.01155003181008945
6386.903617270348,-0.01124017029212207
6386.904617042564,-0.01093021801349199
6386.905616814779,-0.010620195783578115
6386.9066165869945,-0.010310125187538136
6386.90761635921,-0.010000028568079099
6386.908616131425,-0.009689929006405505
6386.90961590364,-0.009379850302380942
6386.910615675855,-0.009069816953939658
6386.911615448071,-0.008759854135784999
6386.912615220286,-0.008449987677412072
6386.913614992502,-0.008140244040492508
6386.914614764716,-0.007830650295659611
6386.915614536932,-0.007521234098732543
6386.916614309147,-0.007212023666418475
6386.917614081362,-0.006903047751531706
6386.918613853578,-0.0065943356177688255
6386.919613625793,-0.006285917014078823
6386.920613398008,-0.005977822148666803
6386.921613170223,-0.0056700816626695716
6386.922612942439,-0.005362726603540857
6386.923612714654,-0.005055788398183346
6386.92461248687,-0.004749298825864058
6386.925612259084,-0.004443289990948775
6386.9266120313,-0.0041377942954904535
6386.927611803515,-0.003832844411705647
6386.92861157573,-0.0035284732543721074
6386.929611347946,-0.0032247139531798915
6386.930611120161,-0.0029215998250675594
6386.931610892376,-0.0026191643465744573
6386.932610664591,-0.0023174411262395626
6386.933610436807,-0.002016463877076954
6386.934610209022,-0.0017162663891575872
6386.935609981238,-0.0014168825023265989
6386.936609753452,-0.0011183460790848373
6386.937609525668,-0.0008206909776626357
6386.938609297883,-0.0005239510253129977
6386.939609070098,-0.00022815999185034184
6386.940608842314,6.664843654021044e-05
6386.941608614528,0.00036044068319929153
6386.942608386744,0.0006531833065730958
6386.943608158959,0.0009448430254554535
6386.944607931175,0.00123538674387235
6386.94560770339,0.0015247815755902719
6386.946607475606,0.0018129948682309182
6386.94760724782,0.002099994226975926
6386.948607020036,0.0023857475378463253
6386.949606792251,0.0026702229905424557
6386.950606564466,0.0029533891008309936
6386.951606336682,0.003235214732466576
6386.952606108896,0.003515669118636226
6386.953605881112,0.0037947218829154
6386.954605653327,0.004072343059725042
6386.955605425543,0.004348503114279646
6386.956605197758,0.0046231729620169375
6386.9576049699735,0.004896323987500527
6386.958604742188,0.0051679280627877034
6386.959604514404,0.005437957565255418
6386.960604286619,0.005706385394878388
6386.961604058834,0.005973184990954204
6386.96260383105,0.006238330348271185
6386.963603603264,0.006501796032715649
6386.96460337548,0.00676355719631617
6386.965603147695,0.0070235895917232114
6386.966602919911,0.007281869586123421
6386.967602692126,0.007538374174588572
6386.968602464341,0.007793080992859812
6386.969602236556,0.008045968329568394
6386.970602008772,0.008297015137894475
6386.971601780987,0.008546201046665751
6386.972601553202,0.00879350637089781
6386.973601325418,0.009038912121778117
6386.974601097632,0.009282400016095513
6386.975600869848,0.009523952485117181
6386.976600642063,0.009763552682915047
6386.977600414279,0.01000118449414383
6386.978600186494,0.010236832541273142
6386.979599958709,0.010470482191276366
6386.980599730924,0.010702119561779383
6386.98159950314,0.010931731526672595
6386.982599275355,0.011159305721190104
6386.98359904757,0.011384830546460278
6386.984598819786,0.011608295173532311
6386.985598592,0.011829689546883723
6386.986598364216,0.012049004387414049
6386.987598136431,0.012266231194930161
6386.988597908647,0.012481362250128795
6386.989597680862,0.012694390616081847
6386.990597453077,0.012905310139229903
6386.991597225292,0.013114115449889226
6386.992596997508,0.013320801962277107
6386.993596769723,0.01352536587406015
6386.994596541938,0.013727804165429605
6386.995596314154,0.013928114597707554
6386.996596086368,0.014126295711487335
6386.997595858584,0.014322346824311319
6386.998595630799,0.01451626802788891
6386.999595403015,0.01470806018485759
6387.00059517523,0.014897724925089726
6387.001594947445,0.015085264641548033
6387.00259471966,0.01527068248569263
6387.003594491875,0.015453982362442853
6387.004594264091,0.015635168924697126
6387.005594036306,0.015814247567414355
6387.006593808521,0.01599122442126043
6387.007593580736,0.01616610634582341
6387.008593352952,0.0163389009224009
6387.009593125167,0.016509616446362937
6387.010592897383,0.016678261919093537
6387.011592669598,0.016844847039513465
6387.012592441813,0.017009382195186638
6387.013592214028,0.017171878453011873
6387.014591986243,0.017332347549501446
6387.015591758459,0.017490801880647354
6387.016591530674,0.0176472544913758
6387.017591302889,0.017801719064590087
6387.018591075104,0.017954209909802007
6387.01959084732,0.018104741951351522
6387.020590619535,0.018253330716214787
6387.021590391751,0.018399992321400466
6387.022590163966,0.01854474346093435
6387.0235899361805,0.018687601392432578
6387.024589708396,0.018828583923263767
6387.025589480611,0.018967709396300582
6387.026589252827,0.01910499667526157
6387.027589025042,0.019240465129644342
6387.028588797257,0.019374134619251526
6387.029588569472,0.019506025478311338
6387.030588341688,0.019636158499194912
6387.031588113903,0.01976455491573289
6387.032587886119,0.019891236386134083
6387.033587658333,0.020016224975509322
6387.0345874305485,0.02013954313800397
6387.035587202764,0.020261213698543005
6387.036586974979,0.02038125983419308
6387.037586747195,0.020499705055146554
6387.03858651941,0.02061657318533324
6387.039586291625,0.02073188834266653
6387.04058606384,0.02084567491893129
6387.041585836056,0.020957957559322036
6387.042585608271,0.021068761141640694
6387.043585380487,0.02117811075516422
6387.044585152701,0.021286031679193098
6387.0455849249165,0.021392549361292566
6387.046584697132,0.021497689395239022
6387.047584469347,0.021601477498684803
6387.048584241563,0.02170393949055502
6387.049584013778,0.021805101268190727
6387.050583785993,0.02190498878425303
6387.051583558208,0.02200362802340317
6387.052583330424,0.02210104497877368
6387.053583102639,0.022197265628245984
6387.054582874855,0.022292315910549986
6387.055582647069,0.022386221701201404
6387.0565824192845,0.022479008788292832
6387.0575821915,0.022570702848154958
6387.058581963715,0.022661329420904743
6387.059581735931,0.022750913885897967
6387.060581508146,0.022839481437104018
6387.061581280361,0.022927057058421477
6387.062581052576,0.023013665498953707
6387.063580824792,0.02309933124826418
6387.064580597007,0.023184078511631845
6387.065580369223,0.023267931185327415
6387.066580141437,0.02335091283193192
6387.0675799136525,0.02343304665571931
6387.068579685868,0.023514355478125217
6387.069579458083,0.023594861713324245
6387.070579230299,0.023674587343938267
6387.071579002513,0.02375355389689829
6387.072578774729,0.02383178241948238
6387.073578546944,0.02390929345555193
6387.07457831916,0.02398610702200857
6387.075578091375,0.02406224258549379
6387.076577863591,0.024137719039353397
6387.077577635805,0.02421255468088893
6387.0785774080205,0.02428676718891837
6387.079577180236,0.024360373601668903
6387.080576952451,0.02443339029502467
6387.081576724667,0.02450583296115301
6387.082576496881,0.024577716587533105
6387.083576269097,0.024649055436411493
6387.084576041312,0.024719863024709167
6387.085575813528,0.024790152104405428
6387.086575585743,0.024859934643423943
6387.087575357959,0.024929221807046653
6387.088575130173,0.02499802393988141
6387.089574902388,0.02506635054840911
6387.090574674604,0.025134210284136205
6387.091574446819,0.02520161092737804
6387.092574219035,0.025268559371698446
6387.093573991249,0.025335061609030315
6387.094573763465,0.025401122715501816
6387.09557353568,0.025466746837992264
6387.096573307896,0.025531937181441474
6387.097573080111,0.025596695996936127
6387.098572852326,0.02566102457059656
6387.099572624541,0.025724923213287235
6387.100572396756,0.02578839125117396
6387.101572168972,0.02585142701715109
6387.102571941187,0.025914027843161637
6387.103571713403,0.025976190053433434
6387.104571485617,0.026037908958654158
6387.105571257833,0.026099178851108063
6387.106571030048,0.026159993000797105
6387.107570802264,0.026220343652568714
6387.108570574479,0.026280222024272264
6387.1095703466935,0.026339618305965644
6387.110570118909,0.02639852166019288
6387.111569891124,0.026456920223352675
6387.11256966334,0.026514801108176902
6387.113569435555,0.026572150407336875
6387.114569207771,0.026628953198193802
6387.115568979985,0.026685193548708405
6387.116568752201,0.026740854524522944
6387.117568524416,0.026795918197227125
6387.118568296632,0.02685036565381747
6387.119568068847,0.02690417700735753
6387.1205678410615,0.026957331408844112
6387.121567613277,0.027009807060282227
6387.122567385492,0.02706158122896881
6387.123567157708,0.027112630262982437
6387.124566929923,0.02716292960787305
6387.125566702139,0.027212453824542533
6387.126566474353,0.027261176608303142
6387.127566246569,0.027309070809097006
6387.128566018784,0.027356108452855903
6387.129565791,0.027402260763976238
6387.130565563215,0.02744749818887986
6387.1315653354295,0.02749179042062692
6387.132565107645,0.027535106424542447
6387.13356487986,0.02757741446481379
6387.134564652076,0.027618682132011775
6387.135564424291,0.027658876371484037
6387.136564196506,0.02769796351256521
6387.137563968721,0.027735909298544744
6387.138563740937,0.02777267891733008
6387.139563513152,0.027808237032739967
6387.140563285368,0.02784254781636028
6387.141563057583,0.027875574979892615
6387.1425628297975,0.027907281807924386
6387.143562602013,0.02793763119104791
6387.144562374228,0.02796658565925524
6387.145562146444,0.027994107415535086
6387.146561918659,0.02802015836959849
6387.147561690874,0.028044700171660348
6387.148561463089,0.028067694246205196
6387.149561235305,0.028089101825667054
6387.15056100752,0.028108883983955016
6387.151560779736,0.02812700166975829
6387.152560551951,0.028143415739566628
6387.1535603241655,0.02815808699034468
6387.154560096381,0.028170976191801606
6387.155559868596,0.02818204411820047
6387.156559640812,0.028191251579655394
6387.157559413027,0.02819855945286819
6387.158559185242,0.028203928711259915
6387.159558957457,0.028207320454456664
6387.160558729673,0.028208695937092666
6387.161558501888,0.028208016596897374
6387.162558274104,0.028205244082036736
6387.163558046319,0.028200340277682357
6387.1645578185335,0.028193267331785312
6387.165557590749,0.0281839876800348
6387.166557362964,0.02817246406998479
6387.16755713518,0.02815865958433519
6387.168556907395,0.02814253766335706
6387.16955667961,0.02812406212645483
6387.170556451825,0.02810319719286167
6387.171556224041,0.028079907501467074
6387.172555996256,0.028054158129778836
6387.173555768472,0.028025914612024073
6387.174555540686,0.027995142956396532
6387.175555312901,0.027961809661459665
6387.176555085117,0.0279258817317171
6387.177554857332,0.027887326692364132
6387.178554629548,0.02784611260323561
6387.179554401763,0.02780220807196727
6387.180554173978,0.02775558226638903
6387.181553946193,0.027706204926170132
6387.182553718409,0.027654046373737248
6387.183553490624,0.02759907752448771
6387.18455326284,0.027541269896321052
6387.185553035054,0.02748059561851289
6387.186552807269,0.027417027439955912
6387.187552579485,0.0273505387367934
6387.1885523517,0.027281103519471037
6387.189552123916,0.02720869643923317
6387.190551896131,0.027133292794089783
6387.191551668346,0.027054868534280088
6387.192551440561,0.026973400267258682
6387.193551212777,0.02688886526222946
6387.194550984992,0.02680124145425218
6387.195550757208,0.02671050744794604
6387.196550529422,0.026616642520814072
6387.197550301637,0.02651962662621199
6387.198550073853,0.026419440395984595
6387.199549846068,0.02631606514279275
6387.200549618284,0.026209482862153737
6387.201549390498,0.026099676234217703
6387.202549162714,0.025986628625302686
6387.203548934929,0.025870324089210556
6387.204548707145,0.025750747368346063
6387.20554847936,0.025627883894660756
6387.206548251575,0.02550171979044328
6387.20754802379,0.025372241868977095
6387.208547796005,0.025239437635086293
6387.209547568221,0.025103295285589355
6387.210547340436,0.02496380370968
6387.211547112652,0.024820952489253256
6387.212546884866,0.02467473189919395
6387.213546657082,0.02452513290764339
6387.214546429297,0.024372147176259042
6387.215546201513,0.024215767060480724
6387.216545973728,0.024055985609815565
6387.217545745943,0.023892796568153102
6387.218545518158,0.02372619437412065
6387.219545290373,0.023556174161488364
6387.220545062589,0.023382731759632427
6387.221544834804,0.02320586369406414
6387.22254460702,0.02302556718703196
6387.223544379234,0.022841840158202856
6387.22454415145,0.022654681225428564
6387.225543923665,0.022464089705601733
6387.2265436958805,0.022270065615606117
6387.227543468096,0.022072609673364336
6387.228543240311,0.021871723298985936
6387.229543012526,0.021667408616017667
6387.230542784741,0.02145966845279713
6387.231542556957,0.02124850634390997
6387.232542329172,0.021033926531749864
6387.233542101388,0.020815933968179687
6387.234541873602,0.020594534316291154
6387.235541645818,0.02036973395225957
6387.236541418033,0.020141539967289568
6387.2375411902485,0.019909960169647183
6387.238540962464,0.0196750030867732
6387.239540734679,0.01943667796747244
6387.240540506894,0.01919499478417343
6387.241540279109,0.018949964235252897
6387.242540051325,0.01870159774741918
6387.24353982354,0.018449907478148665
6387.244539595756,0.018194906318169016
6387.24553936797,0.017936607893982832
6387.246539140186,0.01767502657042509
6387.247538912401,0.017410177453247452
6387.2485386846165,0.017142076391722248
6387.249538456832,0.016870739981258508
6387.250538229047,0.016596185566021923
6387.251538001262,0.016318431241549976
6387.252537773477,0.016037495857352806
6387.253537545693,0.015753399019489675
6387.254537317908,0.015466161093110185
6387.255537090124,0.0151758032049489
6387.256536862338,0.014882347245761587
6387.257536634554,0.014585815872691038
6387.258536406769,0.01428623251155033
6387.2595361789845,0.013983621359011473
6387.2605359512,0.013678007384687572
6387.261535723414,0.013369416333096837
6387.26253549563,0.013057874725497132
6387.263535267845,0.012743409861580035
6387.264535040061,0.0124260498210138
6387.265534812276,0.012105823464824873
6387.266534584491,0.011782760436607968
6387.267534356706,0.01145689116355495
6387.268534128922,0.011128246857292988
6387.269533901137,0.010796859514522611
6387.2705336733525,0.010462761917446254
6387.271533445568,0.01012598763397787
6387.272533217782,0.009786571017724009
6387.273532989998,0.009444547207726597
6387.274532762213,0.009099952127957556
6387.275532534429,0.00875282248655527
6387.276532306644,0.008403195774793018
6387.277532078859,0.008051110265769634
6387.278531851074,0.007696605012813086
6387.27953162329,0.007339719847588082
6387.280531395505,0.006980495377899426
6387.2815311677205,0.006618972985183567
6387.282530939936,0.006255194821681485
6387.28353071215,0.005889203807286772
6387.284530484366,0.0055210436260635576
6387.285530256581,0.00515075872242966
6387.286530028797,0.004778394297001082
6387.287529801012,0.004403996302094658
6387.288529573227,0.004027611436886316
6387.289529345442,0.003649287142222952
6387.290529117658,0.0032690715950863527
6387.291528889873,0.0028870137027079907
6387.292528662088,0.0025031630963338863
6387.293528434304,0.0021175701246390626
6387.294528206518,0.0017302858467915037
6387.295527978734,0.0013413620251659711
6387.296527750949,0.0009508511177085554
6387.297527523165,0.000558806269953469
6387.29852729538,0.00016528130669433137
6387.299527067595,-0.00022966927668698604
6387.30052683981,-0.0006259903232300404
6387.301526612026,-0.0010236260237392757
6387.302526384241,-0.0014225199264557254
6387.303526156456,-0.0018226149470507043
6387.304525928671,-0.002223853378934566
6387.305525700886,-0.0026261769038730017
6387.306525473102,-0.0030295266029027952
6387.307525245317,-0.0034338429675384624
6387.308525017533,-0.0038390659112607947
6387.309524789748,-0.004245134781278047
6387.310524561963,-0.0046519883705503865
6387.311524334178,-0.005059564930068268
6387.3125241063935,-0.005467802181375527
6387.313523878609,-0.005876637329328227
6387.314523650824,-0.0062860070750804945
6387.315523423039,-0.006695847629288771
6387.316523195254,-0.007106094725525904
6387.31752296747,-0.0075166836338965695
6387.318522739685,-0.007927549174845307
6387.319522511901,-0.008338625733148268
6387.320522284116,-0.008749847272079461
6387.321522056331,-0.009161147347742041
6387.322521828546,-0.009572459123554861
6387.3235216007615,-0.009983715384884257
6387.324521372977,-0.010394848553810973
6387.325521145192,-0.01080579070402193
6387.326520917407,-0.011216473575816644
6387.327520689622,-0.01162682859121814
6387.328520461838,-0.012036786869178494
6387.329520234053,-0.012446279240869414
6387.330520006269,-0.012855236265048895
6387.331519778483,-0.013263588243495624
6387.332519550699,-0.013671265236503598
6387.333519322914,-0.014078197078430258
6387.3345190951295,-0.01448431339329227
6387.335518867345,-0.014889543610403864
6387.33651863956,-0.015293816980053285
6387.337518411775,-0.01569706258921344
6387.33851818399,-0.016099209377283194
6387.339517956206,-0.016500186151856028
6387.340517728421,-0.01689992160451288
6387.341517500637,-0.017298344326636107
6387.342517272851,-0.017695382825241527
6387.343517045067,-0.018090965538825478
6387.344516817282,-0.018485020853223993
6387.3455165894975,-0.01887747711748112
6387.346516361713,-0.019268262659723593
6387.347516133928,-0.019657305803039142
6387.348515906143,-0.020044534881356033
6387.349515678358,-0.020429878255321866
6387.350515450574,-0.020813264328180106
6387.351515222789,-0.02119462156164346
6387.352514995005,-0.021573878491764117
6387.353514767219,-0.021950963744801474
6387.354514539435,-0.022325806053088804
6387.35551431165,-0.022698334270900927
6387.3565140838655,-0.023068477390325505
6387.357513856081,-0.023436164557140923
6387.358513628296,-0.023801325086703927
6387.359513400511,-0.024163888479850116
6387.360513172726,-0.024523784438810262
6387.361512944942,-0.024880942883145275
6387.362512717157,-0.02523529396570217
6387.363512489373,-0.025586768088593163
6387.364512261587,-0.025935295919199724
6387.365512033803,-0.026280808406203077
6387.366511806018,-0.026623236795642494
6387.3675115782335,-0.02696251264700247
6387.368511350449,-0.027298567849329915
6387.369511122663,-0.02763133463738238
6387.370510894879,-0.0279607456078085
6387.371510667094,-0.028286733735362075
6387.37251043931,-0.028609232389151317
6387.373510211525,-0.02892817534892516
6387.374509983741,-0.029243496821398735
6387.375509755955,-0.029555131456620344
6387.376509528171,-0.029863014364382125
6387.377509300386,-0.030167081130676697
6387.378509072601,-0.03046726783420172
6387.379508844817,-0.030763511062913813
6387.380508617031,-0.031055747930632854
6387.381508389247,-0.03134391609369703
6387.382508161462,-0.03162795376766827
6387.383507933678,-0.03190779974408714
6387.384507705893,-0.03218339340727549
6387.385507478109,-0.032454674751184576
6387.386507250323,-0.03272158439628575
6387.387507022539,-0.032984063606500115
6387.388506794754,-0.03324205430616316
6387.389506566969,-0.03349549909701992
6387.390506339185,-0.03374434127524611
6387.391506111399,-0.03398852484849041
6387.392505883615,-0.0342279945529334
6387.39350565583,-0.03446269587035853
6387.394505428046,-0.03469257504523061
6387.395505200261,-0.034917579101777195
6387.396504972476,-0.035137655861068214
6387.397504744691,-0.035352753958088706
6387.3985045169065,-0.03556282285879912
6387.399504289122,-0.03576781287717707
6387.400504061337,-0.03596767519223357
6387.401503833553,-0.03616236186499634
6387.402503605767,-0.036351825855451665
6387.403503377983,-0.036536021039435616
6387.404503150198,-0.0367149022254649
6387.405502922414,-0.03688842517149648
6387.406502694629,-0.0370565466016049
6387.407502466844,-0.03721922422256525
6387.408502239059,-0.03737641674032965
6387.4095020112745,-0.03752808387638446
6387.41050178349,-0.03767418638397568
6387.411501555705,-0.03781468606418957
6387.412501327921,-0.037949545781876294
6387.413501100135,-0.038078729481404186
6387.414500872351,-0.03820220220223276
6387.415500644566,-0.03831993009429304
6387.416500416782,-0.038431880433163736
6387.417500188997,-0.03853802163503223
6387.418499961212,-0.038638323271429124
6387.419499733427,-0.038732756083725256
6387.4204995056425,-0.0388212919973799
6387.421499277858,-0.03890390413592879
6387.422499050073,-0.038980566834700456
6387.423498822289,-0.03905125565424928
6387.424498594503,-0.03911594739349359
6387.425498366719,-0.03917462010254705
6387.426498138934,-0.03922725309523157
6387.42749791115,-0.03927382696125992
6387.428497683365,-0.039314323578076495
6387.42949745558,-0.039348726122344926
6387.430497227795,-0.03937701908107154
6387.4314970000105,-0.03939918826235452
6387.432496772226,-0.039415220805749294
6387.433496544441,-0.039425105192241426
6387.434496316656,-0.03942883125381932
6387.435496088871,-0.03942639018263971
6387.436495861087,-0.03941777453977974
6387.437495633302,-0.03940297826356975
6387.438495405518,-0.039381996677501495
6387.439495177733,-0.0393548264977065
6387.440494949948,-0.03932146583999958
6387.441494722163,-0.039281914226482514
6387.4424944943785,-0.039236172591703
6387.443494266594,-0.03918424328836399
6387.444494038809,-0.03912613009257886
6387.445493811024,-0.03906183820866775
6387.446493583239,-0.038991374273490684
6387.447493355455,-0.03891474636031332
6387.44849312767,-0.03883196398220125
6387.449492899886,-0.038743038094939126
6387.450492672101,-0.038647981099471415
6387.451492444316,-0.03854680684386185
6387.452492216531,-0.03843953062476946
6387.4534919887465,-0.03832616918843948
6387.454491760962,-0.03820674073120824
6387.455491533177,-0.03808126489952141
6387.456491305392,-0.03794976278946555
6387.457491077607,-0.03781225694581291
6387.458490849823,-0.037668771360579674
6387.459490622038,-0.03751933147109775
6387.460490394254,-0.03736396415759976
6387.461490166468,-0.03720269774031692
6387.462489938684,-0.03703556197608884
6387.463489710899,-0.03686258805448432
6387.464489483114,-0.03668380859343159
6387.46548925533,-0.03649925763435622
6387.466489027545,-0.03630897063682476
6387.46748879976,-0.03611298447269192
6387.468488571975,-0.03591133741974923
6387.469488344191,-0.03570406915487333
6387.470488116406,-0.03549122074667225
6387.471487888622,-0.03527283464762872
6387.472487660836,-0.03504895468574029
6387.473487433052,-0.03481962605565665
6387.474487205267,-0.03458489530931538
6387.475486977482,-0.03434481034607824
6387.476486749698,-0.03409942040237058
6387.477486521913,-0.03384877604082712
6387.478486294128,-0.03359292913894757
6387.479486066343,-0.0333319328772659
6387.480485838559,-0.033065841727037096
6387.481485610774,-0.032794711437445445
6387.48248538299,-0.0325185990223382
6387.483485155204,-0.03223756274648849
6387.48448492742,-0.03195166211139116
6387.485484699635,-0.031660957840595194
6387.48648447185,-0.03136551186457614
6387.487484244066,-0.03106538730515201
6387.488484016281,-0.030760648459446198
6387.489483788496,-0.030451360783401164
6387.490483560711,-0.030137590874847145
6387.491483332927,-0.029819406456130876
6387.492483105142,-0.029496876356309924
6387.493482877358,-0.0291700704929193
6387.494482649572,-0.028839059853317698
6387.495482421788,-0.02850391647562159
6387.496482194003,-0.0281647134292359
6387.497481966218,-0.02782152479499046
6387.498481738434,-0.02747442564489182
6387.499481510648,-0.027123492021500026
6387.500481282864,-0.026768800916940096
6387.501481055079,-0.026410430251557804
6387.502480827295,-0.02604845885222931
6387.50348059951,-0.025682966430334134
6387.504480371726,-0.025314033559400827
6387.50548014394,-0.024941741652434613
6387.506479916156,-0.024566172938936332
6387.507479688371,-0.02418741044162197
6387.508479460586,-0.023805537952852274
6387.509479232802,-0.023420640010782083
6387.510479005016,-0.023032801875239352
6387.511478777232,-0.022642109503344277
6387.512478549447,-0.022248649524879472
6387.513478321663,-0.021852509217422558
6387.514478093878,-0.02145377648125311
6387.5154778660935,-0.02105253981404621
6387.516477638308,-0.020648888285365073
6387.517477410524,-0.02024291151096539
6387.518477182739,-0.019834699626923847
6387.519476954954,-0.019424343263603098
6387.52047672717,-0.01901193351946526
6387.521476499384,-0.018597561934745533
6387.5224762716,-0.018181320464997264
6387.523476043815,-0.017763301454519306
6387.524475816031,-0.01734359760967627
6387.525475588246,-0.016922301972121835
6387.526475360461,-0.016499507891935033
6387.527475132676,-0.016075309000679126
6387.528474904892,-0.015649799184392542
6387.529474677107,-0.015223072556521198
6387.530474449322,-0.014795223430801599
6387.531474221538,-0.014366346294104245
6387.532473993752,-0.013936535779247182
6387.533473765968,-0.01350588663778986
6387.534473538183,-0.013074493712817693
6387.535473310399,-0.012642451911728062
6387.536473082614,-0.012209856179028594
6387.537472854829,-0.011776801469158564
6387.538472627044,-0.01134338271934408
6387.53947239926,-0.010909694822497424
6387.540472171475,-0.010475832600170518
6387.54147194369,-0.010041890775571896
6387.542471715906,-0.009607963946656063
6387.54347148812,-0.009174146559293432
6387.544471260336,-0.008740532880528413
6387.545471032551,-0.008307216971932608
6387.546470804767,-0.007874292663059466
6387.547470576982,-0.007441853525006221
6387.548470349197,-0.007009992844088464
6387.549470121412,-0.0065788035956323215
6387.550469893627,-0.00614837841788899
6387.551469665843,-0.0057188095860762084
6387.552469438058,-0.0052901889865512395
6387.553469210274,-0.004862608091119961
6387.554468982488,-0.004436157931486663
6387.555468754704,-0.00401092907384911
6387.556468526919,-0.0035870115936432363
6387.557468299135,-0.0031644950504415782
6387.55846807135,-0.0027434684630091495
6387.559467843565,-0.0023240202845199857
6387.56046761578,-0.001906238377937034
6387.561467387995,-0.001490209991557501
6387.562467160211,-0.0010760217347252263
6387.563466932426,-0.0006637595537111384
6387.564466704641,-0.0002535087077623663
6387.565466476856,0.0001546462546798541
6387.566466249072,0.0005606215195937657
6387.567466021287,0.0009643340308228528
6387.568465793503,0.001365701513354798
6387.569465565718,0.0017646424964348722
6387.570465337933,0.002161076336515068
6387.571465110148,0.0025549232400401737
6387.572464882363,0.002946104286071697
6387.573464654579,0.003334541448750116
6387.574464426794,0.003720157619595427
6387.575464199009,0.004102876629645439
6387.576463971224,0.004482623271430794
6387.57746374344,0.004859323320785356
6387.578463515655,0.0052329035584903665
6387.579463287871,0.005603291791750634
6387.580463060086,0.005970416875500943
6387.5814628323005,0.006334208733540813
6387.582462604516,0.006694598379495677
6387.583462376731,0.007051517937602474
6387.584462148947,0.007404900663317599
6387.585461921162,0.007754680963744968
6387.586461693377,0.008100794417881843
6387.587461465592,0.008443177796679743
6387.588461237808,0.008781769082917454
6387.589461010023,0.009116507490882698
6387.590460782239,0.009447333485858361
6387.591460554453,0.00977418880340859
6387.5924603266685,0.010097016468459272
6387.593460098884,0.010415760814166633
6387.594459871099,0.010730367500567018
6387.595459643315,0.011040783533000255
6387.59645941553,0.011346957280298607
6387.597459187745,0.011648838492732936
6387.59845895996,0.011946378319707565
6387.599458732176,0.012239529327195289
6387.600458504391,0.012528245514904078
6387.601458276607,0.012812482333167143
6387.602458048821,0.013092196699548182
6387.6034578210365,0.013367347015153868
6387.604457593252,0.013637893180645762
6387.605457365467,0.013903796611943985
6387.606457137683,0.014165020255615108
6387.607456909898,0.01442152860393672
6387.608456682113,0.014673287709631104
6387.609456454328,0.014920265200260335
6387.610456226544,0.015162430292274834
6387.611455998759,0.01539975380470696
6387.612455770975,0.01563220817250072
6387.613455543189,0.01585976745946808
6387.6144553154045,0.0160824073708617
6387.61545508762,0.016300105265553515
6387.616454859835,0.016512840167808036
6387.617454632051,0.016720592778639153
6387.618454404266,0.016923345486739183
6387.619454176481,0.017121082378968835
6387.620453948696,0.017313789250397085
6387.621453720912,0.017501453613880252
6387.622453493127,0.01768406470916977
6387.623453265343,0.017861613511538515
6387.624453037557,0.018034092739915897
6387.6254528097725,0.01820149686452233
6387.626452581988,0.01836382211399394
6387.627452354203,0.01852106648198875
6387.628452126419,0.01867322973326579
6387.629451898633,0.018820313409228795
6387.630451670849,0.018962320832925997
6387.631451443064,0.019099257113497588
6387.63245121528,0.01923112915006203
6387.633450987495,0.019357945635032223
6387.634450759711,0.019479717056852315
6387.635450531925,0.01959645570214564
6387.63645030414,0.01970817565726434
6387.637450076356,0.01981489280923127
6387.638449848571,0.019916624846065094
6387.639449620787,0.020013391256479836
6387.640449393001,0.02010521332895056
6387.641449165217,0.020192114150137528
6387.642448937432,0.02027411860266166
6387.643448709648,0.020351253362224746
6387.644448481863,0.020423546894068393
6387.645448254079,0.02049102944876626
6387.646448026293,0.02055373305734461
6387.647447798508,0.020611691525726623
6387.648447570724,0.02066494042849635
6387.649447342939,0.02071351710197841
6387.650447115155,0.02075746063662975
6387.651446887369,0.02079681186873981
6387.652446659585,0.020831613371435357
6387.6534464318,0.020861909444986167
6387.654446204016,0.02088774610640759
6387.655445976231,0.02090917107835606
6387.656445748446,0.020926233777313567
6387.657445520661,0.020938985301057422
6387.658445292876,0.020947478415411974
6387.659445065092,0.02095176754027941
6387.660444837307,0.02095190873494753
6387.661444609523,0.020947959682673014
6387.662444381737,0.020939979674539564
6387.663444153953,0.02092802959259112
6387.664443926168,0.02091217189224106
6387.665443698384,0.020892470583959138
6387.666443470599,0.02086899121423859
6387.6674432428135,0.02084180084584645
6387.668443015029,0.020810968037360704
6387.669442787244,0.020776562821998346
6387.67044255946,0.02073865668573862
6387.671442331675,0.020697322544746013
6387.672442103891,0.02065263472209752
6387.673441876105,0.02060466892381883
6387.674441648321,0.020553502214234062
6387.675441420536,0.020499212990633817
6387.676441192752,0.020441880957266484
6387.677440964967,0.02038158709865804
6387.6784407371815,0.020318413652266172
6387.679440509397,0.020252444080475045
6387.680440281612,0.02018376304193773
6387.681440053828,0.020112456362274156
6387.682439826043,0.02003861100413293
6387.683439598259,0.019962315036626307
6387.684439370473,0.01988365760414798
6387.685439142689,0.01980272889458433
6387.686438914904,0.019719620106930104
6387.68743868712,0.019634423418320324
6387.688438459335,0.01954723195049061
6387.6894382315495,0.019458139735678576
6387.690438003765,0.01936724168197912
6387.69143777598,0.019274633538166535
6387.692437548196,0.019180411857996193
6387.693437320411,0.019084673963998385
6387.694437092626,0.018987517910776585
6387.695436864841,0.01888904244782224
6387.696436637057,0.018789346981858038
6387.697436409272,0.018688531538721673
6387.698436181488,0.018586696724802246
6387.699435953703,0.01848394368804177
6387.7004357259175,0.01838037407851459
6387.701435498133,0.018276090008598124
6387.702435270348,0.01817119401274874
6387.703435042564,0.018065789006897245
6387.704434814779,0.017959978247478938
6387.705434586994,0.01785386529011371
6387.706434359209,0.017747553947952036
6387.707434131425,0.017641148249703024
6387.70843390364,0.017534752397360912
6387.709433675856,0.017428470723646422
6387.710433448071,0.01732240764917935
6387.7114332202855,0.0172166676393985
6387.712432992501,0.017111355161244665
6387.713432764716,0.017006574639622067
6387.714432536932,0.0169024304136532
6387.715432309147,0.016799026692741803
6387.716432081362,0.016696467512458367
6387.717431853577,0.016594856690262616
6387.718431625793,0.016494297781077336
6387.719431398008,0.016394894032728015
6387.720431170224,0.01629674834126283
6387.721430942438,0.016199963206167647
6387.7224307146535,0.016104640685490803
6387.723430486869,0.01601088235089262
6387.724430259084,0.015918789242634585
6387.7254300313,0.015828461824523226
6387.726429803515,0.015739999938823943
6387.72742957573,0.015653502761160062
6387.728429347945,0.015569068755412571
6387.729429120161,0.015486795628636113
6387.730428892376,0.015406780286006701
6387.731428664592,0.015329118785816524
6387.732428436806,0.015253906294530793
6387.733428209021,0.015181237041921276
6387.734427981237,0.015111204276290558
6387.735427753452,0.015043900219800798
6387.736427525668,0.014979416023920371
6387.737427297883,0.014917841725001702
6387.738427070098,0.014859266200003664
6387.739426842313,0.014803777122372134
6387.740426614529,0.014751460918092605
6387.741426386744,0.014702402721929268
6387.74242615896,0.014656686333865352
6387.743425931174,0.014614394175760093
6387.744425703389,0.01457560724823817
6387.745425475605,0.014540405087828018
6387.74642524782,0.014508865724365909
6387.747425020036,0.014481065638683264
6387.748424792251,0.014457079720595026
6387.749424564466,0.014436981227207286
6387.750424336681,0.01442084174156251
6387.751424108897,0.014408731131640698
6387.752423881112,0.0144007175097347
6387.753423653327,0.014396867192217683
6387.754423425542,0.014397244659720667
6387.755423197757,0.01440191251773782
6387.756422969973,0.014410931457677363
6387.757422742188,0.014424360218375962
6387.758422514404,0.014442255548094968
6387.759422286618,0.014464672167017162
6387.760422058834,0.014491662730263205
6387.761421831049,0.014523277791447516
6387.762421603265,0.014559565766793708
6387.76342137548,0.01460057289982994
6387.764421147695,0.014646343226684826
6387.76542091991,0.014696918542004472
6387.766420692125,0.014752338365511196
6387.767420464341,0.014812639909224311
6387.768420236556,0.014877858045363184
6387.769420008772,0.01494802527495257
6387.770419780986,0.015023171697149767
6387.771419553202,0.015103324979312794
6387.772419325417,0.015188510327828053
6387.7734190976325,0.015278750459715398
6387.774418869848,0.01537406557502779
6387.775418642063,0.015474473330062258
6387.776418414278,0.015579988811398339
6387.777418186493,0.01569062451077993
6387.778417958709,0.015806390300856368
6387.779417730924,0.015927293411798424
6387.78041750314,0.01605333840880496
6387.781417275354,0.01618452717051605
6387.78241704757,0.01632085886834832
6387.783416819785,0.0164623299467683
6387.7844165920005,0.01660893410451948
6387.785416364216,0.016760662276818727
6387.786416136431,0.016917502618537476
6387.787415908646,0.017079440488382863
6387.788415680861,0.017246458434093666
6387.789415453077,0.017418536178665445
6387.790415225292,0.0175956506076187
6387.791414997508,0.01777777575732309
6387.792414769722,0.017964882804389962
6387.793414541938,0.018156940056144544
6387.794414314153,0.01835391294218823
6387.7954140863685,0.018555764007060608
6387.796413858584,0.01876245290401012
6387.797413630799,0.018973936389881787
6387.798413403014,0.019190168321129998
6387.799413175229,0.01941109965096391
6387.800412947445,0.019636678427632913
6387.80141271966,0.019866849793859328
6387.802412491876,0.020101555987425305
6387.80341226409,0.020340736342920787
6387.804412036306,0.020584327294659206
6387.805411808521,0.02083226238076748
6387.8064115807365,0.021084472248456835
6387.807411352952,0.02134088466048092
6387.808411125167,0.021601424502787556
6387.809410897382,0.021866013793370297
6387.810410669597,0.022134571692325817
6387.811410441813,0.02240701451312256
6387.812410214028,0.02268325573508572
6387.813409986244,0.02296320601710286
6387.814409758458,0.023246773212553935
6387.815409530674,0.023533862385468944
6387.816409302889,0.023824375827915842
6387.8174090751045,0.024118213078621057
6387.81840884732,0.0244152709428247
6387.819408619534,0.024715443513372477
6387.82040839175,0.025018622193046555
6387.821408163965,0.02532469571813756
6387.822407936181,0.025633550183260148
6387.823407708396,0.02594506906741494
6387.824407480611,0.026259133261299694
6387.825407252826,0.02657562109587282
6387.826407025042,0.026894408372172423
6387.827406797257,0.02721536839239429
6387.8284065694725,0.027538371992232302
6387.829406341688,0.027863287574484658
6387.830406113902,0.028189981143929184
6387.831405886118,0.02851831634347068
6387.832405658333,0.028848154491562777
6387.833405430549,0.029179354620905942
6387.834405202764,0.02951177351842288
6387.835404974979,0.029845265766511513
6387.836404747194,0.03017968378557529
6387.83740451941,0.030514877877829822
6387.838404291625,0.030850696272384532
6387.83940406384,0.031186985171597476
6387.840403836056,0.03152358879870105
6387.84140360827,0.03186034944669599
6387.842403380486,0.03219710752851055
6387.843403152701,0.03253370162842103
6387.844402924917,0.03286996855472943
6387.845402697132,0.03320574339369325
6387.846402469347,0.033540859564701736
6387.847402241562,0.03387514887669242
6387.848402013778,0.03420844158580086
6387.849401785993,0.03454056645423604
6387.850401558208,0.034871350810372966
6387.851401330423,0.03520062061005303
6387.852401102638,0.03552820049908212
6387.853400874854,0.03585391387691521
6387.854400647069,0.03617758296151539
6387.855400419285,0.036499028855374226
6387.8564001915,0.03681807161267985
6387.857399963715,0.037134530307618596
6387.85839973593,0.0374482231037957
6387.8593995081455,0.03775896732476082
6387.860399280361,0.03806657952562398
6387.861399052576,0.03837087556574801
6387.862398824791,0.03867167068250388
6387.863398597006,0.0389687795660753
6387.864398369222,0.039262016435299404
6387.865398141437,0.0395511951145302
6387.866397913653,0.039836129111511694
6387.867397685868,0.04011663169624722
6387.868397458083,0.04039251598085148
6387.869397230298,0.04066359500037117
6387.8703970025135,0.04092968179455945
6387.871396774729,0.04119058949058835
6387.872396546944,0.041446131386682294
6387.873396319159,0.041696121036654286
6387.874396091374,0.04194037233532494
6387.87539586359,0.04217869960480293
6387.876395635805,0.04241091768160402
6387.877395408021,0.04263684200458437
6387.878395180236,0.0428562887036625
6387.879394952451,0.043069074689303245
6387.880394724666,0.04327501774273551
