Time,Filtered_EMG_Bicep,Filtered_EMG_Tricep
6804.624445165093,0.00409150483948309,0.0022844870387222693
6804.625444937308,0.004116470349732037,0.0022885531421700527
6804.626444709524,0.004140963827226125,0.0022931104074136667
6804.627444481738,0.004164684793591978,0.002298252992406015
6804.628444253954,0.004187339117293468,0.002304074365654439
6804.629444026169,0.004208647274929214,0.002310663605963995
6804.6304437983845,0.004228353099407518,0.0023181012257003537
6804.6314435706,0.004246232704782393,0.0023264547761762283
6804.632443342814,0.0042621032209948055,0.002335774551822913
6804.63344311503,0.004275830931798023,0.0023460896924692616
6804.634442887245,0.004287338400606103,0.002357404924409576
6804.635442659461,0.0042966102143681285,0.0023696981200922776
6804.636442431676,0.00430369707443255,0.0023829188039565198
6804.637442203892,0.004308718075948185,0.002396987678878596
6804.638441976106,0.004311861096846359,0.002411797188134295
6804.639441748322,0.004313381257697484,0.002427213065412548
6804.640441520537,0.004313597449410583,0.0024430767627839057
6804.6414412927525,0.004312886987757776,0.0024592085839472964
6804.642441064968,0.004311678537919482,0.002475411301378927
6804.643440837182,0.004310443534628245,0.002491474030568002
6804.644440609398,0.004309686391383775,0.002507176185823192
6804.645440381613,0.0043099338434929,0.0025222914239117003
6804.646440153829,0.004311723790872743,0.002536591550640646
6804.647439926044,0.00431559397605744,0.002549850396171456
6804.64843969826,0.004322070745105994,0.002561847657338008
6804.649439470474,0.004331658017235661,0.0025723726756802243
6804.65043924269,0.004344826481617342,0.0025812280912105127
6804.651439014905,0.00436200299992676,0.0025882332981011576
6804.65243878712,0.004383560235522322,0.002593227626542788
6804.653438559336,0.004409806604257261,0.0025960731821997847
6804.65443833155,0.0044409766740140305,0.002596657301113365
6804.655438103766,0.004477222111306184,0.002594894624241421
6804.656437875981,0.004518603242668079,0.00259072883353329
6804.657437648197,0.004565081339654509,0.0025841340892835533
6804.658437420412,0.004616511857862206,0.002575116169610553
6804.659437192627,0.004672638993598051,0.0025637132670398694
6804.660436964842,0.0047330919874018565,0.002549996366574601
6804.661436737058,0.004797383582206194,0.002534069116825285
6804.662436509273,0.004864910973808143,0.0025160671051919696
6804.663436281488,0.004934959515864955,0.0024961564603527926
6804.664436053703,0.00500670937565256,0.0024745317412423673
6804.665435825918,0.005079245272685328,0.00245141313660532
6804.666435598134,0.005151569355652395,0.0024270430734081886
6804.667435370349,0.005222617170427508,0.0024016823807293396
6804.668435142565,0.005291276536326873,0.0023756061597539823
6804.66943491478,0.0053564089848666405,0.0023490994836297538
6804.670434686995,0.0054168732429569315,0.0023224530216385225
6804.67143445921,0.005471550083922419,0.002295958667505292
6804.6724342314255,0.005519367743619303,0.002269905248081577
6804.673434003641,0.005559327020459106,0.0022445743824118735
6804.674433775856,0.005590525164368101,0.002220236543599332
6804.675433548071,0.005612177715116963,0.0021971473497746424
6804.676433320286,0.005623637548620594,0.002175544086196467
6804.677433092502,0.005624410488419929,0.0021556424477415796
6804.678432864717,0.0056141669232408365,0.0021376334977575035
6804.679432636933,0.005592748977982101,0.0021216808738750734
6804.680432409148,0.005560172979967421,0.002107918329029365
6804.681432181363,0.005516627271074624,0.0020964477437586666
6804.682431953578,0.0054624657782406045,0.002087337745546484
6804.6834317257935,0.005398198047079052,0.0020806230177653033
6804.684431498009,0.005324476569652185,0.0020763043042839064
6804.685431270224,0.005242082196719123,0.0020743490496455755
6804.686431042439,0.005151908295215711,0.0020746925773996944
6804.687430814654,0.00505494417668696,0.002077239702384457
6804.68843058687,0.004952258219061521,0.002081866684034786
6804.689430359085,0.004844981031930596,0.00208842343879277
6804.690430131301,0.004734288967484284,0.002096735931619574
6804.691429903516,0.004621388247459741,0.0021066086660814533
6804.692429675731,0.004507499938336794,0.0021178271994067143
6804.693429447946,0.004393845932979337,0.0021301606254605383
6804.6944292201615,0.00428163597855544,0.002143363992337156
6804.695428992377,0.004172055660498779,0.002157180650943461
6804.696428764592,0.0040662551740332014,0.0021713445668621154
6804.697428536807,0.0039653387365482405,0.0021855826682191815
6804.698428309022,0.0038703546016251936,0.002199617337628593
6804.699428081238,0.0037822857552306734,0.0022131691689682353
6804.700427853453,0.0037020414252226497,0.002225960085130155
6804.701427625669,0.0036304494868295515,0.0022377168526894024
6804.702427397884,0.0035682497456516454,0.00224817495515311
6804.703427170099,0.003516088012159146,0.0022570827275511266
6804.704426942314,0.0034745108986415996,0.0022642056276077536
6804.7054267145295,0.0034439613454489166,0.002269330513949228
6804.706426486745,0.003424774946822985,0.002272269802139649
6804.70742625896,0.003417177149824363,0.002272865370961884
6804.708426031175,0.0034212813574431176,0.002270992101169351
6804.70942580339,0.0034370879310033574,0.002266560946683658
6804.710425575606,0.0034644840892222722,0.0022595214563036477
6804.711425347821,0.0035032447213399027,0.002249863680126682
6804.712425120037,0.0035530341210114366,0.0022376194118981898
6804.713424892252,0.0036134085871450954,0.0022228627330202026
6804.714424664467,0.003683819769013393,0.002205709826777299
6804.715424436682,0.003763618622637362,0.0021863180246213024
6804.7164242088975,0.003852059922508472,0.002164884052306442
6804.717423981113,0.003948307406292336,0.0021416414815644768
6804.718423753328,0.00405143975802278,0.0021168574480285485
6804.719423525543,0.004160457703585401,0.0020908287313585717
6804.720423297758,0.004274292486135044,0.0020638772972712024
6804.721423069974,0.004391815933307676,0.0020363453998869306
6804.722422842189,0.0045118522483470124,0.002008590360154546
6804.723422614405,0.0046331915542371805,0.0019809791602444136
6804.724422386619,0.00475460509401219,0.0019538829969077314
6804.725422158835,0.004874861866305588,0.0019276719099869696
6804.72642193105,0.004992746381833705,0.001902709556953147
6804.7274217032655,0.005107077165679075,0.0018793481569708106
6804.728421475481,0.005216725576287128,0.0018579235977015972
6804.729421247695,0.005320634438600273,0.001838750697846587
6804.730421019911,0.005417835895533893,0.001822118637713915
6804.731420792126,0.005507467804657857,0.0018082865898932912
6804.732420564342,0.005588788002090218,0.0017974796051831484
6804.733420336557,0.005661185854393761,0.0017898848466749262
6804.734420108773,0.005724190680137901,0.0017856483065678563
6804.735419880987,0.005777476760616239,0.001784872160791735
6804.736419653203,0.005820864744420373,0.0017876129027689903
6804.737419425418,0.00585431934179861,0.0017938803549050332
6804.738419197633,0.005877943356691308,0.0018036375997575102
6804.739418969849,0.005891968289924099,0.0018168018160075138
6804.740418742063,0.005896741906444519,0.001833245953339321
6804.741418514279,0.005892713277748327,0.0018528011415170278
6804.742418286494,0.0058804159026201175,0.00187525971767868
6804.74341805871,0.005860449572502444,0.0019003787805019234
6804.744417830925,0.00583346167152841,0.0019278842202808616
6804.745417603141,0.005800128584917512,0.001957475197252974
6804.746417375355,0.005761137828216744,0.001988829036231768
6804.747417147571,0.005717171397634307,0.0020216064856226146
6804.748416919786,0.005668890697628364,0.00205545726220489
6804.749416692001,0.005616923270770871,0.0020900257723444953
6804.750416464217,0.005561851478968822,0.0021249568757713434
6804.751416236431,0.005504203275665239,0.002159901552135172
6804.752416008647,0.0054444452344825835,0.0021945223387104776
6804.753415780862,0.0053829780091575975,0.0022284984133491264
6804.754415553078,0.00532013435932034,0.002261530197017188
6804.755415325293,0.005256179784272937,0.0022933433584613454
6804.756415097509,0.005191315678640989,0.0023236921290463743
6804.757414869723,0.005125684788215534,0.0023523618726091966
6804.7584146419385,0.005059378634844804,0.0023791708854636446
6804.759414414154,0.004992446515723931,0.002403971408057816
6804.760414186369,0.0049249056619071665,0.0024266498150404795
6804.761413958585,0.004856752145969675,0.002447125940345041
6804.762413730799,0.0047879721426188826,0.002465351512217783
6804.763413503015,0.004718553161820601,0.0024813077245325514
6804.76441327523,0.0046484948895323865,0.0024950020449783015
6804.765413047446,0.004577819274018209,0.002506464437427257
6804.766412819661,0.004506579468924506,0.002515743229264255
6804.767412591877,0.004434867202403816,0.0025229008680392523
6804.768412364091,0.004362818143403753,0.0025280097909688272
6804.7694121363065,0.004290614934545551,0.00253114859684197
6804.770411908522,0.004218487742081905,0.0025323986759299717
6804.771411680737,0.004146712361128296,0.0025318414153439554
6804.772411452953,0.0040756060410984925,0.002529556052368751
6804.773411225167,0.004005521264987222,0.0025256182057410447
6804.774410997383,0.00393683777785112,0.002520099081479109
6804.775410769598,0.003869953238244862,0.002513065323923746
6804.776410541814,0.003805272933881546,0.002504579461331717
6804.777410314029,0.0037431990269135456,0.0024947008761814046
6804.778410086245,0.0036841197749129515,0.002483487208478022
6804.779409858459,0.0036283991332706753,0.0024709960739907394
6804.7804096306745,0.003576367107356618,0.0024572869550249696
6804.78140940289,0.0035283112030920593,0.0024424231084230925
6804.782409175105,0.0034844693165608192,0.0024264733396307824
6804.783408947321,0.0034450243789216316,0.0024095135174516283
6804.784408719535,0.0034101010052534696,0.0023916277549428733
6804.785408491751,0.0033797642857358126,0.002372909246541222
6804.786408263966,0.0033540207313916366,0.0023534607998397226
6804.787408036182,0.00333282126947793,0.0023333951096115297
6804.788407808397,0.0033160660826021546,0.00231283480339598
6804.789407580612,0.003303611002246554,0.0022919122747497283
6804.790407352827,0.0032952751065512638,0.0022707693268454203
6804.7914071250425,0.00329084913329448,0.0022495566615634084
6804.792406897258,0.003290104295254408,0.0022284332490519945
6804.793406669473,0.0032928010760063125,0.0022075655957632507
6804.794406441688,0.003298697598201502,0.0021871269035754954
6804.795406213903,0.003307557201795309,0.002167296091880217
6804.796405986119,0.003319154944049158,0.0021482566468746453
6804.797405758334,0.00333328282180445,0.002130195265993454
6804.79840553055,0.0033497536061080847,0.0021133002745870703
6804.799405302765,0.0033684032672929697,0.0020977598012470555
6804.80040507498,0.00338909205297198,0.0020837597005903194
6804.801404847195,0.0034117043506867507,0.0020714812051681516
6804.8024046194105,0.0034361475129224997,0.0020610982817033797
6804.803404391626,0.003462349850982214,0.0020527746774312017
6804.804404163841,0.003490258020292128,0.0020466606763038992
6804.805403936056,0.00351983401012237,0.0020428896330628287
6804.806403708271,0.0035510519014674653,0.0020415744016847987
6804.807403480487,0.003583894472927749,0.002042803816399929
6804.808403252702,0.0036183496338273286,0.002046639413694966
6804.809403024918,0.00365440656944231,0.002053112590630493
6804.810402797133,0.0036920514282023204,0.0020622223678192935
6804.811402569348,0.0037312624025452722,0.002073933870083022
6804.812402341563,0.0037720041656660293,0.0020881775725376957
6804.8134021137785,0.0038142217863953365,0.0021048493017574795
6804.814401885994,0.0038578343848171856,0.0021238109402752178
6804.815401658209,0.0039027288721692867,0.0021448917608384204
6804.816401430424,0.003948754155418384,0.0021678903106292563
6804.817401202639,0.003995716209596476,0.0021925767671212184
6804.818400974855,0.004043374425312415,0.0022186956931782966
6804.81940074707,0.004091439595751762,0.002245969131919456
6804.820400519286,0.004139573809198817,0.0022740999990280846
6804.821400291501,0.0041873923850497515,0.002302775743378603
6804.822400063716,0.00423446786054727,0.002331672254899568
6804.823399835931,0.004280335911767806,0.0023604580057607545
6804.824399608146,0.004324502982024277,0.002388798415171566
6804.825399380362,0.0043664553111559265,0.0024163604234284097
6804.826399152577,0.004405669029626252,0.0024428172471636805
6804.827398924792,0.004441621000379027,0.002467853269743128
6804.828398697007,0.004473800131256646,0.002491169003345951
6804.829398469223,0.0045017189162752,0.0025124860458905197
6804.830398241438,0.0045249249943086125,0.002531551945607235
6804.831398013654,0.00454301254397295,0.002548144871741512
6804.832397785869,0.004555633353569326,0.0025620779647034346
6804.833397558084,0.004562507396278778,0.002573203203269967
6804.834397330299,0.00456343269302916,0.0025814145899590653
6804.835397102514,0.004558294165727057,0.0025866504376363775
6804.83639687473,0.004547071096776444,0.0025888945608330194
6804.837396646945,0.004529842746368665,0.002588176235644718
6804.83839641916,0.004506791653945566,0.002584568871569664
6804.839396191375,0.004478204170897289,0.0025781874183152457
6804.840395963591,0.004444467848626143,0.0025691846105773265
6804.841395735806,0.004406065456346398,0.002557746237914016
6804.842395508022,0.004363565632125058,0.0025440857014380506
6804.843395280237,0.00431761045067317,0.0025284381576919476
6804.844395052452,0.004268900453934693,0.002511054538311158
6804.845394824667,0.004218177857594375,0.002492195683351025
6804.846394596882,0.004166208683726996,0.002472126761625694
6804.847394369098,0.004113764513758014,0.0024511120931257555
6804.848394141313,0.004061604487048743,0.002429410444905723
6804.849393913528,0.004010458146386893,0.0024072708399229888
6804.850393685743,0.003961009739439924,0.0023849288900141424
6804.851393457959,0.003913884560678097,0.002362603640379691
6804.852393230174,0.0038696378134872446,0.002340494906092957
6804.85339300239,0.003828746295549934,0.002318781096419415
6804.854392774604,0.003791603006620091,0.0022976175488509725
6804.85539254682,0.00375851459190601,0.0022771354177454324
6804.856392319035,0.0037297013991355746,0.0022574411734221605
6804.85739209125,0.003705299857280106,0.002238616759779185
6804.858391863466,0.0036853668687987636,0.002220720432945288
6804.85939163568,0.00366988591405913,0.0022037882703729982
6804.860391407896,0.003658774564048922,0.0021878363044852372
6804.861391180111,0.0036518930753539156,0.0021728631937573874
6804.862390952327,0.00364905372449614,0.002158853295733432
6804.863390724542,0.0036500305667981443,0.002145779955321835
6804.864390496758,0.0036545693835925053,0.002133608776265498
6804.865390268972,0.0036623976611642453,0.002122300623945012
6804.866390041188,0.0036732344637004995,0.0021118141405138528
6804.867389813403,0.003686800008086685,0.002102107645590957
6804.868389585618,0.0037028246669762854,0.002093140415832232
6804.869389357834,0.0037210570839638713,0.002084873430638433
6804.870389130048,0.003741271121016682,0.002077269701270975
6804.871388902264,0.003763271457447563,0.0020702942724349777
6804.872388674479,0.003786897752873413,0.002063913939837672
6804.873388446695,0.0038120273109495265,0.002058096706071676
6804.87438821891,0.0038385761417197898,0.0020528110122198006
6804.8753879911255,0.0038664982841750996,0.0020480248135735916
6804.87638776334,0.0038957832839714066,0.0020437045866387713
6804.877387535556,0.003926451843114032,0.002039814348015196
6804.878387307771,0.003958549823012118,0.002036314742232859
6804.879387079986,0.0039921409053623015,0.0020331622395081644
6804.880386852202,0.004027298242452103,0.0020303084954067584
6804.881386624416,0.004064095388844119,0.0020276999518116503
6804.882386396632,0.004102596783902352,0.002025277766418939
6804.883386168847,0.004142848097606929,0.0020229781263487187
6804.884385941063,0.00418486682742023,0.002020732947968874
6804.885385713278,0.004228633578544425,0.002018470917819316
6804.8863854854935,0.004274084452369418,0.0020161188002228787
6804.887385257708,0.004321104931542424,0.002013602927463406
6804.888385029924,0.0043695256052504764,0.0020108507980036504
6804.889384802139,0.004419120015187596,0.0020077927273769707
6804.890384574354,0.0044696048036607285,0.0020043635128250263
6804.89138434657,0.004520642219339238,0.00200050408828977
6804.892384118784,0.004571844912053466,0.0019961631667964434
6804.893383891,0.004622782840203148,0.0019912988821290294
6804.894383663215,0.004672992019477024,0.0019858804327585297
6804.895383435431,0.004721984764905072,0.0019798896937287115
6804.896383207646,0.004769261038402209,0.001973322709432284
6804.8973829798615,0.004814320522746284,0.0019661909324660966
6804.898382752076,0.004856675093044729,0.0019585220527175906
6804.899382524292,0.004895861419928854,0.0019503602832169613
6804.900382296507,0.004931453472238052,0.0019417660327213711
6804.901382068722,0.00496307466775297,0.0019328149728048134
6804.902381840938,0.004990409374907273,0.001923596571492155
6804.903381613152,0.0050132134333297305,0.00191421220969786
6804.904381385368,0.005031323325538902,0.001904773024447209
6804.905381157583,0.005044663565114174,0.0018953976282265717
6804.906380929799,0.005053251792123194,0.0018862098288291568
6804.907380702014,0.005057201053049496,0.0018773364238998187
6804.9083804742295,0.005056718817753247,0.0018689050843382217
6804.909380246444,0.005052102418356951,0.001861042289716138
6804.910380018659,0.005043730765016956,0.0018538712613482904
6804.911379790875,0.005032052419666103,0.001847509870040142
6804.91237956309,0.005017570382363796,0.0018420685545264552
6804.913379335306,0.005000824199037385,0.0018376483257088428
6804.91437910752,0.004982370165655197,0.0018343389258100482
6804.915378879736,0.004962760470673493,0.0018322171793355114
6804.916378651951,0.004942522126340241,0.0018313455507847536
6804.917378424167,0.0049221365387348125,0.001831770930654354
6804.918378196382,0.004902020574884895,0.001833523692635953
6804.919377968597,0.0048825099854599785,0.001836617070793297
6804.920377740812,0.004863845993714055,0.001841046881825804
6804.921377513027,0.004846165732112525,0.0018467915838615485
6804.922377285243,0.004829497002334893,0.0018538126511630612
6804.923377057458,0.004813757594359789,0.0018620552586369942
6804.924376829673,0.004798759169975163,0.0018714492843946954
6804.925376601888,0.00478421551649122,0.001881910628710697
6804.926376374104,0.00476975480958656,0.0018933428161889703
6804.927376146319,0.004754935377162784,0.0019056388160803483
6804.928375918535,0.004739264303795359,0.0019186830080371799
6804.92937569075,0.00472221804446489,0.0019323532483482857
6804.930375462965,0.004703264051678506,0.0019465230337186207
6804.93137523518,0.004681882317361006,0.0019610637735046066
6804.932375007395,0.004657585746630965,0.0019758471467576488
6804.933374779611,0.004629938442345523,0.0019907474579037264
6804.934374551826,0.004598571248514358,0.0020056438499554737
6804.935374324041,0.004563194170733052,0.0020204222124134952
6804.936374096256,0.004523605475039333,0.002034976642733732
6804.937373868472,0.004479697384399891,0.002049210376917002
6804.938373640687,0.004431458431973886,0.00206303617217518
6804.939373412903,0.004378972724763151,0.0020763761837095268
6804.940373185118,0.004322416563226208,0.0020891614272736344
6804.9413729573325,0.004262052977902111,0.0021013309608805767
6804.942372729548,0.004198224760973729,0.002112830943176473
6804.943372501763,0.004131346518659943,0.0021236137227506743
6804.944372273979,0.004061896187100379,0.0021336370858276144
6804.945372046194,0.0039904063600295,0.002142863753467429
6804.946371818409,0.003917455682304787,0.002151261183129551
6804.947371590624,0.003843660476202344,0.0021588016895779864
6804.94837136284,0.003769666683762445,0.002165462849640685
6804.949371135055,0.003696142130925626,0.0021712281051750777
6804.950370907271,0.0036237690729614574,0.0021760874597360155
6804.951370679486,0.0035532369834754933,0.002180038193060051
6804.9523704517005,0.0034852355764933055,0.002183085563504933
6804.953370223916,0.00342044806005058,0.002185243484226337
6804.954369996131,0.0033595445953156756,0.002186535137157037
6804.955369768347,0.00330317589318694,0.0021869934681674184
6804.956369540562,0.003251966844503611,0.0021866615179824108
6804.957369312777,0.0032065100745522625,0.002185592576467886
6804.958369084992,0.0031673593577244657,0.002183850173824907
6804.959368857208,0.0031350229265088526,0.0021815079250542724
6804.960368629423,0.003109956836650808,0.0021786492210521973
6804.961368401639,0.0030925586639614904,0.002175366713090244
6804.962368173854,0.003083161862612584,0.0021717614830156734
6804.9633679460685,0.0030820310867562257,0.002167941760600285
6804.964367718284,0.0030893586795993533,0.0021640210659127543
6804.965367490499,0.0031052623983486125,0.002160115712817308
6804.966367262715,0.0031297842947118895,0.002156341685270635
6804.96736703493,0.003162890528950651,0.002152810977287907
6804.968366807145,0.003204471796198676,0.0021496275678951756
6804.96936657936,0.0032543440316826064,0.0021468832665643375
6804.970366351576,0.0033122491473240373,0.002144653684845876
6804.971366123791,0.003377855684208405,0.002142994564019282
6804.972365896007,0.0034507593706907813,0.002141938643035507
6804.973365668222,0.0035304836371621473,0.0021414932076580795
6804.9743654404365,0.003616480204302221,0.002141638424795315
6804.975365212652,0.003708129966600262,0.002142326539874297
6804.976364984867,0.0038047444962762624,0.0021434820064929606
6804.977364757083,0.0039055685224659623,0.002145002614818017
6804.978364529298,0.004009783678380584,0.002146761662551934
6804.979364301513,0.004116513704857998,0.0021486111645104508
6804.980364073728,0.004224831211078102,0.002150386044043091
6804.981363845944,0.0043337660372444855,0.0021519092040817923
6804.982363618159,0.004442315209709393,0.0021529973314614015
6804.983363390375,0.004549454390175843,0.002153467243577437
6804.984363162589,0.004654150599807882,0.002153142553141454
6804.9853629348045,0.004755375897331427,0.002151860417483897
6804.98636270702,0.004852121663683674,0.0021494781570523948
6804.987362479235,0.004943413195859259,0.002145879561787605
6804.988362251451,0.005028324373582216,0.002140980730768056
6804.989362023665,0.005105992158690414,0.002134735294880833
6804.990361795881,0.0051756306032086,0.0021271388589774952
6804.991361568096,0.005236543925909062,0.002118232485301281
6804.992361340312,0.005288138119458411,0.00210810504291519
6804.993361112527,0.005329930495652743,0.002096894283238525
6804.994360884743,0.00536155660254462,0.0020847865675937796
6804.995360656957,0.005382774110923586,0.0020720152457615612
6804.9963604291725,0.0053934635607902955,0.0020588577376762273
6804.997360201388,0.005393626166113342,0.002045631391972694
6804.998359973603,0.0053833790706280665,0.002032688192088154
6804.999359745819,0.005362948501538203,0.0020204083731689792
6805.000359518033,0.005332661245138332,0.002009193025590745
6805.001359290249,0.005292934836192236,0.001999455803654351
6805.002359062464,0.005244266837225781,0.0019916139178655953
6805.00335883468,0.0051872235782950814,0.001986078644725343
6805.004358606895,0.005122428713444796,0.0019832456238192053
6805.005358379111,0.005050551913296152,0.0019834852211131435
6805.006358151325,0.0049722979575588045,0.0019871332236803133
6805.00735792354,0.004888396428604831,0.001994482106780334
6805.008357695756,0.004799592142975609,0.002005773088153313
6805.009357467971,0.004706636397034924,0.0020211891598342704
6805.010357240187,0.004610279058199639,0.0020408492669699418
6805.011357012401,0.0045112615085390285,0.0020648037840522533
6805.012356784617,0.004410310427250638,0.002093031414026028
6805.013356556832,0.00430813236096514,0.002125437599228573
6805.014356329048,0.00420540897298031,0.002161854484720613
6805.015356101263,0.004102792808177408,0.002202042416555308
6805.016355873479,0.00400090339391315,0.002245692897537025
6805.017355645693,0.0039003235392265664,0.0022924328755857286
6805.018355417908,0.00380159578847076,0.002341830216526238
6805.019355190124,0.0037052190946361024,0.002393400213768466
6805.020354962339,0.00361164585060746,0.002446613001903566
6805.021354734555,0.0035212794251351484,0.002500901753787387
6805.022354506769,0.0034344723167870276,0.0025556715359695064
6805.023354278985,0.0033515250074554986,0.002610308673751033
6805.0243540512,0.0032726855816484924,0.0026641904497275337
6805.025353823416,0.0031981501646802125,0.0027166949437376635
6805.026353595631,0.0031280642177198355,0.002767210820354007
6805.027353367846,0.0030625247204257426,0.0028151468793977466
6805.028353140061,0.0030015832687476478,0.00285994120308193
6805.029352912276,0.0029452500970546555,0.002901069752397807
6805.030352684492,0.0028934989912924617,0.0029380542762968576
6805.031352456707,0.0028462730060084445,0.002970469402969962
6805.032352228923,0.0028034908533235304,0.0029979487911518258
6805.033352001137,0.0027650538063512774,0.003020190232378118
6805.034351773353,0.0027308529457132818,0.0030369596124278546
6805.035351545568,0.0027007765603245812,0.003048093660658458
6805.036351317784,0.002674717486921079,0.003053501432224995
6805.037351089999,0.0026525801536966104,0.0030531644804573607
6805.038350862214,0.0026342871103405283,0.003047135701194654
6805.039350634429,0.002619784881091263,0.003035536877706913
6805.040350406644,0.002609049031149071,0.003018555013106439
6805.04135017886,0.0026020883604097864,0.002996437590505363
6805.042349951075,0.002598948142001292,0.002969486940038429
6805.043349723291,0.0025997123190437785,0.0029380539088545107
6805.044349495505,0.0026045045477030063,0.002902531019547127
6805.045349267721,0.0026134879160510226,0.0028633452705304993
6805.046349039936,0.0026268630967312403,0.0028209507035976767
6805.047348812152,0.002644864651406357,0.002775820867182948
6805.048348584367,0.0026677552339217873,0.0027284413367385132
6805.0493483565815,0.0026958175470058105,0.002679302479720277
6805.050348128797,0.0027293440850155682,0.0026288926430320845
6805.051347901012,0.0027686249181963015,0.002577691907313251
6805.052347673228,0.002813933983708699,0.002526166524347266
6805.053347445443,0.0028655144715299024,0.0024747641357412277
6805.054347217658,0.0029235639048712063,0.0024239098462266817
6805.055346989873,0.002988219461683503,0.0023740031877546868
6805.056346762089,0.0030595440318579633,0.00232541597005962
6805.057346534304,0.003137513480670969,0.0022784909770252387
6805.05834630652,0.0032220055757232963,0.002233541441291165
6805.059346078735,0.003312791011341719,0.0021908512144093264
6805.0603458509495,0.003409526930239056,0.0021506755354220746
6805.061345623165,0.00351175329405629,0.0021132422724854058
6805.06234539538,0.0036188923751684803,0.0020787534743938376
6805.063345167596,0.00373025152563232,0.0020473870391386774
6805.064344939811,0.0038450292415394996,0.002019298293241081
6805.065344712026,0.003962324403522573,0.0019946212770901696
6805.066344484241,0.004081148449712845,0.001973469550906889
6805.067344256457,0.004200440129891286,0.0019559363800577875
6805.068344028672,0.004319082399287008,0.0019420942293248747
6805.069343800888,0.004435920946679626,0.0019319935885530703
6805.070343573103,0.004549783832771405,0.0019256612492085632
6805.0713433453175,0.004659501742598338,0.001923098220775309
6805.072343117533,0.0047639283929294144,0.0019242774941277008
6805.073342889748,0.004861960637019158,0.0019291418348781457
6805.074342661964,0.004952557781276854,0.001937601753551756
6805.075342434179,0.005034759637205295,0.0019495337737639314
6805.076342206394,0.005107702933004327,0.0019647791076292808
6805.077341978609,0.00517063588148585,0.001983142841850377
6805.078341750825,0.005222930861180184,0.0020043937291169705
6805.07934152304,0.005264095243044069,0.002028264661033326
6805.080341295256,0.005293780377417557,0.002054453869268495
6805.081341067471,0.005311788692235732,0.0020826268668559197
6805.0823408396855,0.00531807879395757,0.0021124191169781255
6805.083340611901,0.005312768423648024,0.0021434394190752116
6805.084340384116,0.005296135109197195,0.0021752740302012504
6805.085340156332,0.005268614396498095,0.0022074915689929255
6805.086339928547,0.005230795642751461,0.0022396487560021085
6805.087339700762,0.005183415453837356,0.0022712970194494852
6805.088339472977,0.005127348867002358,0.0023019899416921994
6805.089339245193,0.0050635983080441595,0.0023312914445839834
6805.090339017408,0.004993280244735902,0.00235878452470131
6805.091338789624,0.004917609382367246,0.0023840802710744786
6805.092338561839,0.0048378802569633865,0.0024068268408390203
6805.093338334053,0.0047554462172575175,0.002426718032611048
6805.094338106269,0.004671696043616925,0.002443501085301213
6805.095337878484,0.0045880287522523724,0.002456983352990877
6805.0963376507,0.004505827360731697,0.002467037567590688
6805.097337422915,0.004426432478694703,0.002473605480351419
6805.09833719513,0.004351116553729193,0.0024766997485379657
6805.099336967345,0.00428105950646804,0.0024764040048694705
6805.100336739561,0.004217326378448993,0.0024728711227660054
6805.101336511776,0.004160847513920426,0.0024663197599002515
6805.102336283992,0.004112401708754007,0.0024570293098361224
6805.103336056207,0.004072602679644848,0.002445333421086633
6805.104335828421,0.0040418891210450645,0.0024316122700724927
6805.105335600637,0.0040205185130849355,0.0024162837979869022
6805.106335372852,0.004008564719121357,0.002399794127919093
6805.107335145068,0.004005919276656006,0.002382607369970808
6805.108334917283,0.004012296153768576,0.0023651950234039997
6805.109334689498,0.004027239635511862,0.0023480252149656405
6805.110334461713,0.004050134953406654,0.002331552054833382
6805.111334233929,0.004080221287036123,0.0023162054070090393
6805.112334006144,0.004116606807698859,0.0023023813411104776
6805.113333778359,0.00415828544909291,0.0022904334781936532
6805.114333550574,0.00420415508811788,0.002280665399571195
6805.115333322789,0.004253036855807588,0.0022733242684731068
6805.116333095005,0.004303695393420135,0.002268595803885907
6805.11733286722,0.004354859966234866,0.002266600720881718
6805.118332639436,0.0044052463717887454,0.002267392704488236
6805.11933241165,0.0044535795070417905,0.002270957923448578
6805.120332183866,0.004498616328172223,0.0022772160321802844
6805.121331956081,0.004539168800489939,0.0022860225687456855
6805.122331728297,0.004574126326158658,0.0022971726379366654
6805.123331500512,0.004602477063273295,0.002310405760409463
6805.124331272727,0.004623327511244177,0.0023254117557176142
6805.125331044942,0.004635919732938509,0.002341837508705974
6805.126330817157,0.00463964561806223,0.002359294460002537
6805.127330589373,0.00463405767845957,0.0023773666693076823
6805.128330361588,0.004618876008824338,0.002395619309010613
6805.129330133804,0.004593991224800487,0.0024136074339844112
6805.130329906018,0.0045594633794413504,0.002430884841685424
6805.131329678234,0.004515517052421924,0.0024470128091466426
6805.132329450449,0.004462532998739448,0.002461568496333411
6805.1333292226645,0.004401036901012562,0.0024741528431321863
6805.13432899488,0.004331685842176782,0.0024843978363378034
6805.135328767095,0.00425525308710866,0.0024919730570819266
6805.13632853931,0.004172611674090436,0.0024965914387224835
6805.137328311525,0.004084717229104925,0.0024980141862639277
6805.138328083741,0.003992590351330175,0.002496054831572516
6805.139327855956,0.003897298870775581,0.0024905824081271283
6805.140327628172,0.0037999402498875476,0.002481523715960709
6805.141327400386,0.0037016243947867885,0.002468864624591644
6805.142327172602,0.003603457138927738,0.0024526503511278206
6805.143326944817,0.0035065246337911762,0.0024329846610284915
6805.1443267170325,0.0034118788335007625,0.0024100279686258483
6805.145326489248,0.0033205242289958132,0.0023839943638719876
6805.146326261463,0.0032334059850059375,0.0023551476475005386
6805.147326033678,0.003151399627157116,0.002323796487096921
6805.148325805893,0.0030753023833835296,0.002290288800450794
6805.149325578109,0.003005826207493783,0.0022550054581360044
6805.150325350324,0.0029435924307713492,0.0022183534043512363
6805.15132512254,0.0028891279193576655,0.002180758322081803
6805.152324894754,0.0028428625650684237,0.002142656993353818
6805.15332466697,0.002805127907894983,0.002104489513021404
6805.154324439185,0.002776156689426539,0.0020666915104943133
6805.1553242114005,0.0027560831712431333,0.0020296865324652266
6805.156323983616,0.0027449441036819975,0.001993878747147018
6805.157323755831,0.0027426802741145583,0.001959646141572991
6805.158323528046,0.002749138594810325,0.0019273343893847692
6805.159323300261,0.002764074721702445,0.0018972515601246795
6805.160323072477,0.0027871562352309387,0.0018696638180428597
6805.161322844692,0.0028179664575329138,0.0018447922171306445
6805.162322616908,0.002856009017554319,0.0018228106414988992
6805.163322389122,0.0029007132984886375,0.0018038448747426793
6805.164322161338,0.0029514409000697553,0.001787972721485683
6805.165321933553,0.003007493216174363,0.0017752250594387593
6805.1663217057685,0.0030681201682472353,0.0017655876779750774
6805.167321477984,0.0031325300512070418,0.001759003766619271
6805.168321250199,0.0031999003486899882,0.001755376954700971
6805.169321022414,0.0032693892834099636,0.0017545748522640786
6805.170320794629,0.003340147825053889,0.0017564330695152184
6805.171320566845,0.003411331902575392,0.0017607596793876884
6805.17232033906,0.0034821146289371625,0.0017673400449234188
6805.173320111276,0.00355169838312814,0.0017759418846854816
6805.17431988349,0.0036193265734333646,0.0017863204147812435
6805.175319655706,0.0036842948460825437,0.001798223392363011
6805.176319427921,0.003745961453303087,0.0018113958935624052
6805.1773192001365,0.0038037565040154363,0.0018255846895960106
6805.178318972352,0.0038571899087255146,0.0018405421341473867
6805.179318744566,0.003905857963922439,0.001856029525982936
6805.180318516782,0.003949448629397696,0.001871819940528881
6805.181318288997,0.003987745577539501,0.0018877005245866382
6805.182318061213,0.00402063103531993,0.0019034742339103026
6805.183317833428,0.004048087346321442,0.0019189609904694206
6805.184317605644,0.004070197106986514,0.001933998263064212
6805.185317377858,0.004087141697143945,0.0019484411251173002
6805.186317150074,0.004099198008805972,0.001962161892282676
6805.187316922289,0.004106733161897924,0.0019750494696164672
6805.1883166945045,0.00411019701569852,0.0019870085368596793
6805.18931646672,0.004110112407491341,0.0019979586749892843
6805.190316238934,0.0041070632849689445,0.002007833500947854
6805.19131601115,0.004101681154709643,0.0020165798465311287
6805.192315783365,0.004094630432234014,0.002024156999147983
6805.193315555581,0.004086593313232931,0.0020305360112406958
6805.194315327796,0.004078254723009804,0.0020356990711714426
6805.195315100011,0.004070287782330196,0.0020396389097494245
6805.196314872226,0.004063340088213941,0.002042358205469253
6805.197314644442,0.004058020989848731,0.002043868959393599
6805.198314416657,0.004054889971117055,0.002044191833175557
6805.199314188872,0.004054446222475181,0.0020433554654083422
6805.200313961088,0.004057119466682927,0.002041395790955498
6805.201313733302,0.004063262084010447,0.002038355390290057
6805.202313505518,0.004073142573899845,0.0020342829084809898
6805.203313277733,0.0040869403979887755,0.0020292326097959344
6805.204313049949,0.004104742262431598,0.0020232641487549006
6805.205312822164,0.004126539896164455,0.002016442615803272
6805.206312594379,0.004152229354256593,0.0020088388628426842
6805.207312366594,0.004181611827700077,0.0020005300614418403
6805.20831213881,0.004214395896129985,0.001991600414668326
6805.209311911025,0.004250201145265785,0.001982141928885011
6805.21031168324,0.00428856309617588,0.001972255139771387
6805.211311455456,0.00432893943574744,0.001962049669250133
6805.21231122767,0.004370717553863146,0.001951644479112387
6805.213310999886,0.004413223355353186,0.0019411677065259937
6805.214310772101,0.0044557312324801585,0.001930756019601026
6805.215310544317,0.004497474994223386,0.0019205534871443923
6805.216310316532,0.0045376595036084435,0.001910709982977435
6805.217310088747,0.0045754728151214345,0.0019013791439512486
6805.218309860962,0.00461009872321094,0.001892715901718451
6805.2193096331775,0.004640729760470363,0.0018848736335147797
6805.220309405393,0.004666580739159635,0.0018780010229865348
6805.221309177608,0.004686902884400159,0.0018722387676942999
6805.222308949824,0.004700998490798649,0.0018677162976856395
6805.223308722038,0.0047082358889899666,0.00186454867627115
6805.224308494254,0.004708064366492676,0.0018628338437093094
6805.225308266469,0.004700028575166414,0.0018626503362683244
6805.226308038685,0.004683781897354995,0.001864055564915347
6805.2273078109,0.004659098240455538,0.001867084676990505
6805.228307583115,0.004625881772715002,0.0018717499667877274
6805.22930735533,0.0045841741833784954,0.0018780407599392806
6805.2303071275455,0.00453415914422048,0.0018859236769264358
6805.231306899761,0.004476163775150143,0.0018953431847346866
6805.232306671976,0.004410657054703336,0.0019062223685639213
6805.233306444192,0.0043382452109252045,0.0019184638801766811
6805.234306216406,0.004259664152619067,0.001931951028175901
6805.235305988622,0.0041757690028152,0.0019465489762238936
6805.236305760837,0.004087520842408582,0.001962106033881673
6805.237305533053,0.003995970878827241,0.001978455065227743
6805.238305305268,0.0039022423953784615,0.0019954150746148737
6805.239305077483,0.0038075109752607954,0.0020127930287219134
6805.240304849698,0.003712983592408069,0.0020303859341289413
6805.2413046219135,0.003619877189702567,0.0020479831264250885
6805.242304394129,0.0035293973247995792,0.002065368673444242
6805.243304166344,0.0034427173895504467,0.0020823237860112796
6805.244303938559,0.0033609588434276227,0.0020986291705123324
6805.245303710774,0.003285172867602979,0.00211406731838074
6805.24630348299,0.0032163238362466753,0.0021284247751995437
6805.247303255205,0.0031552749817128282,0.00214149445948023
6805.248303027421,0.00310277656872517,0.002153078114816268
6805.249302799636,0.003059456788963653,0.0021629889794298703
6805.250302571851,0.003025815471080162,0.002171054740942726
6805.251302344066,0.0030022206021946985,0.0021771208110244107
6805.2523021162815,0.0029889075818380724,0.002181053905010153
6805.253301888497,0.0029859810630374095,0.0021827458475160008
6805.254301660712,0.002993419165055156,0.00218211745249143
6805.255301432927,0.003011079774372107,0.0021791222566330476
6805.256301205142,0.0030387085954651336,0.0021737498375406397
6805.257300977358,0.003075948567861783,0.0021660284450527143
6805.258300749573,0.0031223502315862843,0.0021560267239427435
6805.259300521789,0.0031773826283594563,0.0021438543875543273
6805.260300294003,0.003240444405020453,0.0021296617841241347
6805.261300066219,0.003310874924576776,0.0021136383688598157
6805.262299838434,0.0033879653167531282,0.002096010156126634
6805.2632996106495,0.0034709694414513785,0.0020770362700064868
6805.264299382865,0.0035591146843197974,0.0020570047308838247
6805.26529915508,0.003651612404540595,0.002036227619354556
6805.266298927295,0.0037476677751762497,0.002015035761681341
6805.26729869951,0.003846488730747023,0.0019937730889732683
6805.268298471726,0.003947293764322597,0.0019727908320573808
6805.269298243941,0.004049318384339913,0.0019524417187152514
6805.270298016157,0.004151820147541809,0.0019330743320385996
6805.271297788371,0.004254082332065522,0.0019150277652130161
6805.272297560587,0.004355416480676146,0.0018986266728253241
6805.273297332802,0.004455164169160613,0.001884176777158101
6805.2742971050175,0.004552698386606352,0.0018719608437236725
6805.275296877233,0.004647424850618217,0.0018622351000862065
6805.276296649448,0.004738783461017006,0.0018552260466174854
6805.277296421663,0.004826249973373356,0.0018511276038905222
6805.278296193878,0.004909337899239548,0.0018500985558629291
6805.279295966094,0.004987600632891167,0.0018522602736250023
6805.280295738309,0.005060633826963629,0.0018576947361591566
6805.281295510525,0.005128078025104719,0.0018664428991454882
6805.282295282739,0.005189621481907286,0.0018785034937860302
6805.283295054955,0.005245002995649001,0.001893832349709458
6805.28429482717,0.0052940145052502805,0.001912342316514581
6805.285294599385,0.005336503186559833,0.0019339038180852426
6805.286294371601,0.005372372809439535,0.0019583460422902795
6805.287294143816,0.005401584157907557,0.0019854587655744283
6805.288293916031,0.005424154367951685,0.0020149948303562703
6805.289293688246,0.005440155125366943,0.0020466733106487955
6805.290293460462,0.00544970979594349,0.002080183398806483
6805.291293232677,0.005452989690684199,0.0021151890181877386
6805.292293004893,0.005450209739870774,0.002151334120183825
6805.293292777107,0.0054416238454674205,0.002188248575673479
6805.294292549323,0.005427520147145243,0.0022255545386712654
6805.295292321538,0.005408216431360703,0.0022628731490478243
6805.296292093753,0.005384055935365534,0.002299831436840476
6805.297291865969,0.005355403784341546,0.0023360692783847854
6805.298291638184,0.005322644203516482,0.002371246238832617
6805.299291410399,0.005286178500897019,0.0024050481216423823
6805.300291182614,0.005246423687175237,0.0024371930224205943
6805.30129095483,0.005203811522805055,0.00246743664986962
6805.302290727045,0.005158787768085108,0.0024955766592883125
6805.303290499261,0.00511181146380694,0.0025214557803926478
6805.304290271475,0.005063354159338061,0.002544963617496494
6805.305290043691,0.005013899068439911,0.002566037126261486
6805.306289815906,0.004963940130683374,0.0025846598834126187
6805.307289588121,0.004913980911689467,0.00260086033004295
6805.308289360337,0.004864533235579339,0.002614709172478315
6805.309289132551,0.004816115418053081,0.002626316077155984
6805.310288904767,0.004769249934729735,0.0026358257284929904
6805.311288676982,0.004724460311009279,0.0026434132726764867
6805.312288449198,0.004682266995972501,0.002649279174281858
6805.313288221413,0.004643182033876213,0.0026536435630406556
6805.314287993629,0.004607702471515667,0.002656740215349705
6805.315287765843,0.004576302577203439,0.0026588103677080035
6805.3162875380585,0.004549425048725138,0.0026600965795255667
6805.317287310274,0.004527471469001545,0.0026608368455812723
6805.318287082489,0.004510792362326159,0.0026612591070982014
6805.319286854705,0.004499677297946486,0.002661576239713416
6805.320286626919,0.004494345540253032,0.0026619815329236825
6805.321286399135,0.004494937742708993,0.0026626446402775207
6805.32228617135,0.004501509147816551,0.0026637079714230765
6805.323285943566,0.00451402470566318,0.0026652835028317607
6805.324285715781,0.004532356450389625,0.002667449999711687
6805.325285487996,0.004556283363860012,0.0026702506690404475
6805.326285260211,0.004585493815412981,0.0026736912982358724
6805.3272850324265,0.004619590515376021,0.0026777389694096795
6805.328284804642,0.004658097776130739,0.0026823214706976394
6805.329284576857,0.004700470756750869,0.002687327545094337
6805.330284349073,0.004746106292630686,0.0026926081115406465
6805.331284121287,0.004794354877934238,0.0026979785562814156
6805.332283893503,0.0048445333559792355,0.0027032221314770067
6805.333283665718,0.0048959378711926245,0.0027080944331159514
6805.334283437934,0.004947856655622706,0.0027123288842404113
6805.335283210149,0.004999582266637266,0.00271564312656435
6805.336282982364,0.005050422947869722,0.002717746200644549
6805.337282754579,0.005099712844496329,0.0027183463481425677
6805.3382825267945,0.005146820875286875,0.0027171592092611095
6805.33928229901,0.005191158167005528,0.002713916145179522
6805.340282071225,0.005232184103574547,0.00270837240014821
6805.341281843441,0.005269411205546469,0.0027003148191635383
6805.342281615655,0.005302409163565442,0.002689568850014989
6805.343281387871,0.00533080834691278,0.0026760045867270216
6805.344281160086,0.0053543030069001,0.002659541648846353
6805.345280932302,0.00537265424978718,0.0026401527290473613
6805.346280704517,0.0053856927193214185,0.002617865689605337
6805.347280476732,0.005393320846507737,0.002592764162430232
6805.348280248947,0.005395514504832345,0.0025649866969008265
6805.3492800211625,0.005392323915509402,0.0025347245680833958
6805.350279793378,0.005383873631771376,0.0025022183814580813
6805.351279565593,0.005370361397178989,0.0024677535979049205
6805.352279337809,0.005352055668622757,0.002431655079003953
6805.353279110023,0.005329291642451902,0.0023942807435751792
6805.354278882239,0.00530246568409359,0.002356014452587388
6805.355278654454,0.005272028093473504,0.002317258297842989
6805.35627842667,0.005238474155120841,0.0022784245261686623
6805.357278198885,0.005202333482059966,0.002239927352812065
6805.3582779711,0.005164157801817527,0.002202174905528756
6805.359277743315,0.005124507521239524,0.0021655615125773697
6805.3602775155305,0.005083937566049368,0.0021304605106987236
6805.361277287746,0.005042983052327209,0.0020972177023838964
6805.362277059961,0.005002145304037955,0.002066145546508827
6805.363276832177,0.004961878642407293,0.002037518142766629
6805.364276604391,0.004922578313653796,0.002011567071926051
6805.365276376607,0.00488456992200317,0.001988478159227449
6805.366276148822,0.004848100765471232,0.001968389216725788
6805.367275921038,0.004813333475376246,0.0019513887977607011
6805.368275693253,0.00478034229667958,0.001937515980799518
6805.369275465468,0.004749112221094499,0.0019267611914032035
6805.370275237683,0.004719541050103053,0.0019190680532404243
6805.371275009898,0.004691444372894259,0.0019143362214113018
6805.372274782114,0.004664563394768428,0.0019124251026293893
6805.373274554329,0.004638575500231445,0.0019131583256869417
6805.374274326544,0.004613107348001751,0.0019163288019350647
6805.375274098759,0.00458775017261754,0.0019217042026377592
6805.376273870975,0.00456207682598241,0.0019290326711868338
6805.37727364319,0.004535659955578129,0.0019380485926754518
6805.378273415406,0.00450809061005296,0.001948478269257906
6805.379273187621,0.004478996496202381,0.0019600453809241786
6805.380272959836,0.004448059071814926,0.0019724761267484433
6805.381272732051,0.004415028641770061,0.0019855039450593147
6805.382272504266,0.004379736651281523,0.0019988737193820036
6805.383272276482,0.004342104470912111,0.002012345395351624
6805.384272048697,0.004302148155294415,0.0020256969599437755
6805.385271820912,0.0042599789085863765,0.0020387267722982976
6805.386271593127,0.004215799255349995,0.002051255283100247
6805.387271365343,0.0041698951546048305,0.0020631262176599775
6805.388271137558,0.004122624501472823,0.002074207308118593
6805.389270909774,0.0040744026536049995,0.0020843906424109467
6805.390270681988,0.004025685797114732,0.0020935926620680285
6805.391270454204,0.003976953080265202,0.0021017538006603063
6805.392270226419,0.003928688436804888,0.002108837729121417
6805.393269998634,0.003881362897276113,0.0021148301825819147
6805.39426977085,0.00383541800835955,0.002119737384749093
6805.395269543065,0.003791250813967683,0.0021235841353863167
6805.39626931528,0.003749200725813847,0.0021264116601581117
6805.397269087495,0.003709538518898252,0.0021282753354835027
6805.398268859711,0.0036724576226135237,0.0021292423957002577
6805.399268631926,0.003638067853619626,0.0021293897030108372
6805.400268404142,0.003606391751260592,0.002128801618516587
6805.401268176356,0.0035773636873027374,0.0021275679723346194
6805.402267948572,0.0035508318790670604,0.0021257821024997857
6805.403267720787,0.0035265633335929687,0.0021235389157395136
6805.404267493002,0.0035042516307979975,0.0021209329177559843
6805.405267265218,0.003483527357321624,0.002118056166393322
6805.406267037433,0.0034639709378861882,0.002114996120189345
6805.407266809648,0.00344512755807937,0.00211183339705182
6805.408266581863,0.00342652381324687,0.002108639525666367
6805.409266354079,0.0034076856511713193,0.002105474840594274
6805.410266126294,0.0033881571133664297,0.0021023867015825936
6805.41126589851,0.003367519336157434,0.002099408192046923
6805.412265670724,0.0033454092508700805,0.002096557391864543
6805.41326544294,0.003321537407464102,0.0020938372579321803
6805.414265215155,0.003295704323194692,0.002091236095177778
6805.41526498737,0.003267814734787494,0.0020887285573407983
6805.416264759586,0.0032378891447797297,0.002086277081708116
6805.417264531801,0.003206072141162135,0.002083833640299557
6805.418264304016,0.0031726371307199412,0.0020813416830311173
6805.419264076231,0.0031379873011206923,0.00207873815925722
6805.420263848447,0.0031026527691529523,0.0020759555383293633
6805.421263620662,0.0030672840028079023,0.002072923801141513
6805.4222633928775,0.0030326417571821885,0.002069572422085609
6805.423263165092,0.0029995839191217038,0.002065832385456788
6805.424262937308,0.002969049762146341,0.0020616382757724177
6805.425262709523,0.002942042146457095,0.0020569304508640755
6805.426262481738,0.00291960816831533,0.0020516572651175613
6805.427262253954,0.0029028186936839516,0.002045777283682388
6805.428262026169,0.0028927471381112366,0.002039261427721525
6805.429261798384,0.0028904478184688122,0.0020320949965540332
6805.430261570599,0.00289693422059032,0.002024279504638374
6805.431261342815,0.002913157573098987,0.002015834254695366
6805.43226111503,0.0029399861381417783,0.0020067975537268004
6805.4332608872455,0.0029781855955025773,0.001997227464526998
6805.43426065946,0.003028400825489607,0.0019872019740707503
6805.435260431676,0.0030911393251570165,0.0019768184701066675
6805.436260203891,0.003166756451428186,0.0019661924636820076
6805.437259976106,0.003255442693612706,0.001955455572057666
6805.438259748322,0.0033572132393450984,0.0019447528592746554
6805.439259520536,0.0034719001799681727,0.0019342396919327103
6805.440259292752,0.003599147747915154,0.001924078285065911
6805.441259064967,0.0037384109506906874,0.001914434088455605
6805.442258837183,0.003888957864685365,0.0019054721255351236
6805.443258609398,0.004049875707681028,0.0018973533774673326
6805.4442583816135,0.004220080659482992,0.0018902313079376411
6805.445258153828,0.004398331268204306,0.00188424862993061
6805.446257926044,0.0045832451580828226,0.0018795344112144102
6805.447257698259,0.004773318622933626,0.0018762016009033575
6805.448257470474,0.004966948547258542,0.0018743450350778713
6805.44925724269,0.0051624559724315865,0.0018740399416792733
6805.450257014904,0.005358110552372376,0.0018753409166359183
6805.45125678712,0.005552155145119051,0.0018782813004844187
6805.452256559335,0.005742829871653517,0.0018828728734036418
6805.453256331551,0.005928395116433659,0.0018891058206783088
6805.454256103766,0.006107153081661951,0.0018969489789502512
6805.455255875981,0.00627746759350562,0.0019063504111183336
6805.456255648196,0.006437781926217307,0.0019172383492865844
6805.457255420412,0.006586634529955141,0.0019295225054002524
6805.458255192627,0.006722672730959083,0.001943095705807786
6805.459254964842,0.006844664650307622,0.001957835774319242
6805.460254737058,0.0069515096798639636,0.001973607576823691
6805.461254509272,0.007042247826339729,0.0019902651544142736
6805.462254281488,0.007116068102573894,0.0020076539005950593
6805.463254053703,0.007172315967422567,0.002025612756624451
6805.464253825919,0.0072104996792605935,0.002043976393705831
6805.465253598134,0.007230295399251555,0.0020625773353711136
6805.466253370349,0.007231550940183915,0.0020812479736263935
6805.467253142564,0.007214288111337461,0.0020998224593859914
6805.468252914779,0.0071787035917885225,0.0021181384930969924
6805.469252686995,0.007125168197013043,0.0021360390869456423
6805.47025245921,0.007054224347622877,0.002153374392191102
6805.471252231426,0.0069665815236176435,0.002170003665389007
6805.47225200364,0.006863109482923319,0.0021857973886264394
6805.473251775856,0.006744829056981566,0.002200639486416111
6805.474251548071,0.006612900431952552,0.002214429523228802
6805.475251320287,0.006468608951543208,0.0022270847347873085
6805.476251092502,0.006313348581521643,0.0022385417434821744
6805.477250864717,0.006148603254185092,0.002248757829046937
6805.478250636932,0.0059759264099602085,0.002257711666639528
6805.479250409147,0.005796919191720397,0.002265403502211061
6805.480250181363,0.005613207887583295,0.0022718547997599044
6805.481249953578,0.005426421315271618,0.002277107450679443
6805.482249725794,0.005238168880743625,0.0022812226696324244
6805.483249498008,0.005050020024768927,0.0022842797120460646
6805.484249270224,0.004863485690711946,0.0022863745382173664
6805.485249042439,0.004680002304769228,0.0022876185210141003
6805.486248814655,0.004500918563650741,0.0022881372506735344
6805.48724858687,0.004327485094377373,0.0022880694339232903
6805.4882483590845,0.004160846821626865,0.002287565825146109
6805.4892481313,0.00400203769699523,0.0022867880846055505
6805.490247903515,0.003851977363802965,0.002285907447874303
6805.491247675731,0.00371146937481576,0.0022851031057924426
6805.492247447946,0.0035812007008492793,0.0022845602175978127
6805.493247220162,0.0034617423689408612,0.0022844674989737634
6805.494246992376,0.0033535510924466018,0.0022850143417044665
6805.495246764592,0.003256971726638307,0.0022863874428223994
6805.496246536807,0.0031722403575771083,0.0022887669580757813
6805.497246309023,0.003099487838792313,0.0022923222417240425
6805.498246081238,0.003038743635708911,0.0022972072774993272
6805.4992458534525,0.002989939919420351,0.0023035559407354653
6805.500245625668,0.0029529159429547034,0.0023114772667099655
6805.501245397883,0.0029274227859691303,0.0023210509330836653
6805.502245170099,0.002913128544030463,0.0023323231773805003
6805.503244942314,0.0029096239938443806,0.0023453033470671896
6805.504244714529,0.002916428726074329,0.0023599612231124598
6805.505244486744,0.0029329977108566133,0.00237622519568035
6805.50624425896,0.002958728236474296,0.0023939813366329337
6805.507244031175,0.0029929671432890586,0.0024130734170677488
6805.508243803391,0.00303501827665341,0.002433303935421861
6805.509243575606,0.0030841500978771625,0.00245443622052518
6805.5102433478205,0.0031396033993282544,0.0024761976402156026
6805.511243120036,0.003200599056191655,0.0024982838876612574
6805.512242892251,0.0032663457133791686,0.00252036425615684
6805.513242664467,0.0033360472555297835,0.0025420877699371476
6805.514242436682,0.0034089098609432064,0.002563090013175671
6805.515242208897,0.0034841484374421015,0.0025830004735890905
6805.516241981112,0.0035609923052669985,0.002601450188842389
6805.517241753328,0.003638690106264717,0.002618079473450523
6805.518241525543,0.003716514026974892,0.0026325455169637743
6805.519241297759,0.0037937634834019217,0.002644529663110777
6805.520241069973,0.0038697684141061985,0.0026537441971729876
6805.5212408421885,0.003943892286138823,0.0026599384980191677
6805.522240614404,0.004015534881781273,0.0026629044558564084
6805.523240386619,0.004084134943323458,0.0026624811044844167
6805.524240158835,0.004149172809492433,0.0026585584605136607
6805.52523993105,0.004210173241252609,0.002651080600319908
6805.526239703265,0.004266708655063924,0.0026400480236674164
6805.52723947548,0.004318402937050542,0.002625519329301193
6805.528239247696,0.004364935927357409,0.0026076121610162685
6805.529239019911,0.004406048573590642,0.002586503298796485
6805.530238792127,0.004441548655414151,0.0025624277085957176
6805.531238564341,0.004471316864413923,0.0025356763635371576
6805.5322383365565,0.0044953128943929395,0.0025065927241680504
6805.533238108772,0.004513581085833634,0.0024755678937457247
6805.534237880987,0.004526255096166691,0.002443034590718651
6805.535237653203,0.004533561057057853,0.0024094601489550163
6805.536237425418,0.004535818762665697,0.0023753387549340192
6805.537237197633,0.004533440613617089,0.0023411830977653086
6805.538236969848,0.004526928259962748,0.002307515586297596
6805.539236742064,0.00451686704448806,0.002274859291597843
6805.540236514279,0.004503918385631289,0.0022437287947390003
6805.541236286495,0.004488810177733467,0.002214621148283525
6805.542236058709,0.00447232519929831,0.002188007184629987
6805.5432358309245,0.004455287485660829,0.0021643234139289056
6805.54423560314,0.004438546699620614,0.0021439647379613725
6805.545235375355,0.0044229607355914975,0.0021272781597926217
6805.546235147571,0.004409377055333825,0.002114557598847583
6805.547234919786,0.004398613461757464,0.002106039841542725
6805.548234692001,0.0043914390925481415,0.002101901581771105
6805.549234464216,0.0043885563605981425,0.0021022574415927395
6805.550234236432,0.004390584438906905,0.0021071588181928785
6805.551234008647,0.004398044737463654,0.002116593392686332
6805.552233780863,0.004411348670555944,0.0021304851709287955
6805.553233553077,0.00443078786469279,0.002148694990300002
6805.554233325292,0.004456526819821827,0.002171021484004003
6805.555233097508,0.0044885979421014,0.0021972025336629577
6805.556232869723,0.004526898844536185,0.00222691727775116
6805.557232641939,0.004571191860104181,0.002259788778860173
6805.558232414154,0.004621105796757388,0.0022953874656250466
6805.559232186369,0.004676140037511767,0.0023332354487678023
6805.560231958584,0.004735671108586131,0.0023728117820139352
6805.5612317308,0.004798961782876119,0.0024135587118194047
6805.562231503015,0.004865172667386781,0.0024548889352147673
6805.563231275231,0.004933376079566173,0.0024961938555092484
6805.564231047445,0.005002571895279083,0.0025368527798721304
6805.56523081966,0.005071704990789578,0.002576242931682639
6805.566230591876,0.005139683908951178,0.0026137500597179612
6805.567230364091,0.005205400410222218,0.0026487793425060985
6805.568230136307,0.0052677495619532985,0.002680766242231861
6805.569229908521,0.005325649955065665,0.0027091869651701245
6805.570229680737,0.0053780635457142,0.0027335682088158323
6805.571229452952,0.005424014555134605,0.0027534959027961914
6805.572229225168,0.00546260686717867,0.0027686226983185637
6805.573228997383,0.005493039438566639,0.002778674040239661
6805.574228769598,0.005514619349007454,0.0027834527391137087
6805.575228541813,0.005526772255241229,0.0027828420136314642
6805.576228314028,0.005529050175724993,0.002776806993309845
6805.577228086244,0.005521136676783315,0.0027653946782978983
6805.578227858459,0.005502849586113959,0.002748732369873964
6805.579227630675,0.0054741413193920025,0.002727024615677443
6805.580227402889,0.00543509684378496,0.002700548740982039
6805.581227175105,0.00538592928279462,0.0026696490500092976
6805.58222694732,0.005326973191045233,0.002634729796683188
6805.583226719536,0.0052586755889960195,0.0025962470656174827
6805.584226491751,0.005181584977869062,0.0025546997650057308
6805.5852262639655,0.005096338756732632,0.0025106199837139197
6805.586226036181,0.005003649650980573,0.0024645629869891653
6805.587225808396,0.004904291835370082,0.002417097124790878
6805.588225580612,0.004799087377189622,0.002368793916309826
6805.589225352827,0.004688893487595681,0.002320218555552734
6805.590225125043,0.0045745909148432315,0.0022719210514102793
6805.591224897257,0.0044570736807399225,0.00222442817372603
6805.592224669473,0.00433724024926662,0.002178236332977039
6805.593224441688,0.004215986099249504,0.002133805477725401
6805.594224213904,0.004094197547906933,0.002091554047364471
6805.595223986119,0.003972746569386289,0.0020518549717896506
6805.5962237583335,0.0038524863053785445,0.0020150326777092498
6805.597223530549,0.003734246982041282,0.0019813610515781246
6805.598223302764,0.0036188320109246603,0.001951062317371951
6805.59922307498,0.0035070141317948772,0.001924306799524673
6805.600222847195,0.003399531524960384,0.001901213537545478
6805.601222619411,0.0032970838598265113,0.0018818516873192624
6805.602222391625,0.00320032824659949,0.001866242596751726
6805.603222163841,0.0031098750301727326,0.001854362408375587
6805.604221936056,0.0030262833321059424,0.0018461450357112948
6805.605221708272,0.002950056229868588,0.0018414853760188267
6805.606221480487,0.0028816354885431495,0.0018402426464737076
6805.6072212527015,0.002821395855685521,0.001842243764311204
6805.608221024917,0.0027696390806663863,0.0018472867348238123
6805.609220797132,0.002726587958272232,0.0018551440490258374
6805.610220569348,0.0026923807608184146,0.0018655661113946432
6805.611220341563,0.0026670664065537443,0.0018782847246925684
6805.612220113779,0.002650600646759689,0.0018930166672043967
6805.613219885993,0.00264284347593278,0.0019094674028137756
6805.614219658209,0.002643557905755565,0.001927334948562592
6805.615219430424,0.002652410208529351,0.0019463138843141734
6805.61621920264,0.0026689717272755835,0.001966099441634285
6805.617218974855,0.0026927223493148056,0.0019863915711446924
6805.6182187470695,0.0027230557229242875,0.002006898863876235
6805.619218519285,0.0027592862511123203,0.0020273421916659805
6805.6202182915,0.0028006578335459135,0.002047457937508946
6805.621218063716,0.002846354263514929,0.0020670007121556333
6805.622217835931,0.0028955111258638457,0.002085745494106
6805.623217608147,0.002947228986365891,0.0021034891782553532
6805.624217380361,0.0030005876256322408,0.002120051566447551
6805.625217152577,0.0030546610604706708,0.002135275873778544
6805.626216924792,0.00310853310204552,0.002149028850251016
6805.627216697008,0.003161313201840284,0.002161200622112735
6805.628216469223,0.003212152320750821,0.0021717043399200283
6805.6292162414375,0.0032602585268122052,0.0021804756939443853
6805.630216013653,0.0033049119968490658,0.0021874723435171507
6805.631215785868,0.0033454790863257566,0.0021926733097742453
6805.632215558084,0.0033814251531624658,0.0021960783795117694
6805.633215330299,0.0034123258606278788,0.002197707543070402
6805.634215102514,0.0034378767087096403,0.002197600452080941
6805.635214874729,0.0034579005433517784,0.0021958158573700307
6805.636214646945,0.0034723527863713085,0.0021924309789283962
6805.63721441916,0.003481324129747269,0.002187540756458006
6805.638214191376,0.003485040464534796,0.002181256927249537
6805.639213963591,0.0034838599004243576,0.0021737068898639773
6805.640213735805,0.0034782668750625054,0.002165032339074379
6805.641213508021,0.0034688634857266212,0.00215538767853276
6805.642213280236,0.0034563582391508017,0.002144938215233842
6805.643213052452,0.0034415524266848355,0.0021338581231572025
6805.644212824667,0.003425324359431082,0.0021223281496277192
6805.645212596882,0.0034086117825618016,0.002110533033349754
6805.646212369097,0.003392392909478047,0.0020986586161335905
6805.647212141313,0.0033776666132699492,0.0020868886734789578
6805.648211913528,0.0033654323328643483,0.0020754015543517053
6805.649211685744,0.0033566701930821275,0.002064366777663719
6805.650211457958,0.0033523217442507887,0.0020539417596782245
6805.651211230173,0.003353271644330321,0.0020442688419866567
6805.652211002389,0.0033603305584352368,0.002035472765103741
6805.653210774604,0.003374219535907464,0.00202765870075656
6805.65421054682,0.003395556123642098,0.0020209109210016394
6805.655210319035,0.003424842462286573,0.002015292137633511
6805.65621009125,0.003462455584023102,0.0020108434875412704
6805.657209863465,0.0035086401042204404,0.0020075850809044473
6805.658209635681,0.003563503484543167,0.0020055169865891677
6805.659209407896,0.0036270140222400744,0.0020046205080218407
6805.660209180111,0.003699001659743889,0.0020048595948265317
6805.661208952326,0.003779161600466309,0.002006182232099142
6805.662208724541,0.0038670605695494964,0.0020085216575348288
6805.663208496757,0.003962145392371669,0.0020117972970589448
6805.664208268972,0.004063753416939158,0.002015915386794105
6805.665208041188,0.004171124229557573,0.002020769334936632
6805.666207813403,0.004283412135359338,0.0020262399386147046
6805.667207585618,0.004399698973247654,0.0020321956023439374
6805.668207357833,0.0045190069489915,0.002038492714393627
6805.669207130049,0.0046403112601609295,0.0020449763246816917
6805.670206902264,0.004762552358009185,0.0020514812340576144
6805.671206674479,0.004884647757729237,0.0020578335658757094
6805.672206446694,0.005005503361679313,0.002063852862076535
6805.673206218909,0.005124024303224076,0.0020693547253303854
6805.674205991125,0.00523912537780832,0.00207415400042262
6805.67520576334,0.005349741200038029,0.0020780684393807932
6805.676205535556,0.00545483626812613,0.0020809227305102177
6805.677205307771,0.005553415107790904,0.0020825527154220164
6805.678205079986,0.005644532620584181,0.0020828095950776774
6805.679204852201,0.0057273046767783425,0.0020815639351301333
6805.680204624417,0.005800918850329344,0.002078709296441883
6805.681204396632,0.005864645009388793,0.0020741653195748364
6805.682204168847,0.005917845328196421,0.0020678800921348317
6805.683203941062,0.005959983259179635,0.002059831651309837
6805.684203713277,0.005990631106711911,0.002050028538984158
6805.685203485493,0.006009475995608798,0.002038509424677642
6805.686203257708,0.006016324129724405,0.0020253419025258305
6805.687203029924,0.006011103247333384,0.0020106206122197097
6805.688202802139,0.00599386313318482,0.001994464826332072
6805.689202574354,0.00596477402606118,0.0019770156145148565
6805.690202346569,0.005924122844147912,0.001958432667921131
6805.6912021187845,0.0058723073416932624,0.0019388908641234212
6805.692201891,0.005809828522266563,0.0019185766743673924
6805.693201663215,0.005737281758229147,0.0018976845377758577
6805.69420143543,0.0056553470566472214,0.001876413321913587
6805.695201207645,0.005564778803462543,0.0018549629494100258
6805.696200979861,0.005466395181325809,0.0018335312204730797
6805.697200752076,0.005361067355434218,0.001812310835274531
6805.698200524292,0.005249708497305658,0.0017914866278962217
6805.699200296506,0.005133262773048229,0.0017712330393485412
6805.700200068722,0.005012694514509524,0.0017517118535739099
6805.701199840937,0.004888977851432697,0.0017330702026330754
6805.7021996131525,0.0047630870736837345,0.0017154388406665348
6805.703199385368,0.004635987924174824,0.0016989306977468353
6805.704199157583,0.0045086299285479955,0.001683639737643313
6805.705198929798,0.004381939782118087,0.0016696401435367272
6805.706198702013,0.004256815759216235,0.0016569858448068921
6805.707198474229,0.0041341230796812815,0.0016457103861254993
6805.708198246444,0.004014690139823216,0.0016358271364958993
6805.70919801866,0.003899305478670096,0.0016273298439749724
6805.710197790874,0.0037887153134955253,0.0016201935536047213
6805.71119756309,0.003683621458108296,0.001614375908097375
6805.712197335305,0.0035846794348880764,0.0016098188410507955
6805.7131971075205,0.003492496586969277,0.0016064506638312343
6805.714196879736,0.00340762998275631,0.001604188548861037
6805.715196651951,0.0033305839227296507,0.001602941413940384
6805.716196424166,0.0032618069611143586,0.0016026131955913041
6805.717196196381,0.003201688524182673,0.0016031064586145092
6805.718195968597,0.0031505553497799695,0.0016043262377311266
6805.719195740812,0.003108668013936966,0.0016061839659728418
6805.720195513028,0.0030762177590803953,0.0016086013288908634
6805.721195285242,0.0030533237571159577,0.0016115138977457351
6805.722195057458,0.0030400308794363545,0.001614874428139146
6805.723194829673,0.003036308012346415,0.0016186557447758682
6805.7241946018885,0.00304204693661011,0.0016228531555789163
6805.725194374104,0.003057061782862898,0.0016274863469044685
6805.726194146318,0.00308108909089304,0.001632600709884856
6805.727193918534,0.0031137885333890644,0.0016382680420589128
6805.728193690749,0.003154744390806025,0.0016445865633105627
6805.729193462965,0.0032034678726854285,0.0016516801819753074
6805.73019323518,0.0032594003775173338,0.0016596969471875695
6805.731193007396,0.0033219177687300715,0.0016688066329681203
6805.73219277961,0.0033903357040060314,0.0016791974220308932
6805.733192551826,0.0034639159781725015,0.001691071687378155
6805.734192324041,0.003541873749541421,0.0017046409043387975
6805.7351920962565,0.0036233854639926002,0.001720119775479988
6805.736191868472,0.0037075972938088396,0.0017377197207074646
6805.737191640686,0.0037936339467985044,0.0017576419529352657
6805.738191412902,0.0038806077422639342,0.0017800703955486315
6805.739191185117,0.003967627882304893,0.0018051646921943298
6805.740190957333,0.004053809871733126,0.001833053526274409
6805.741190729548,0.004138285054108265,0.0018638284308333556
6805.742190501764,0.004220210228063884,0.0018975382484332146
6805.743190273978,0.00429877729030988,0.0019341843960121287
6805.744190046194,0.004373222828555623,0.0019737170872087817
6805.745189818409,0.004442837552089772,0.0020160326520559575
6805.746189590624,0.004506975382506357,0.002060972068781971
6805.74718936284,0.00456506193957481,0.0021083207852317506
6805.748189135054,0.004616602081473039,0.0021578098571579407
6805.74918890727,0.0046611861244563344,0.0022091183693150286
6805.750188679485,0.004698494396426372,0.002261877045521348
6805.751188451701,0.004728299884079718,0.0023156729146824396
6805.752188223916,0.004750468881778749,0.0023700548877490144
6805.753187996132,0.0047649596707861315,0.002424540101901313
6805.754187768346,0.004771819320293008,0.0024786208862425134
6805.755187540562,0.004771178751228999,0.002531772197192943
6805.756187312777,0.004763246282740256,0.0025834593752403203
6805.757187084992,0.004748299966782391,0.0026331460998041357
6805.758186857208,0.004726679062846676,0.0026803024599308858
6805.759186629422,0.004698775008486033,0.0027244130893736463
6805.760186401638,0.004665022227111782,0.002764985307487429
6805.761186173853,0.004625889087893695,0.0028015571564858448
6805.762185946069,0.004581869278908215,0.0028337051566703735
6805.763185718284,0.004533473772511643,0.002861051559135868
6805.764185490499,0.004481223471593858,0.0028832708913650927
6805.765185262714,0.004425642551778529,0.002900095654114084
6805.76618503493,0.0043672524706561845,0.002911321097193612
6805.767184807145,0.004306566596128161,0.002916809044030424
6805.76818457936,0.0042440853978427074,0.0029164907408272553
6805.769184351576,0.004180292137074367,0.0029103686852773075
6805.77018412379,0.004115648977396352,0.0028985173641203807
6805.771183896006,0.0040505934320292205,0.0028810828162869756
6805.772183668221,0.003985535091832894,0.002858280940047217
6805.773183440437,0.003920852653926762,0.002830394477027379
6805.774183212652,0.003856891358676434,0.00279776864226452
6805.775182984867,0.0037939609869445615,0.002760805433477026
6805.776182757082,0.003732334555736659,0.002719956735417522
6805.7771825292975,0.0036722478023802833,0.0026757164197384756
6805.778182301513,0.0036138994847809084,0.0026286117100197347
6805.779182073728,0.003557452459975237,0.0025791941221224982
6805.780181845943,0.00350303545187741,0.002528030296318914
6805.781181618158,0.0034507453848185853,0.0024756930104552237
6805.782181390374,0.003400650120765446,0.0024227526108809407
6805.783181162589,0.0033527913873107685,0.002369769039684246
6805.784180934805,0.003307187661313163,0.002317284593006521
6805.78518070702,0.0032638368316304125,0.0022658175173936664
6805.786180479235,0.0032227185959303466,0.0022158565231116993
6805.78718025145,0.0031837966762461147,0.002167856249806284
6805.7881800236655,0.0031470209948126896,0.0021222336597388806
6805.789179795881,0.0031123299226409576,0.002079365270678275
6805.790179568096,0.003079652629717389,0.0020395850949582054
6805.791179340311,0.003048911476145224,0.0020031831396780963
6805.792179112526,0.003020024339324058,0.001970404345525618
6805.793178884742,0.0029929067955181995,0.0019414478780837086
6805.794178656957,0.002967474129559206,0.0019164667150528098
6805.795178429173,0.0029436431752131276,0.0018955674965484219
6805.796178201388,0.0029213339723997518,0.001878810632905156
6805.797177973603,0.0029004711965228,0.001866210688154284
6805.798177745818,0.0028809853039529817,0.0018577370653968393
6805.7991775180335,0.0028628133492182824,0.0018533150195971697
6805.800177290249,0.002845899442567728,0.0018528270298283917
6805.801177062464,0.0028301948214260967,0.0018561145755844528
6805.802176834679,0.0028156575256072904,0.0018629803647214477
6805.803176606894,0.0028022517118411762,0.0018731910471666802
6805.80417637911,0.0027899466975689086,0.0018864804259061483
6805.805176151325,0.0027787158497526326,0.0019025531509203539
6805.806175923541,0.0027685354247558693,0.0019210888523843652
6805.807175695756,0.00275938344095773,0.0019417466406138966
6805.808175467971,0.0027512386362266153,0.001964169884748488
6805.809175240186,0.0027440795199597063,0.0019879911868447386
6805.8101750124015,0.002737883477543521,0.002012837480298044
6805.811174784617,0.0027326258476943173,0.002038335185270278
6805.812174556832,0.0027282788905348514,0.002064115351949173
6805.813174329047,0.0027248105932085455,0.002089818723953397
6805.814174101262,0.0027221833013118626,0.0021151006524239863
6805.815173873478,0.0027203522035362175,0.0021396357766326935
6805.816173645693,0.002719263734527429,0.0021631223639782546
6805.817173417909,0.002718854009878971,0.0021852861813792686
6805.818173190124,0.0027190474709388904,0.0022058837595226636
6805.819172962339,0.002719755971463409,0.0022247049200204328
6805.820172734554,0.002720878545328192,0.00224157446689405
6805.8211725067695,0.002722302040957798,0.002256352993637782
6805.822172278985,0.002723902717952138,0.0022689368198219643
6805.8231720512,0.0027255488075449666,0.0022792571352868046
6805.824171823415,0.0027271039539017968,0.002287278473510997
6805.82517159563,0.0027284313792024866,0.0022929966462345
6805.826171367846,0.002729398563536296,0.0022964362656186584
6805.827171140061,0.0027298822157600278,0.00229764798579485
6805.828170912277,0.002729773325893271,0.0022967056136604623
6805.829170684491,0.0027289821047353554,0.002293703241372103
6805.830170456707,0.00272744261834453,0.002288752518604394
6805.831170228922,0.0027251169313069535,0.002281980118315244
6805.8321700011375,0.0027219986029204503,0.0022735253803429054
6805.833169773353,0.0027181154268744495,0.002263538065969889
6805.834169545568,0.0027135313436534875,0.0022521761373573063
6805.835169317783,0.002708347472540962,0.002239603494304035
6805.836169089998,0.0027027022156000374,0.0022259876532454404
6805.837168862214,0.002696770404989471,0.002211497417971228
6805.838168634429,0.0026907615189112775,0.002196300633409727
6805.839168406645,0.002684917071834069,0.0021805621114430016
6805.840168178859,0.002679507359097941,0.002164441781943256
6805.841167951075,0.0026748277819708555,0.0021480930838238795
6805.84216772329,0.0026711949916467027,0.002131661591378748
6805.843167495505,0.002668943064963929,0.0021152838697978934
6805.844167267721,0.0026684198581079736,0.00209908656102013
6805.845167039935,0.0026699835886845194,0.0020831857148247406
6805.846166812151,0.0026739995907510304,0.0020676864019919
6805.847166584366,0.0026808370901335826,0.0020526826698733505
6805.848166356582,0.0026908657811928432,0.002038257908172874
6805.849166128797,0.0027044519760812034,0.00202448566539453
6805.850165901013,0.0027219541498829172,0.0020114308914485797
6805.851165673227,0.0027437177954766287,0.001999151502409475
6805.852165445443,0.0027700695946714176,0.001987700105507342
6805.853165217658,0.002801310986257655,0.0019771257069003227
6805.854164989873,0.0028377112637262155,0.001967475244784115
6805.855164762089,0.0028795003709623963,0.001958794827364658
6805.856164534303,0.0029268615955375904,0.001951130596766218
6805.857164306519,0.00297992439781914,0.001944529180411656
6805.858164078734,0.0030387576541473183,0.0019390377259502262
6805.85916385095,0.0031033636105465704,0.0019347035404667934
6805.860163623165,0.0031736728215956767,0.0019315733711125836
6805.861163395381,0.0032495402912567466,0.001929692379433139
6805.862163167595,0.0033307429616752635,0.0019291028789382729
6805.8631629398105,0.003416978638056496,0.001929842919028333
6805.864162712026,0.003507866401812411,0.0019319447988821613
6805.865162484241,0.0036029485345414826,0.0019354335781559054
6805.866162256457,0.003701693927480726,0.0019403256239761794
6805.867162028671,0.0038035028764075436,0.0019466272144355588
6805.868161800887,0.003907713079543193,0.001954333226114286
6805.869161573102,0.00401360660529751,0.001963425962689542
6805.870161345318,0.00412041761266481,0.0019738742050061497
6805.871161117533,0.0042273406848284505,0.0019856325570665927
6805.872160889749,0.00433353971937749,0.0019986411293626653
6805.873160661963,0.004438157338191711,0.0020128255583754624
6805.8741604341785,0.004540324722132029,0.0020280973292162423
6805.875160206394,0.004639171701542634,0.0020443543605180407
6805.876159978609,0.004733836924207105,0.002061481820640224
6805.877159750825,0.004823478000109657,0.0020793531543617217
6805.878159523039,0.004907281636044368,0.0020978313018270816
6805.879159295255,0.00498447385158742,0.0021167700872920135
6805.88015906747,0.00505433037263241,0.0021360157425879605
6805.881158839686,0.005116187233872973,0.0021554085113621685
6805.882158611901,0.005169451513552059,0.002174784266206624
6805.8831583841165,0.0052136119977923764,0.0021939760738568324
6805.884158156331,0.005248249449082686,0.0022128156670779735
6805.8851579285465,0.005273046057438521,0.002231134817319844
6805.886157700762,0.005287793602858581,0.0022487666333964903
6805.887157472977,0.0052923998609236056,0.002265546821324339
6805.888157245193,0.005286892834687634,0.0022813149236775333
6805.889157017407,0.005271422485627698,0.002295915528861484
6805.890156789623,0.005246259766285114,0.002309199424626629
6805.891156561838,0.005211792935054956,0.0023210246740623408
6805.892156334054,0.005168521326126761,0.002331257609930585
6805.893156106269,0.0051170468747125135,0.0023397737692540856
6805.894155878484,0.005058063715946561,0.002346458821169004
6805.895155650699,0.00499234614073501,0.0023512095671766897
6805.8961554229145,0.004920735198969397,0.002353935101804752
6805.89715519513,0.004844124321606765,0.002354558207918413
6805.898154967345,0.004763444434884841,0.0023530170234067377
6805.899154739561,0.00467964908948578,0.0023492669585856055
6805.900154511775,0.00459370009700554,0.0023432827873809
6805.901154283991,0.0045065540833977395,0.0023350608084183313
6805.902154056206,0.004419150281302789,0.002324620975833576
6805.903153828422,0.004332399814250495,0.0023120089087333485
6805.904153600637,0.004247176666565049,0.002297297691257402
6805.905153372852,0.004164310461068928,0.002280589381784097
6805.906153145067,0.004084581064134654,0.0022620161587383154
6805.9071529172825,0.004008714898799387,0.0022417410245753632
6805.908152689498,0.003937382689831637,0.0022199579665384533
6805.909152461713,0.003871198236594526,0.0021968914594752264
6805.910152233928,0.003810717763024812,0.0021727952222930958
6805.911152006143,0.0037564394448219604,0.0021479502017523644
6805.912151778359,0.003708802822913932,0.0021226618172938572
6805.913151550574,0.0036681879212826706,0.002097256527976878
6805.91415132279,0.003634913972611977,0.002072077786281162
6805.915151095005,0.0036092377344048463,0.0020474814546677356
6805.91615086722,0.0035913514650402767,0.002023830789661927
6805.917150639435,0.003581380711063395,0.0020014911211268197
6805.9181504116505,0.00357938212550548,0.001980824349405567
6805.919150183866,0.003585341604354162,0.0019621833620127806
6805.920149956081,0.003599173093293919,0.0019459064598317253
6805.921149728296,0.0036207184456894448,0.0019323118820194249
6805.922149500511,0.003649748672870716,0.0019216925120333008
6805.923149272727,0.003685966823151928,0.001914310829199492
6805.924149044942,0.003729012588642735,0.0019103941525653637
6805.925148817158,0.0037784685984031336,0.0019101302165690183
6805.926148589373,0.003833868222577737,0.0019136631230338365
6805.927148361588,0.0038947045785224527,0.0019210897284727764
6805.928148133803,0.003960440300090312,0.0019324565453934994
6805.929147906018,0.004030517540576426,0.0019477572605165504
6805.930147678234,0.004104367671314926,0.001966931004073848
6805.931147450449,0.004181420210392632,0.0019898615352296656
6805.932147222664,0.004261110616036407,0.0020163775189543814
6805.933146994879,0.004342886650682069,0.0020462540460637283
6805.934146767095,0.004426213053978405,0.00207921549650444
6805.93514653931,0.0045105742936321505,0.0021149397780308235
6805.936146311526,0.004595475240943894,0.0021530638928270226
6805.937146083741,0.004680439761780577,0.0021931906976069963
6805.938145855956,0.004765007397120286,0.002234896638990899
6805.939145628171,0.004848728485641159,0.0022777401757829796
6805.940145400386,0.004931158233561271,0.0023212705478011194
6805.941145172602,0.005011850362635969,0.0023650365239792194
6805.942144944817,0.005090351042695233,0.002408594772571593
6805.943144717032,0.005166193803639717,0.0024515175427395177
6805.944144489247,0.00523889602439696,0.0024933994053958695
6805.945144261463,0.0053079574587526455,0.002533862852574062
6805.946144033678,0.005372861128002889,0.002572562613800553
6805.947143805894,0.005433076803966477,0.002609188640370806
6805.948143578109,0.005488067206109627,0.0026434678261716142
6805.949143350324,0.005537296918279811,0.0026751646391493652
6805.950143122539,0.005580243884433077,0.0027040809011530777
6805.951142894754,0.005616413169161887,0.0027300549708446963
6805.95214266697,0.005645352465373232,0.0027529605640925683
6805.953142439185,0.005666668609194634,0.0027727054031495293
6805.9541422114,0.005680044165276279,0.0027892298366659282
6805.955141983615,0.005685253038729352,0.0028025055305398346
6805.956141755831,0.005682174099611783,0.0028125342964566077
6805.957141528046,0.005670801961260669,0.002819347088762988
6805.958141300262,0.005651254267880855,0.0028230031493302566
6805.959141072477,0.005623775053537348,0.002823589220915527
6805.960140844692,0.005588733912404969,0.0028212187015006635
6805.961140616907,0.005546620876135185,0.0028160305859841217
6805.962140389122,0.005498037043922456,0.0028081880385779695
6805.963140161338,0.005443681182874642,0.0027978764607537003
6805.964139933553,0.005384332741950394,0.002785300960203608
6805.965139705768,0.005320831993121044,0.002770683172529534
6805.966139477983,0.005254058256137091,0.002754257440042794
6805.967139250199,0.005184907289952692,0.0027362664265078275
6805.968139022414,0.005114268916473167,0.002716956336132027
6805.9691387946295,0.00504300582364074,0.0026965719710518267
6805.970138566844,0.004971934327474328,0.0026753518724711377
6805.97113833906,0.004901807675043524,0.0026535237499966846
6805.972138111275,0.004833302244765804,0.0026313003390680155
6805.97313788349,0.004767006765707014,0.002608875767832872
6805.974137655706,0.004703414475215161,0.0025864224810837697
6805.97513742792,0.004642918012545435,0.0025640887619331606
6805.976137200136,0.0045858068303095585,0.0025419969031366747
6805.977136972351,0.0045322669722842185,0.002520242097602726
6805.978136744567,0.004482383157031191,0.0024988921289662448
6805.979136516782,0.004436143168017166,0.0024779879394266325
6805.9801362889975,0.004393444551376975,0.00245754513165967
6805.981136061212,0.004354103550369649,0.0024375564228895632
6805.982135833428,0.004317866074623568,0.0024179950082188267
6805.983135605643,0.0042844203581897805,0.0023988187135837963
6805.984135377858,0.0042534108531405304,0.0023799747494330876
6805.985135150074,0.004224452849414636,0.002361404837665531
6805.986134922288,0.004197147292874878,0.002343050481358907
6805.987134694504,0.004171095282764842,0.002324858164451736
6805.988134466719,0.00414591175834061,0.002306784282377212
6805.989134238935,0.0041212379142129794,0.0022887996011570224
6805.99013401115,0.004096751918125092,0.0022708930373442925
6805.9911337833655,0.0040721775789885955,0.002253074574891328
6805.99213355558,0.004047290740533466,0.0022353771989078123
6805.993133327796,0.004021923312618996,0.0022178578142054046
6805.994133100011,0.003995964945027081,0.0022005971979446163
6805.995132872226,0.003969362403812929,0.002183699081108913
6805.996132644442,0.003942116783587782,0.002167288456505674
6805.997132416656,0.0039142788066266615,0.0021515091971526434
6805.998132188872,0.0038859425800700305,0.002136521070676959
6805.999131961087,0.003857238249542785,0.002122496261410801
6806.000131733303,0.0038283239910964486,0.002109615542437949
6806.001131505518,0.003799377749124557,0.002098064246710244
6806.0021312777335,0.0037705890748596697,0.0020880281610150815
6806.003131049948,0.0037421513538425147,0.002079689429832705
6806.004130822164,0.003714254640893965,0.002073222537319937
6806.005130594379,0.003687079259855471,0.0020687904442838324
6806.006130366594,0.003660790273252406,0.00206654097697203
6806.00713013881,0.003635532874404807,0.002066603574363905
6806.008129911024,0.0036114287010141598,0.002069086490647815
6806.00912968324,0.0035885730382540994,0.0020740745194379627
6806.010129455455,0.00356703289755941,0.0020816272630950895
6806.011129227671,0.003546846009248223,0.002091777930551726
6806.012128999886,0.003528020792385365,0.0021045326262301408
6806.0131287721015,0.0035105373221920324,0.0021198700948516203
6806.014128544316,0.0034943492315984747,0.0021377419024300086
6806.015128316531,0.00347938642571842,0.0021580730435347534
6806.016128088747,0.003465558487062308,0.0021807629532379917
6806.017127860962,0.0034527586688150535,0.0022056868698792534
6806.018127633178,0.003440868357504019,0.0022326974566427727
6806.019127405392,0.003429761831459481,0.0022616265651113484
6806.020127177608,0.0034193111016689293,0.0022922870302080605
6806.021126949823,0.0034093906436902335,0.002324474427036065
6806.022126722039,0.003399881910898524,0.002357968775661615
6806.023126494254,0.003390677627360294,0.0023925362200609684
6806.0241262664695,0.003381685949595109,0.002427930721842843
6806.025126038684,0.0033728346130978385,0.002463895813346438
6806.026125810899,0.0033640751199653235,0.002500166463178674
6806.027125583115,0.0033553869075929484,0.0025364711122839285
6806.02812535533,0.003346781321986389,0.002572533922873302
6806.029125127546,0.0033383051480375707,0.002608077244001826
6806.03012489976,0.0033300434418093066,0.0026428242503167758
6806.031124671976,0.0033221214516893837,0.002676501669017743
6806.032124444191,0.0033147054599575675,0.002708842483143317
6806.033124216407,0.0033080023842317623,0.002739588491444778
6806.034123988622,0.003302257963152119,0.0027684926120921456
6806.0351237608365,0.0032977533702322898,0.0027953208290560803
6806.036123533052,0.003294800193024607,0.002819853701320936
6806.037123305267,0.003293733860011823,0.002841887410300464
6806.038123077483,0.003294905735474422,0.002861234414585027
6806.039122849698,0.003298674185330576,0.002877723871684988
6806.040122621913,0.003305394932961325,0.002891202023672749
6806.041122394128,0.0033154109938920116,0.002901532721325149
6806.042122166344,0.0033290424358250006,0.0029085982097916694
6806.043121938559,0.003346576174521653,0.002912300244719008
6806.044121710775,0.003368255983361634,0.002912561559398279
6806.04512148299,0.003394272872565644,0.0029093276569377305
6806.0461212552045,0.003424756016551402,0.0029025688520601914
6806.04712102742,0.0034597644911430257,0.0028922824402897516
6806.048120799635,0.003499280183404338,0.002878494840681829
6806.049120571851,0.0035432022852800405,0.002861263551180249
6806.050120344066,0.0035913437501967835,0.0028406787712995352
6806.051120116281,0.003643430009743334,0.0028168645685102043
6806.052119888496,0.0036991001554461814,0.002789979476651467
6806.053119660712,0.003757910695915799,0.0027602164249227183
6806.054119432927,0.003819341887282242,0.0027278019244154645
6806.055119205143,0.003882806502978479,0.0026929944866936734
6806.056118977358,0.003947660779124469,0.002656082300160764
6806.0571187495725,0.00401321716828258,0.0026173802354132153
6806.058118521788,0.004078758466925098,0.0025772262860617903
6806.059118294003,0.0041435528460491665,0.0025359775661302586
6806.060118066219,0.00420686929512858,0.0024940059736615976
6806.061117838434,0.0042679929733425255,0.0024516936088526107
6806.062117610649,0.004326239961557153,0.0024094280286764175
6806.063117382864,0.004380970961135565,0.0023675974300769657
6806.06411715508,0.004431603601630442,0.002326585855530548
6806.065116927295,0.004477623151700905,0.002286768491058151
6806.066116699511,0.00451859151767826,0.0022485070926137004
6806.067116471726,0.004554154450491882,0.002212145558354903
6806.0681162439405,0.004584046891754212,0.0021780056656879308
6806.069116016156,0.004608096393046352,0.0021463829990578426
6806.070115788371,0.004626224536225199,0.002117543103008118
6806.071115560587,0.004638446274212403,0.002091717912551847
6806.072115332802,0.004644867139218677,0.0020691025363829265
6806.073115105017,0.004645678357090696,0.0020498524806327446
6806.074114877232,0.0046411500237911385,0.0020340813900256334
6806.075114649448,0.004631622565453459,0.002021859358091147
6806.076114421663,0.00461749670140372,0.002013211840717003
6806.077114193879,0.004599222134419256,0.002008119209133317
6806.078113966094,0.0045772852734695625,0.0020065169865327677
6806.0791137383085,0.004552196424521879,0.0020082968107660937
6806.080113510524,0.00452447696954919,0.0020133081584737637
6806.081113282739,0.004494647029960668,0.002021360866140374
6806.082113054955,0.004463214002920977,0.0020322284857873076
6806.08311282717,0.004430662241421196,0.002045652496461351
6806.084112599385,0.004397444075075982,0.002061347343496939
6806.0851123716,0.0043639723503216985,0.0020790062036353486
6806.086112143816,0.004330614694842969,0.0020983072964098157
6806.087111916031,0.004297689746356225,0.0021189204976207357
6806.088111688247,0.004265465570139231,0.002140513970806997
6806.089111460462,0.004234160386628995,0.002162760528188227
6806.0901112326765,0.004203945569541386,0.00218534346619738
6806.091111004892,0.004174950717651181,0.002207961683463258
6806.092110777107,0.004147270479547017,0.002230333968484536
6806.093110549323,0.004120972705838237,0.0022522024245883927
6806.094110321538,0.004096107402958348,0.0022733350601470354
6806.095110093753,0.004072715897159772,0.0022935276005251865
6806.096109865968,0.004050839640774535,0.0023126045847609252
6806.097109638184,0.004030528205121216,0.0023304198125749685
6806.098109410399,0.00401184612506246,0.0023468562102047113
6806.099109182615,0.003994878321773511,0.002361825181650524
6806.100108954829,0.003979733868740102,0.002375265510818456
6806.101108727044,0.003966547959059526,0.002387141891323946
6806.10210849926,0.003955482071194525,0.002397443179156508
6806.103108271475,0.003946722424723347,0.0024061804703937356
6806.104108043691,0.003940476818314918,0.0024133850943156465
6806.105107815905,0.003936969895326835,0.002419106588021999
6806.106107588121,0.003936436859063353,0.0024234106844124013
6806.107107360336,0.003939115690701133,0.0024263772969505115
6806.108107132552,0.003945238005158459,0.002428098425609706
6806.109106904767,0.003955018792071824,0.0024286758573033875
6806.110106676983,0.003968645393387236,0.0024282185164043297
6806.111106449197,0.003986266136404835,0.0024268393535560456
6806.112106221412,0.004007979067969285,0.0024246517402208277
6806.113105993628,0.00403382122898537,0.002421765441547254
6806.114105765843,0.004063758871005221,0.0024182823465582633
6806.115105538059,0.004097678953975449,0.0024142922192523907
6806.116105310273,0.004135382196487337,0.0024098687783079627
6806.117105082489,0.004176577906470013,0.0024050664128266565
6806.118104854704,0.004220880817925355,0.0023999178078485494
6806.11910462692,0.004267810186015589,0.0023944326971502756
6806.120104399135,0.00431679141677078,0.0023885978883539036
6806.12110417135,0.00436716049663544,0.002382378625211161
6806.122103943565,0.0044181714236450256,0.00237572127635989
6806.12310371578,0.004469006733597809,0.002368557278296788
6806.124103487996,0.004518791083715384,0.002360808209229729
6806.125103260211,0.0045666077166765795,0.0023523918114235014
6806.126103032427,0.00461151748280818,0.0023432286993160674
6806.127102804641,0.004652579957882597,0.002333249404135519
6806.128102576857,0.004688876069480917,0.0023224013476437614
6806.129102349072,0.00471953153083285,0.0023106553269079595
6806.130102121288,0.004743740278244771,0.0022980111187156753
6806.131101893503,0.00476078705695456,0.0022845018647707125
6806.132101665718,0.004770068345813001,0.0022701969804854
6806.133101437933,0.004771110934282867,0.0022552034358325405
6806.134101210148,0.004763587593688688,0.002239665358894719
6806.135100982364,0.0047473293797352205,0.0022237619861449325
6806.136100754579,0.00472233419174161,0.0022077040275719838
6806.137100526795,0.004688771333906032,0.0021917285514422755
6806.138100299009,0.004646981975801631,0.0021760925502029285
6806.139100071225,0.004597475559422613,0.002161065433492664
6806.14009984344,0.00454092231138549,0.0021469207806304666
6806.141099615656,0.004478142086818418,0.00213392773633546
6806.142099387871,0.00441008983652053,0.002122342436982532
6806.143099160086,0.004337838097571687,0.002112399823684857
6806.144098932301,0.004262557054403414,0.0021043061477964563
6806.145098704516,0.004185492839666086,0.0020982324120682612
6806.146098476732,0.0041079447793282925,0.0020943089282201115
6806.147098248947,0.004031242230697503,0.002092621123883678
6806.148098021163,0.003956721568445459,0.0020932067007755416
6806.149097793377,0.003885703790465097,0.002096054214992076
6806.150097565593,0.0038194731414424713,0.002101103103802854
6806.151097337808,0.0037592570633979854,0.002108245127754664
6806.152097110024,0.0037062076808977713,0.002117327151846551
6806.153096882239,0.0036613849405628843,0.0021281551597727225
6806.154096654454,0.003625741466822575,0.002140499362871949
6806.155096426669,0.0036001091707352265,0.0021541002102320617
6806.156096198884,0.0035851876555878155,0.002168675029003952
6806.1570959711,0.0035815344840129546,0.002183924952480825
6806.158095743315,0.0035895573709238474,0.0021995417703478295
6806.159095515531,0.003609508342267584,0.0022152143879703773
6806.160095287745,0.0036414798978224947,0.002230634694828914
6806.161095059961,0.0036854032577841333,0.0022455027667821277
6806.162094832176,0.003741048803834817,0.002259531420114432
6806.163094604392,0.003808028782426616,0.0022724501888236642
6806.164094376607,0.003885802226567761,0.0022840088213894097
6806.1650941488215,0.003973681928117947,0.002293980397121079
6806.166093921037,0.004070843197925673,0.0023021641505035846
6806.167093693252,0.0041763341026698235,0.0023083880771199413
6806.168093465468,0.00428908688060823,0.002312511390638264
6806.169093237683,0.004407930322631196,0.0023144269039283645
6806.170093009898,0.004531603032766688,0.0023140633942840146
6806.171092782113,0.004658767595623787,0.002311387963972559
6806.172092554329,0.004788025728254842,0.002306408334006765
6806.173092326544,0.004917934468830403,0.002299174940445828
6806.17409209876,0.005047023383185963,0.0022897826596955896
6806.175091870975,0.005173812697447352,0.0022783719782689727
6806.1760916431895,0.005296832209052668,0.002265129439113191
6806.177091415405,0.005414640775436456,0.0022502872257523596
6806.17809118762,0.005525846124013721,0.00223412176918565
6806.179090959836,0.005629124694119844,0.002216951279435064
6806.180090732051,0.005723241235317411,0.0021991321289995674
6806.181090504266,0.005807067931367633,0.002181054056856034
6806.182090276481,0.005879602843499393,0.002163134206402207
6806.183090048697,0.005939987423591046,0.0021458100413309874
6806.184089820912,0.005987522734372256,0.00212953120046736
6806.185089593128,0.006021683875902871,0.00211475037778357
6806.186089365343,0.00604213202568517,0.002101913369350346
6806.187089137557,0.006048723513532711,0.002091448514784911
6806.188088909773,0.006041515488029057,0.002083755850225513
6806.189088681988,0.006020767941228433,0.002079196349528098
6806.190088454204,0.005986942045840532,0.002078081646609803
6806.191088226419,0.005940694839875151,0.00208066461580747
6806.192087998634,0.005882870264210738,0.0020871311540499042
6806.193087770849,0.005814486511131533,0.002097593460991356
6806.194087543065,0.0057367196914381155,0.0021120850467401123
6806.19508731528,0.005650884013415104,0.0021305576152606254
6806.196087087496,0.0055584089269209045,0.0021528798893627452
6806.197086859711,0.005460813912762949,0.002178838375744297
6806.198086631925,0.005359681705599884,0.0022081400229571188
6806.199086404141,0.005256630700213265,0.0022404166992726115
6806.200086176356,0.00515328714541614,0.0022752314034762268
6806.201085948572,0.00505125756985838,0.0023120861078280235
6806.202085720787,0.004952101806305713,0.0023504311069369806
6806.203085493002,0.004857307014008973,0.0023896757083165824
6806.204085265217,0.004768263179663732,0.0024292000613527816
6806.205085037433,0.004686240616303982,0.002468367888939059
6806.206084809648,0.004612369936586732,0.00250653985712326
6806.207084581864,0.0045476248706302945,0.0025430872910861854
6806.208084354079,0.004492808167088627,0.002577405922918296
6806.209084126293,0.0044485407019464575,0.002608929332849684
6806.210083898509,0.004415253868258574,0.0026371417127709967
6806.211083670724,0.004393185343292189,0.0026615895464877433
6806.21208344294,0.004382378370123279,0.0026818917876580985
6806.213083215155,0.004382684670382055,0.0026977481444370186
6806.21408298737,0.004393771008693327,0.0027089451597382386
6806.215082759585,0.0044151293125520765,0.0027153599027615
6806.216082531801,0.00444609016430967,0.0027169612309865896
6806.217082304016,0.004485839418229351,0.002713808694263821
6806.218082076231,0.0045334376213820235,0.0027060492032260604
6806.219081848447,0.004587841825601526,0.002693911586648607
6806.220081620661,0.004647929294514327,0.0026776991613285685
6806.221081392877,0.004712522562206572,0.0026577804730874106
6806.222081165092,0.0047804152921935615,0.0026345784470372755
6806.223080937308,0.004850398390579472,0.0026085582852935205
6806.224080709523,0.004921285812293032,0.002580214533660732
6806.225080481738,0.004991939457436057,0.002550057779011941
6806.226080253953,0.005061292503258694,0.0025186014348671086
6806.227080026169,0.005128370476329716,0.0024863490429753213
6806.228079798384,0.0051923093652014645,0.0024537824788630484
6806.229079570599,0.00525237013695617,0.0024213513983552463
6806.230079342814,0.005307949165676611,0.002389464197735569
6806.231079115029,0.0053585842968406775,0.0023584806884076196
6806.232078887245,0.005403956520072548,0.0023287066098925378
6806.23307865946,0.005443887429115269,0.0023003900211848033
6806.234078431676,0.005478332746074072,0.002273719531128929
6806.23507820389,0.00550737219696461,0.002248824273099399
6806.236077976106,0.005531196052949929,0.0022257754998174645
6806.237077748321,0.005550088787799228,0.0022045896512856247
6806.2380775205365,0.005564410538496589,0.0021852327172111347
6806.239077292752,0.005574577292019492,0.0021676256797508926
6806.240077064967,0.005581040841608815,0.0021516507973180807
6806.241076837182,0.005584269508275901,0.0021371584828339023
6806.242076609397,0.0055847304416644,0.0021239745385141966
6806.243076381613,0.00558287407707268,0.002111907528433095
6806.244076153828,0.005579121098622153,0.002100756090297692
6806.245075926044,0.0055738520702583285,0.0020903160011868367
6806.246075698258,0.005567399743512548,0.0020803868226498194
6806.247075470474,0.005560043920165731,0.002070777972312327
6806.248075242689,0.005552008635919446,0.002061314109678525
6806.2490750149045,0.005543461357538964,0.002051839773677197
6806.25007478712,0.005534513878220722,0.0020422232469985845
6806.251074559335,0.005525224648836326,0.002032359632158326
6806.25207433155,0.005515602342463274,0.002022173113377598
6806.253074103765,0.0055056104582046645,0.0020116183711496416
6806.254073875981,0.005495172722837295,0.0020006811323941094
6806.255073648196,0.005484178994396876,0.001989377876559261
6806.256073420412,0.0054724913599582,0.0019777547615453797
6806.257073192626,0.005459950162457849,0.001965885872247552
6806.258072964842,0.005446379775780005,0.001953870922012612
6806.259072737057,0.005431594052314579,0.0019418325400771936
6806.2600725092725,0.005415401449841903,0.001929913248480601
6806.261072281488,0.005397609852887084,0.0019182721870598224
6806.262072053703,0.005378031037391688,0.0019070816139461614
6806.263071825918,0.00535648465985139,0.0018965232016615755
6806.264071598133,0.0053328016584314065,0.0018867841520404374
6806.265071370349,0.005306827035912315,0.0018780531540610503
6806.266071142564,0.005278422099113669,0.0018705162120135309
6806.26707091478,0.0052474663147662574,0.001864352389167204
6806.268070686994,0.005213858997060046,0.0018597295445009045
6806.26907045921,0.0051775210663580155,0.0018568001718718165
6806.270070231425,0.005138397105275532,0.0018556974624337579
6806.2710700036405,0.005096457874009789,0.0018565316949391783
6806.272069775856,0.00505170332550422,0.0018593870323250182
6806.273069548071,0.005004166005149655,0.00186431879536134
6806.274069320286,0.004953914579296971,0.001871351300531702
6806.275069092501,0.004901057159691771,0.0018804763626812907
6806.276068864717,0.004845744087029401,0.001891652545630915
6806.277068636932,0.004788169878141881,0.0019048051962708443
6806.278068409148,0.004728574099724921,0.001919827242262361
6806.279068181362,0.004667240997920313,0.001936580693268478
6806.280067953578,0.004604497782731967,0.0019548987693535683
6806.281067725793,0.004540711534774022,0.001974588581037183
6806.2820674980085,0.004476284775764356,0.0019954342897156334
6806.283067270224,0.004411649836189308,0.0020172006749221306
6806.284067042439,0.004347262261776721,0.0020396370248023624
6806.285066814654,0.004283593594274172,0.0020624812530172457
6806.286066586869,0.004221123898816069,0.0020854641369662708
6806.287066359085,0.004160334372338047,0.002108313576472502
6806.2880661313,0.004101700275459068,0.00213075878884876
6806.289065903516,0.004045684319723065,0.002152534376472871
6806.29006567573,0.003992730541227507,0.0021733842207387836
6806.291065447946,0.003943258615335091,0.002193065174267824
6806.292065220161,0.00389765852122401,0.002211350540816145
6806.2930649923765,0.00385628545405436,0.00222803333842028
6806.294064764592,0.0038194549112252783,0.002242929326265632
6806.295064536806,0.003787437942582184,0.002255879742545738
6806.296064309022,0.0037604566305191795,0.0022667536617074057
6806.297064081237,0.003738679925553733,0.002275449848854235
6806.298063853453,0.0037222199878752115,0.002281897981235499
6806.299063625668,0.00371112917446455,0.002286059135085399
6806.300063397883,0.003705397775659249,0.002287925501057049
6806.301063170098,0.0037049525622059394,0.0022875193732418302
6806.302062942314,0.0037096561696425404,0.0022848915241553114
6806.303062714529,0.0037193073272141115,0.0022801191071370424
6806.304062486744,0.00373364193398564,0.0022733032214838113
6806.30506225896,0.0037523349957127154,0.0022645662659504543
6806.306062031174,0.003775003455438996,0.0022540492185099677
6806.30706180339,0.0038012099618088884,0.0022419090014684866
6806.308061575605,0.003830467610073326,0.002228316088161406
6806.309061347821,0.003862245666040438,0.0022134524698760477
6806.310061120036,0.0038959762483895917,0.0021975100464768113
6806.311060892251,0.003931061890778202,0.0021806894471386846
6806.312060664466,0.003966883824084003,0.0021631992306474887
6806.313060436682,0.0040028107325452,0.0021452553593615162
6806.314060208897,0.004038207689786607,0.0021270807929495974
6806.315059981112,0.004072444998812376,0.0021089050143237734
6806.316059753328,0.0041049067331567525,0.0020909632937685693
6806.317059525542,0.004134998871445882,0.0020734955318986383
6806.318059297758,0.004162156996348649,0.002056744590764667
6806.319059069973,0.00418585355508314,0.0020409540952566283
6806.320058842189,0.004205604636391789,0.002026365736673598
6806.321058614404,0.004220976130530505,0.00201321612945825
6806.322058386619,0.004231589056583608,0.0020017332668561586
6806.323058158834,0.004237123819904911,0.0019921326057727225
6806.3240579310495,0.004237323228125205,0.001984612809124413
6806.325057703265,0.00423199422212097,0.001979351206027933
6806.32605747548,0.004221008399501354,0.0019764990901886513
6806.327057247696,0.004204301458693753,0.001976177034567713
6806.32805701991,0.00418187166892009,0.0019784704309642625
6806.329056792126,0.004153777435675933,0.001983425466528981
6806.330056564341,0.004120134042215527,0.0019910457398072965
6806.331056336557,0.004081109702008704,0.0020012897023432216
6806.332056108772,0.0040369211051904455,0.002014069079110107
6806.333055880987,0.003987828649808839,0.0020292483643239117
6806.334055653202,0.003934131522333374,0.0020466454156618462
6806.3350554254175,0.0038761627573015833,0.0020660331000650276
6806.336055197633,0.0038142843894536957,0.002087141903236961
6806.337054969848,0.0037488828246904525,0.0021096634175895583
6806.338054742064,0.003680364585844624,0.002133254658678725
6806.339054514278,0.0036091526095688425,0.0021575431965626664
6806.340054286494,0.0035356832601877975,0.0021821331015713518
6806.341054058709,0.0034604041750942575,0.002206611690595963
6806.342053830925,0.003383772966132415,0.0022305570256496996
6806.34305360314,0.0033062566894669454,0.00225354606422704
6806.344053375355,0.0032283318945127855,0.002275163300525799
6806.34505314757,0.003150484997610075,0.0022950096897723497
6806.3460529197855,0.0030732126974816077,0.00231271162838924
6806.347052692001,0.002997022142132657,0.0023279297584778698
6806.348052464216,0.00292243057480998,0.0023403673604604587
6806.349052236432,0.00284996424860615,0.0023497780974037204
6806.350052008646,0.00278015650272343,0.002355972882768781
6806.351051780862,0.0027135450033077264,0.0023588256448893855
6806.352051553077,0.002650668228107358,0.0023582777469430202
6806.353051325293,0.002592061300755504,0.002354340806718078
6806.354051097508,0.0025382512641016724,0.0023470976703612173
6806.355050869723,0.002489751840226668,0.0023367013474211
6806.356050641938,0.0024470576910454495,0.0023233718251436655
6806.3570504141535,0.0024106382106544133,0.0023073908415174667
6806.358050186369,0.0023809309525919,0.002289094868361153
6806.359049958584,0.002358334866057845,0.002268866687701908
6806.360049730799,0.0023432035340855673,0.0022471260088471937
6806.361049503014,0.0023358385871952484,0.002224319566859986
6806.36204927523,0.002336483448490967,0.0022009110792344457
6806.363049047445,0.0023453175547969553,0.0021773713433348584
6806.364048819661,0.0023624511728416995,0.0021541686634790834
6806.365048591875,0.0023879208899057836,0.0021317597221672743
6806.366048364091,0.0024216858212370938,0.0021105809566786737
6806.367048136306,0.0024636245429323425,0.002091040471030696
6806.3680479085215,0.0025135327221797836,0.002073510515230721
6806.369047680737,0.0025711213934441835,0.0020583206004996775
6806.370047452952,0.0026360158523543713,0.002045751365827307
6806.371047225167,0.0027077552154201314,0.0020360293382507824
6806.372046997382,0.0027857927865273624,0.0020293227296460364
6806.373046769598,0.0028694974349704264,0.0020257383974854933
6806.374046541813,0.0029581562133277985,0.0020253200757363583
6806.375046314029,0.0030509784485503286,0.0020280479548627516
6806.376046086243,0.0031471015413191378,0.0020338396527000324
6806.377045858459,0.0032455986922513605,0.002042552574860883
6806.378045630674,0.0033454887184014193,0.002053987624615535
6806.3790454028895,0.0034457480362127145,0.002067894189279992
6806.380045175105,0.0035453247906743306,0.0020839762970204685
6806.38104494732,0.0036431550098647955,0.002101899806183465
6806.382044719535,0.0037381805450617516,0.0021213004645973844
6806.38304449175,0.003829368416690418,0.0021417926537646544
6806.384044263966,0.003915731045100574,0.0021629786011159915
6806.385044036181,0.003996346724319117,0.0021844578057558933
6806.386043808397,0.004070379607006263,0.002205836403068888
6806.387043580611,0.004137098415426995,0.0022267362134323503
6806.388043352827,0.004195893093702024,0.002246803273722123
6806.389043125042,0.004246288702593097,0.002265715700599799
6806.390042897257,0.004287956039055665,0.0022831907442584245
6806.391042669473,0.004320718693323452,0.0022989908554694226
6806.392042441688,0.00434455646711718,0.0023129285396053145
6806.393042213903,0.0043596052215456324,0.002324869751936821
6806.394041986118,0.004366153281498393,0.0023347356231339447
6806.395041758334,0.004364634500103412,0.0023425023871372387
6806.396041530549,0.004355618034316043,0.002348199488756959
6806.397041302765,0.004339794880800911,0.0023519059470317005
6806.398041074979,0.004317961315391493,0.0023537451340799364
6806.399040847195,0.004290999548005185,0.002353878210192552
6806.40004061941,0.0042598560895721225,0.0023524965394966144
6806.401040391625,0.00422551848061655,0.002349813477922417
6806.402040163841,0.0041889911275084174,0.0023460559510217927
6806.403039936056,0.0041512710218413115,0.0023414562140171096
6806.404039708271,0.004113324093246371,0.002336244122620668
6806.405039480486,0.0040760628954813975,0.002330640166891667
6806.406039252702,0.004040326261100715,0.0023248494534431545
6806.407039024917,0.004006861468601209,0.0023190567664774435
6806.408038797133,0.003976309346825839,0.0023134227877256975
6806.409038569347,0.003949192618783738,0.002308081507046924
6806.4100383415625,0.003925907682379703,0.002303138808723467
6806.411038113778,0.0039067199338596115,0.0022986721660273653
6806.412037885993,0.0038917626353322356,0.002294731315929745
6806.413037658209,0.003881039194920313,0.0022913397318176164
6806.414037430424,0.0038744285904335147,0.002288496681852209
6806.415037202639,0.0038716935714596186,0.002286179655092446
6806.416036974854,0.003872491237757047,0.002284346953164377
6806.41703674707,0.003876385588358449,0.0022829402886168234
6806.418036519285,0.0038828616409631016,0.0022818873030701296
6806.419036291501,0.0038913407302452263,0.0022811039954699418
6806.420036063715,0.0039011965942846974,0.0022804970978446354
6806.4210358359305,0.003911771833323193,0.0022799664339771667
6806.422035608146,0.003922394294283325,0.002279407259371945
6806.423035380361,0.003932392950697427,0.0022787125483138457
6806.424035152577,0.003941112932475345,0.0022777751988990597
6806.425034924791,0.003947929466736128,0.002276490166548205
6806.426034697007,0.003952260554040365,0.002274756576777447
6806.427034469222,0.003953578214399389,0.002272479876678035
6806.428034241438,0.003951418143028436,0.0022695740547060686
6806.429034013653,0.003945387659512871,0.0022659639097853362
6806.430033785868,0.0039351719126351275,0.002261587313317499
6806.431033558083,0.003920538381492277,0.0022563973979878985
6806.4320333302985,0.003901339753915161,0.0022503646198724424
6806.433033102514,0.0038775152477279417,0.002243478661233562
6806.434032874729,0.003849090388723469,0.002235750161068006
6806.435032646945,0.003816175223515679,0.002227212272521051
6806.436032419159,0.0037789609713863893,0.002217922041308322
6806.437032191375,0.0037377152112847293,0.0022079615702138076
6806.43803196359,0.00369277582180473,0.002197438888970337
6806.439031735806,0.0036445439843285233,0.00218648840333299
6806.440031508021,0.0035934765699750758,0.002175270758677319
6806.441031280236,0.003540078149433789,0.0021639719219163646
6806.442031052451,0.0034848927306455548,0.0021528012803819947
6806.4430308246665,0.003428495205042014,0.002141988611923345
6806.444030596882,0.0033714824319513283,0.0021317799014524573
6806.445030369097,0.0033144639540349055,0.0021224321211078478
6806.446030141313,0.0032580524903852988,0.0021142071976723437
6806.447029913527,0.003202854502699525,0.002107365435103776
6806.448029685743,0.0031494611845597547,0.0021021586520599566
6806.449029457958,0.003098440180588944,0.0020988232665100676
6806.450029230174,0.003050328261574843,0.0020975735393021656
6806.451029002389,0.0030056251095908417,0.002098595172429326
6806.452028774604,0.002964788303788815,0.0021020394239256845
6806.453028546819,0.0029282295260092766,0.0021080178494085997
6806.4540283190345,0.002896311923314746,0.0021165977393778853
6806.45502809125,0.002869348487210742,0.002127798316799811
6806.456027863465,0.0028476012597278455,0.0021415877853552126
6806.457027635681,0.0028312811757265064,0.0021578813480638667
6806.458027407895,0.0028205484003555772,0.002176540329754376
6806.459027180111,0.0028155130904337577,0.002197372533678528
6806.460026952326,0.00281623655426726,0.0022201339463004855
6806.461026724542,0.002822732783854728,0.0022445318746026795
6806.462026496757,0.0028349703061187324,0.002270229553358686
6806.463026268972,0.0028528742859326404,0.0022968521932505673
6806.464026041187,0.0028763288286077753,0.0023239943588565662
6806.4650258134025,0.0029051794516614174,0.00235122847718592
6806.466025585618,0.0029392357018703983,0.002378114189118964
6806.467025357833,0.002978273877987856,0.0024042081778175585
6806.468025130049,0.0030220397771003886,0.002429074062126411
6806.469024902263,0.003070251309646209,0.002452291949483063
6806.470024674479,0.00312260075131507,0.0024734672967195765
6806.471024446694,0.003178756386545556,0.0024922388059941242
6806.47202421891,0.0032383634070186217,0.00250828517203813
6806.473023991125,0.003301044135817698,0.0025213305838696076
6806.47402376334,0.003366397847502626,0.002531148950737917
6806.475023535555,0.0034340005527034047,0.0025375668620050526
6806.47602330777,0.0035034051049670015,0.0025404653163734847
6806.477023079986,0.0035741419166312586,0.0025397802786232583
6806.478022852201,0.0036457204815146843,0.0025355021419858764
6806.479022624417,0.0037176318115926324,0.0025276741864817785
6806.480022396631,0.0037893518137001544,0.0025163901247784526
6806.481022168847,0.0038603455764214143,0.002501790821803266
6806.482021941062,0.0039300725137599735,0.0024840602732877936
6806.483021713278,0.003997992310220657,0.002463420938802948
6806.484021485493,0.004063571611870353,0.0024401285440958306
6806.485021257708,0.004126291390298949,0.0024144664866189037
6806.486021029923,0.004185654857013447,0.0023867399887580764
6806.487020802138,0.004241195730094934,0.0023572701445744924
6806.488020574354,0.00429248658296943,0.0023263880019524412
6806.489020346569,0.004339146968755841,0.002294428810180617
6806.490020118784,0.00438085102662404,0.0022617265356889675
6806.491019890999,0.004417334331081809,0.0022286087113279696
6806.492019663215,0.004448399805157727,0.002195391655524803
6806.49301943543,0.004473922530713588,0.002162376088348498
6806.494019207646,0.004493853230600151,0.002129843180084641
6806.49501897986,0.004508220114149905,0.0020980510847233456
6806.496018752076,0.004517128760603404,0.0020672320197363224
6806.497018524291,0.004520759823532565,0.002037589945324471
6806.498018296506,0.0045193645446757,0.0020092988846144412
6806.499018068722,0.004513258279059622,0.001982501927222603
6806.500017840937,0.0045028123819278966,0.0019573109608089644
6806.501017613152,0.0044884448789191626,0.001933807156134588
6806.502017385367,0.004470610366187022,0.0019120421898403915
6806.503017157583,0.0044497895984894125,0.0018920401431494482
6806.504016929798,0.0044264792232213135,0.0018737999778526433
6806.505016702014,0.00440118209137097,0.0018572984666293875
6806.506016474228,0.004374398511811511,0.0018424934418564294
6806.507016246444,0.004346618714851024,0.0018293272278423654
6806.508016018659,0.004318316672969278,0.0018177301417288973
6806.509015790874,0.004289945322880826,0.0018076239851117337
6806.51001556309,0.004261933159331745,0.0017989254814057293
6806.511015335305,0.004234682106138663,0.0017915496199727749
6806.51201510752,0.004208566481573435,0.0017854128463828983
6806.513014879735,0.004183932764241473,0.0017804360161953758
6806.514014651951,0.004161099774018532,0.0017765470376235552
6806.515014424166,0.004140358861581557,0.001773683166474823
6806.516014196382,0.004121973777139392,0.001771792951686603
6806.517013968596,0.004106180051351031,0.0017708378295721648
6806.518013740812,0.0040931839191951135,0.001770793327650874
6806.519013513027,0.004083160989709559,0.0017716497881032722
6806.520013285242,0.004076254962643295,0.0017734124877410887
6806.521013057458,0.0040725766908961914,0.0017761010421144263
6806.522012829673,0.004072203800403441,0.0017797480425269336
6806.523012601888,0.004075180973220525,0.0017843969637856018
6806.524012374103,0.00408152094470384,0.0017900994591055401
6806.525012146319,0.004091206267015933,0.0017969122017885085
6806.526011918534,0.004104191891526798,0.001804893445161929
6806.5270116907495,0.0041204085712160735,0.0018140994718088513
6806.528011462964,0.004139766982046898,0.001824581099498713
6806.52901123518,0.004162162350458133,0.0018363803964827345
6806.530011007395,0.004187479297384288,0.0018495277236780464
6806.53101077961,0.004215596582770249,0.0018640391741801046
6806.532010551826,0.004246391434679072,0.0018799144438764257
6806.533010324041,0.004279743141580363,0.0018971351517005194
6806.534010096256,0.004315535577484858,0.001915663622379564
6806.535009868471,0.0043536583580755794,0.0019354421315546735
6806.536009640687,0.004394006424886343,0.0019563925903078637
6806.537009412902,0.004436478005330403,0.0019784166250843725
6806.5380091851175,0.004480971042844775,0.002001396004458661
6806.539008957332,0.004527378293086366,0.0020251933797362717
6806.540008729548,0.004575581347482951,0.002049653328644911
6806.541008501763,0.004625443918495426,0.002074603702761376
6806.542008273978,0.004676804830402848,0.002099857273088576
6806.543008046194,0.004729471274899034,0.0021252136496237493
6806.544007818409,0.0047832129455225286,0.002150461432789312
6806.545007590624,0.0048377576232255986,0.0021753805506879572
6806.546007362839,0.004892788663010719,0.0021997447489638454
6806.547007135055,0.004947944662915538,0.002223324220004315
6806.54800690727,0.005002821417572503,0.0022458883741500817
6806.5490066794855,0.005056976105153011,0.0022672087606789727
6806.5500064517,0.0051099335441011145,0.0022870621357380214
6806.551006223916,0.0051611942701323766,0.002305233647229987
6806.552005996131,0.00521024411176895,0.0023215200732902112
6806.553005768346,0.005256564895352273,0.0023357330306769224
6806.554005540562,0.005299645894716638,0.0023477020745567502
6806.555005312776,0.005338995630219647,0.0023572776363245227
6806.556005084992,0.005374153587430835,0.002364333772315324
6806.557004857207,0.005404701385959909,0.002368770701785558
6806.558004629423,0.005430272938439387,0.0023705170853062538
6806.559004401638,0.005450563228058268,0.0023695319473636717
6806.560004173853,0.005465335479351994,0.0023658061142380047
6806.561003946068,0.0054744266545474944,0.0023593630450289794
6806.562003718283,0.005477751324732117,0.0023502589710179644
6806.563003490499,0.005475304000474434,0.0023385823008081133
6806.564003262714,0.005467159966736509,0.00232445228391883
6806.56500303493,0.005453474619705015,0.0023080169592044003
6806.566002807144,0.0054344813240000765,0.002289450453235762
6806.56700257936,0.005410487908444964,0.0022689497347275133
6806.568002351575,0.005381872032321431,0.002246730965121796
6806.569002123791,0.005349075699730904,0.0022230256048902694
6806.570001896006,0.005312599146350343,0.002198076435263372
6806.571001668221,0.0052729942098210724,0.0021721336362389688
6806.572001440436,0.005230857190609941,0.0021454510371557156
6806.573001212651,0.005186821153302097,0.0021182826446523705
6806.574000984867,0.005141547606592778,0.0020908795531306493
6806.575000757082,0.005095717529282195,0.0020634873336040746
6806.576000529298,0.005050021791018888,0.002036343969768654
6806.577000301512,0.005005151149914095,0.002009678380945518
6806.578000073728,0.004961786164055827,0.001983709554483075
6806.578999845943,0.004920587483566205,0.0019586462996698402
6806.579999618159,0.004882187046385993,0.0019346876145644666
6806.580999390374,0.004847180653289689,0.0019120236172575703
6806.5819991625885,0.004816122253314084,0.0018908369397439464
6806.582998934804,0.004789520076734651,0.0018713044294117946
6806.583998707019,0.004767834568604351,0.0018535989631549342
6806.584998479235,0.004751477938940258,0.0018378911602301422
6806.58599825145,0.004740815049119818,0.0018243507806057554
6806.586998023666,0.004736165263434482,0.0018131476099566125
6806.58799779588,0.004737804791185123,0.0018044516650023016
6806.588997568096,0.0047459689484828805,0.0017984326123546683
6806.589997340311,0.0047608537280265,0.0017952583724810658
6806.590997112527,0.004782616122548932,0.0017950929574090003
6806.591996884742,0.00481137279793372,0.0017980936558433843
6806.5929966569565,0.004847196890307506,0.001804407729639855
6806.593996429172,0.0048901128435044575,0.0018141688120870037
6806.594996201387,0.0049400893134560865,0.001827493193917569
6806.595995973603,0.004997030302459814,0.0018444761543240011
6806.596995745818,0.0050607648879877525,0.001865188456567654
6806.597995518034,0.005131036149802114,0.0018896730932892822
