Time,Filtered_ECG
6772.55605538882,-0.0038936395997278632
6772.557055160743,-0.003944095495762813
6772.558054932665,-0.003994252979003091
6772.559054704589,-0.004044097721312471
6772.560054476511,-0.004093615388791221
6772.561054248434,-0.0041427916471200015
6772.562054020356,-0.004191612166959378
6772.563053792279,-0.004240062629403031
6772.5640535642015,-0.004288128731482748
6772.565053336125,-0.004335796191723273
6772.566053108048,-0.004383050755745069
6772.56705287997,-0.004429878201913024
6772.568052651893,-0.004476264347029057
6772.569052423815,-0.004522195052066578
6772.570052195739,-0.0045676562279446204
6772.571051967661,-0.004612633841339451
6772.572051739584,-0.004657113920531381
6772.5730515115065,-0.0047010825612844725
6772.574051283429,-0.004744525932756798
6772.575051055353,-0.004787430283438851
6772.576050827275,-0.004829781947117682
6772.577050599198,-0.004871567348864286
6772.57805037112,-0.004912773011041705
6772.579050143043,-0.00495338555933126
6772.580049914966,-0.004993391728774231
6772.581049686889,-0.005032778369826256
6772.582049458812,-0.0050715324544216
6772.583049230734,-0.005109641082044381
6772.584049002657,-0.005147091485803752
6772.585048774579,-0.005183871038509954
6772.586048546503,-0.00521996725874807
6772.587048318425,-0.005255367816946196
6772.588048090348,-0.005290060541434721
6772.589047862271,-0.005324033424493262
6772.590047634193,-0.005357274628381832
6772.591047406117,-0.005389772491352751
6772.592047178039,-0.005421515533639806
6772.593046949962,-0.005452492463421174
6772.594046721884,-0.0054826921827525995
6772.595046493807,-0.0055121037934672676
6772.59604626573,-0.005540716603038759
6772.597046037653,-0.005568520130403385
6772.598045809576,-0.0055955041117380635
6772.599045581498,-0.005621658506189811
6772.600045353421,-0.005646973501552742
6772.601045125344,-0.0056714395198883775
6772.602044897267,-0.005695047223084943
6772.603044669189,-0.005717787518351177
6772.604044441112,-0.005739651563640121
6772.6050442130345,-0.005760630772998208
6772.606043984957,-0.0057807168218349265
6772.607043756881,-0.005799901652108212
6772.608043528803,-0.005818177477420672
6772.609043300726,-0.005835536788021713
6772.610043072648,-0.005851972355710538
6772.611042844571,-0.005867477238635066
6772.612042616494,-0.005882044785981707
6772.613042388417,-0.005895668642550977
6772.61404216034,-0.0059083427532139
6772.615041932262,-0.005920061367244084
6772.616041704185,-0.0059308190425203505
6772.617041476107,-0.005940610649594725
6772.618041248031,-0.005949431375620572
6772.619041019953,-0.005957276728135602
6772.620040791876,-0.005964142538694429
6772.621040563799,-0.0059700249663453085
6772.622040335721,-0.005974920500945603
6772.623040107645,-0.005978825966310412
6772.624039879567,-0.005981738523188734
6772.62503965149,-0.005983655672061394
6772.626039423412,-0.005984575255754932
6772.627039195335,-0.0059844954618655105
6772.628038967258,-0.005983414824986898
6772.629038739181,-0.005981332228736463
6772.630038511104,-0.005978246907573151
6772.631038283026,-0.005974158448401321
6772.632038054949,-0.005969066791954385
6772.633037826872,-0.005962972233952213
6772.634037598795,-0.0059558754260263524
6772.635037370717,-0.005947777376407246
6772.63603714264,-0.005938679450367774
6772.6370369145625,-0.005928583370417652
6772.638036686485,-0.005917491216243424
6772.639036458409,-0.005905405424389078
6772.640036230331,-0.0058923287876725804
6772.641036002254,-0.005878264454333996
6772.642035774176,-0.005863215926911213
6772.643035546099,-0.005847187060839693
6772.644035318022,-0.0058301820627730885
6772.645035089945,-0.005812205488622046
6772.646034861868,-0.005793262241308918
6772.64703463379,-0.005773357568236613
6772.648034405713,-0.005752497058470252
6772.649034177635,-0.005730686639630805
6772.650033949559,-0.005707932574500367
6772.651033721481,-0.005684241457339239
6772.652033493404,-0.005659620209915509
6772.653033265327,-0.005634076077248323
6772.65403303725,-0.00560761662306652
6772.655032809173,-0.005580249724984834
6772.656032581095,-0.005551983569400258
6772.657032353018,-0.0055228266461116345
6772.65803212494,-0.005492787742665947
6772.659031896863,-0.0054618759384352095
6772.660031668786,-0.005430100598428297
6772.661031440709,-0.005397471366842509
6772.662031212632,-0.005363998160360195
6772.663030984554,-0.005329691161196281
6772.664030756477,-0.005294560809903121
6772.6650305284,-0.005258617797939709
6772.666030300323,-0.00522187306001295
6772.667030072245,-0.005184337766199373
6772.668029844168,-0.005146023313856458
6772.6690296160905,-0.005106941319333541
6772.670029388013,-0.005067103609493197
6772.671029159937,-0.005026522213054907
6772.672028931859,-0.004985209351773789
6772.673028703782,-0.004943177431468153
6772.674028475704,-0.004900439032910564
6772.675028247627,-0.004857006902597932
6772.67602801955,-0.004812893943416857
6772.677027791473,-0.004768113205221097
6772.678027563396,-0.004722677875338445
6772.679027335318,-0.0046766012690247286
6772.680027107241,-0.004629896819882909
6772.681026879164,-0.004582578070265447
6772.682026651087,-0.004534658661678184
6772.683026423009,-0.00448615232520393
6772.684026194932,-0.004437072871963804
6772.685025966855,-0.004387434183634143
6772.686025738778,-0.004337250203036423
6772.687025510701,-0.0042865349248172625
6772.688025282623,-0.0042353023862350255
6772.689025054546,-0.0041835666580689315
6772.690024826468,-0.004131341835665895
6772.691024598391,-0.004078642030139492
6772.692024370314,-0.004025481359734618
6772.693024142237,-0.003971873941370511
6772.69402391416,-0.003917833882373866
6772.695023686082,-0.0038633752724128063
6772.696023458005,-0.0038085121756414693
6772.697023229928,-0.0037532586230639665
6772.698023001851,-0.0036976286051254334
6772.699022773773,-0.0036416360645368045
6772.700022545696,-0.0035852948893388956
6772.7010223176185,-0.003528618906210294
6772.702022089541,-0.0034716218740224875
6772.703021861465,-0.0034143174776446613
6772.704021633387,-0.0033567193219996225
6772.70502140531,-0.003298840926371411
6772.706021177232,-0.0032406957189643664
6772.707020949155,-0.0031822970317126587
6772.708020721078,-0.003123658095338634
6772.709020493001,-0.0030647920346577495
6772.710020264924,-0.0030057118641273074
6772.711020036846,-0.002946430483635744
6772.712019808769,-0.002886960674528786
6772.713019580692,-0.0028273150958684004
6772.714019352615,-0.0027675062809201334
6772.715019124537,-0.0027075466338641555
6772.71601889646,-0.0026474484267251155
6772.717018668383,-0.0025872237965157757
6772.718018440306,-0.0025268847425893156
6772.719018212229,-0.002466443124195125
6772.720017984151,-0.002405910658232918
6772.721017756074,-0.002345298917200007
6772.722017527996,-0.0022846193273265963
6772.723017299919,-0.0022238831668940076
6772.724017071842,-0.002163101564730785
6772.725016843765,-0.0021022854988816827
6772.726016615688,-0.002041445795444597
6772.72701638761,-0.00198059312757055
6772.728016159533,-0.0019197380146219255
6772.729015931456,-0.0018588908214842248
6772.730015703379,-0.0017980617580267003
6772.731015475301,-0.0017372608787072973
6772.732015247224,-0.0016764980823174176
6772.7330150191465,-0.0016157831118620933
6772.73401479107,-0.0015551255545712245
6772.735014562993,-0.0014945348420376209
6772.736014334915,-0.0014340202504776636
6772.737014106838,-0.0013735909011105
6772.73801387876,-0.0013132557606517841
6772.739013650684,-0.001253023641918083
6772.740013422606,-0.0011929032045381606
6772.741013194529,-0.0011329029557674197
6772.742012966452,-0.0010730312514018367
6772.743012738374,-0.0010132962967877655
6772.744012510297,-0.0009537061479240224
6772.74501228222,-0.0008942687126527031
6772.746012054143,-0.0008349917519352053
6772.747011826065,-0.000775882881209969
6772.748011597988,-0.0007169495718284614
6772.749011369911,-0.0006581991525659724
6772.750011141834,-0.0005996388112038286
6772.7510109137565,-0.0005412755961796958
6772.752010685679,-0.0004831164183027184
6772.753010457602,-0.00042516805253033465
6772.754010229524,-0.0003674371398036969
6772.755010001447,-0.0003099301889387195
6772.75600977337,-0.0002526535785698693
6772.757009545293,-0.00019561355914391032
6772.758009317216,-0.00013881625496091308
6772.759009089138,-8.226766625993904e-05
6772.760008861061,-2.5973671346899117e-05
6772.761008632984,3.0059971237848008e-05
6772.762008404907,8.5827620514555e-05
6772.763008176829,0.00014132375082419018
6772.764007948752,0.000196542949555986
6772.7650077206745,0.00025147991484484916
6772.766007492598,0.0003061294532410614
6772.7670072645205,0.0003604864773546968
6772.768007036443,0.00041454600347715976
6772.769006808366,0.000468303149182216
6772.770006580288,0.0005217531309088569
6772.771006352212,0.0005748912615283152
6772.772006124134,0.0006277129478975257
6772.773005896057,0.0006802136884013028
6772.77400566798,0.0007323890704854692
6772.775005439902,0.0007842347681831187
6772.776005211825,0.0008357465396361434
6772.777004983748,0.000886920224614105
6772.778004755671,0.0009377517420324938
6772.779004527593,0.0009882370874724196
6772.780004299516,0.0010383723307037932
6772.781004071439,0.0010881536132141202
6772.782003843362,0.0011375771457451203
6772.7830036152845,0.001186639205839504
6772.784003387207,0.0012353361354003685
6772.78500315913,0.0012836643382657916
6772.786002931052,0.001331620277801329
6772.787002702975,0.0013792004745132047
6772.788002474898,0.0014264015036850471
6772.789002246821,0.0014732199930410435
6772.790002018744,0.001519652620438355
6772.791001790666,0.001565696111591558
6772.792001562589,0.001611347237831761
6772.793001334512,0.0016566028139029254
6772.794001106435,0.0017014596957977879
6772.795000878357,0.0017459147786356743
6772.79600065028,0.001789964994584415
6772.7970004222025,0.0018336073108284963
6772.798000194126,0.0018768387275855003
6772.7989999660485,0.0019196562761728075
6772.799999737971,0.001962057017126439
6772.800999509894,0.0020040380383738107
6772.801999281816,0.0020455964534620646
6772.80299905374,0.0020867293998435192
6772.803998825662,0.0021274340372196728
6772.804998597585,0.002167707545945045
6772.805998369508,0.0022075471254920293
6772.80699814143,0.002246949992977808
6772.807997913353,0.002285913381754269
6772.808997685276,0.0023244345400617998
6772.809997457199,0.0023625107297477244
6772.810997229121,0.0024001392250500827
6772.811997001044,0.0024373173114473714
6772.812996772967,0.0024740422845748013
6772.81399654489,0.0025103114492075573
6772.8149963168125,0.0025461221183115047
6772.815996088735,0.00258147161216173
6772.816995860658,0.002616357257529263
6772.81799563258,0.0026507763869362787
6772.818995404504,0.0026847263379800273
6772.819995176426,0.0027182044527256683
6772.820994948349,0.002751208077168134
6772.821994720272,0.0027837345607630497
6772.822994492194,0.002815781256026668
6772.823994264118,0.002847345518204675
6772.82499403604,0.002878424705009624
6772.825993807963,0.0029090161764266744
6772.826993579885,0.002939117294587227
6772.827993351808,0.0029687254237099896
6772.8289931237305,0.0029978379301089644
6772.829992895654,0.0030264521822678386
6772.8309926675765,0.0030545655509802328
6772.831992439499,0.0030821754095552863
6772.832992211422,0.0031092791340880475
6772.833991983344,0.003135874103794149
6772.834991755268,0.003161957701408285
6772.83599152719,0.003187527313646005
6772.836991299113,0.003212580331728363
6772.837991071036,0.003237114151968993
6772.838990842958,0.003261126176423175
6772.839990614881,0.0032846138135984642
6772.840990386804,0.0033075744792264426
6772.841990158727,0.003330005597095134
6772.842989930649,0.003351904599941622
6772.843989702572,0.0033732689304043903
6772.844989474495,0.003394096042034941
6772.845989246418,0.0034143834003683036
6772.8469890183405,0.003434128484052076
6772.847988790263,0.003453328786033695
6772.848988562186,0.0034719818148056646
6772.849988334108,0.0034900850957084685
6772.850988106032,0.0035076361722908653
6772.851987877954,0.003524632607727224
6772.852987649877,0.003541071986291461
6772.8539874218,0.003556951914887071
6772.854987193722,0.003572270024632653
6772.855986965646,0.0035870239725022506
6772.856986737568,0.003601211443019786
6772.857986509491,0.003614830150006773
6772.858986281413,0.003627877838382478
6772.859986053336,0.0036403522860156503
6772.8609858252585,0.003652251305626906
6772.861985597182,0.0036635727467408553
6772.8629853691045,0.003674314497687014
6772.863985141027,0.0036844744876485505
6772.86498491295,0.003694050688757826
6772.865984684872,0.0037030411182376348
6772.866984456796,0.003711443840586947
6772.867984228718,0.0037192569698098425
6772.868984000641,0.0037264786716862293
6772.869983772564,0.0037331071660828465
6772.870983544486,0.003739140729302976
6772.87198331641,0.003744577696473216
6772.872983088332,0.003749416463965593
6772.873982860255,0.0037536554918532203
6772.874982632177,0.003757293306397642
6772.8759824041,0.0037603285025659323
6772.876982176023,0.0037627597465755384
6772.877981947946,0.0037645857784648212
6772.8789817198685,0.0037658054146871662
6772.879981491791,0.0037664175507264846
6772.880981263714,0.0037664211637318807
6772.881981035636,0.0037658153151692237
6772.88298080756,0.0037645991534873157
6772.883980579482,0.003762771916796345
6772.884980351405,0.003760332935556303
6772.885980123328,0.003757281635273069
6772.88697989525,0.0037536175391998656
6772.887979667174,0.0037493402710417852
6772.888979439096,0.0037444495576610414
6772.889979211019,0.0037389452317805614
6772.890978982941,0.003732827234683471
6772.891978754864,0.0037260956189059387
6772.8929785267865,0.003718750550920784
6772.89397829871,0.003710792313809195
6772.8949780706325,0.003702221309917804
6772.895977842555,0.003693038063498325
6772.896977614478,0.003683243223326825
6772.8979773864,0.0036728375652996534
6772.898977158324,0.003661821995002961
6772.899976930246,0.003650197550252658
6772.900976702169,0.0036379654036016304
6772.901976474092,0.003625126864810976
6772.902976246014,0.003611683383281994
6772.903976017938,0.003597636550445641
6772.90497578986,0.003582988102106164
6772.905975561783,0.0035677399207355996
6772.906975333705,0.003551894037715835
6772.907975105628,0.0035354526355249297
6772.908974877551,0.003518418049864427
6772.909974649474,0.0035007927717243858
6772.9109744213965,0.0034825794493829527
6772.911974193319,0.0034637808903373504
6772.912973965242,0.0034444000631632943
6772.913973737164,0.003424440099299948
6772.914973509088,0.003403904294757663
6772.91597328101,0.003382796111745849
6772.916973052933,0.0033611191802184206
6772.917972824856,0.0033388772993343464
6772.918972596778,0.0033160744388309083
6772.919972368702,0.0032927147403073115
6772.920972140624,0.003268802518416383
6772.921971912547,0.003244342261962124
6772.922971684469,0.003219338634900941
6772.923971456392,0.0031937964772443925
6772.9249712283145,0.0031677208058613453
6772.925971000238,0.0031411168151774366
6772.9269707721605,0.003113989877769793
6772.927970544083,0.0030863455448549852
6772.928970316006,0.0030581895466682565
6772.929970087928,0.003029527792732119
6772.930969859852,0.003000366372012479
6772.931969631774,0.0029707115529605424
6772.932969403697,0.0029405697834388313
6772.93396917562,0.0029099476905297857
6772.934968947542,0.0028788520802255427
6772.935968719466,0.0028472899369976325
6772.936968491388,0.002815268423245475
6772.937968263311,0.002782794878622725
6772.938968035233,0.0027498768192406554
6772.939967807156,0.0027165219367479222
6772.940967579079,0.0026827380972862034
6772.941967351002,0.0026485333403213508
6772.9429671229245,0.002613915877349827
6772.943966894847,0.0025788940904803307
6772.94496666677,0.0025434765308906294
6772.945966438692,0.0025076719171597548
6772.946966210616,0.0024714891334758305
6772.947965982538,0.002434937227719924
6772.948965754461,0.0023980254094264253
6772.949965526384,0.0023607630476205933
6772.950965298306,0.0023231596685340467
6772.95196507023,0.0022852249531991123
6772.952964842152,0.0022469687349230775
6772.953964614075,0.0022084009966435113
6772.954964385997,0.0021695318681659243
6772.95596415792,0.0021303716232851256
6772.956963929843,0.002090930676791722
6772.957963701766,0.002051219581365289
6772.9589634736885,0.0020112490243558473
6772.959963245611,0.0019710298244553846
6772.960963017534,0.0019305729282613126
6772.961962789457,0.0018898894067338832
6772.96296256138,0.0018489904515497722
6772.963962333302,0.001807887371354204
6772.964962105225,0.001766591587914167
6772.965961877148,0.0017251146321754411
6772.96696164907,0.0016834681402262946
6772.967961420994,0.001641663849170846
6772.968961192916,0.0015997135929151877
6772.969960964839,0.001557629297869455
6772.970960736761,0.0015154229785691185
6772.971960508684,0.0014731067332188381
6772.972960280607,0.0014306927391623005
6772.97396005253,0.001388193248281511
6772.9749598244525,0.0013456205823290876
6772.975959596375,0.001302987128197163
6772.976959368298,0.0012603053331265788
6772.97795914022,0.0012175876998601104
6772.978958912144,0.0011748467817435178
6772.979958684066,0.0011320951777782434
6772.980958455989,0.0010893455276295917
6772.981958227912,0.0010466105065942235
6772.982957999834,0.0010039028205307738
6772.983957771758,0.0009612352007573725
6772.98495754368,0.0009186203989197996
6772.985957315603,0.0008760711818339767
6772.986957087525,0.0008336003263064582
6772.987956859448,0.0007912206139365817
6772.988956631371,0.0007489448259039245
6772.989956403294,0.0007067857377447054
6772.9909561752165,0.0006647561141207623
6772.991955947139,0.0006228687035847117
6772.992955719062,0.0005811362333448651
6772.993955490985,0.0005395714040334296
6772.994955262908,0.0004981868844814546
6772.99595503483,0.00045699530650389824
6772.996954806753,0.0004160092596980791
6772.997954578676,0.0003752412862586628
6772.998954350598,0.00033470387581221664
6772.999954122522,0.000294409460274261
6773.000953894444,0.00025437040873166057
6773.001953666367,0.00021459902235312434
6773.002953438289,0.0001751075293305123
6773.003953210212,0.00013590807985357914
6773.004952982135,9.701274112071668e-05
6773.005952754058,5.8433492388195654e-05
6773.0069525259805,2.0182220060356135e-05
6773.007952297903,-1.7729287176840087e-05
6773.008952069826,-5.528934317650811e-05
6773.009951841748,-9.248636910342451e-05
6773.010951613672,-0.00012930889815615537
6773.011951385594,-0.00016574558023640847
6773.012951157517,-0.00020178518656331325
6773.01395092944,-0.0002374166142303565
6773.014950701363,-0.0002726288907027317
6773.015950473286,-0.00030741117825289584
6773.016950245208,-0.0003417527783321675
6773.017950017131,-0.00037564313587624656
6773.018949789053,-0.0004090718435425929
6773.019949560976,-0.00044202864587766707
6773.020949332899,-0.0004745034434121193
6773.021949104822,-0.0005064862966820989
6773.0229488767445,-0.0005379674301749412
6773.023948648667,-0.0005689372361975623
6773.02494842059,-0.0005993862786659557
6773.025948192513,-0.0006293052968142294
6773.026947964436,-0.0006586852088216589
6773.027947736358,-0.0006875171153562596
6773.028947508281,-0.0007157923030334107
6773.029947280204,-0.0007435022477880906
6773.030947052126,-0.0007706386181593178
6773.03194682405,-0.000797193278485429
6773.032946595972,-0.0008231582920088732
6773.033946367895,-0.0008485259238892505
6773.034946139817,-0.0008732886441233794
6773.03594591174,-0.0008974391303712363
6773.036945683663,-0.0009209702706866676
6773.037945455586,-0.0009438751661518242
6773.0389452275085,-0.0009661471334143181
6773.039944999431,-0.0009877797071261517
6773.040944771354,-0.0010087666422835034
6773.041944543277,-0.0010291019164664946
6773.0429443152,-0.0010487797319780883
6773.043944087122,-0.0010677945178812864
6773.044943859045,-0.0010861409319338179
6773.045943630968,-0.0011038138624195183
6773.046943402891,-0.0011208084298756297
6773.047943174814,-0.0011371199887152848
6773.048942946736,-0.0011527441287444789
6773.049942718659,-0.0011676766765728907
6773.050942490581,-0.0011819136969179697
6773.051942262504,-0.0011954514938017746
6773.052942034427,-0.0012082866116401181
6773.05394180635,-0.0012204158362236475
6773.0549415782725,-0.0012318361955905638
6773.055941350195,-0.0012425449607907499
6773.056941122118,-0.0012525396465411383
6773.057940894041,-0.0012618180117721935
6773.058940665964,-0.00127037806006543
6773.059940437886,-0.0012782180399819264
6773.060940209809,-0.0012853364452818429
6773.061939981732,-0.001291732015035011
6773.062939753654,-0.0012974037336227343
6773.063939525578,-0.0013023508306310165
6773.0649392975,-0.001306572780635535
6773.065939069423,-0.0013100693028787677
6773.066938841345,-0.0013128403608397847
6773.067938613268,-0.0013148861616973204
6773.068938385191,-0.0013162071556868408
6773.069938157114,-0.0013168040353524122
6773.0709379290365,-0.0013166777346942465
6773.071937700959,-0.0013158294282128618
6773.072937472882,-0.001314260529850846
6773.073937244805,-0.00131197269183326
6773.074937016728,-0.0013089678034077581
6773.07593678865,-0.0013052479894855354
6773.076936560573,-0.001300815609184246
6773.077936332496,-0.0012956732542740732
6773.078936104419,-0.0012898237475281742
6773.079935876342,-0.0012832701409787788
6773.080935648264,-0.00127601571408028
6773.081935420187,-0.0012680639717807158
6773.082935192109,-0.0012594186425030948
6773.083934964032,-0.0012500836760380638
6773.084934735955,-0.0012400632413494522
6773.085934507878,-0.001229361724294267
6773.0869342798005,-0.0012179837252587562
6773.087934051723,-0.0012059340567122127
6773.088933823646,-0.0011932177406802442
6773.089933595569,-0.001179840006139286
6773.090933367492,-0.0011658062863341811
6773.091933139414,-0.001151122216020695
6773.092932911337,-0.0011357936286348527
6773.09393268326,-0.0011198265533909938
6773.094932455183,-0.0011032272123104325
6773.095932227106,-0.0010860020171825945
6773.096931999028,-0.0010681575664604679
6773.097931770951,-0.0010497006420921667
6773.098931542873,-0.0010306382062903786
6773.099931314797,-0.001010977398241444
6773.100931086719,-0.0009907255307558158
6773.101930858642,-0.0009698900868616556
6773.1029306305645,-0.00094847871634336
6773.103930402487,-0.0009264992322268411
6773.10493017441,-0.0009039596072134272
6773.105929946333,-0.0008808679700642762
6773.106929718256,-0.0008572326019372153
6773.107929490178,-0.0008330619326779363
6773.108929262101,-0.0008083645370674824
6773.109929034024,-0.0007831491310279776
6773.110928805947,-0.0007574245677885492
6773.11192857787,-0.0007311998340133985
6773.112928349792,-0.0007044840458939623
6773.113928121715,-0.0006772864452070925
6773.114927893637,-0.0006496163953411498
6773.11592766556,-0.0006214833772918726
6773.116927437483,-0.0005928969856298591
6773.117927209406,-0.000563866924441482
6773.1189269813285,-0.000534403003245055
6773.119926753251,-0.0005045151328840785
6773.120926525174,-0.0004742133213994072
6773.121926297097,-0.00044350766988218905
6773.12292606902,-0.00041240836830944
6773.123925840942,-0.00038092569136413023
6773.124925612865,-0.00034906999424168174
6773.125925384788,-0.00031685170844480444
6773.126925156711,-0.0002842813375686379
6773.127924928634,-0.00025136945307819864
6773.128924700556,-0.0002181266900801579
6773.129924472479,-0.0001845637430909752
6773.130924244401,-0.00015069136180338564
6773.131924016325,-0.00011652034685320126
6773.132923788247,-8.20615455883433e-05
6773.13392356017,-4.73258478419902e-05
6773.1349233320925,-1.2324181711704354e-05
6773.135923104015,2.293249065361142e-05
6773.136922875938,5.8433177257083965e-05
6773.137922647861,9.416686044572935e-05
6773.138922419784,0.00013012250108897368
6773.139922191706,0.0001662890427420186
6773.140921963629,0.00020265541579224725
6773.141921735552,0.00023921054158687632
6773.142921507475,0.0002759433365400602
6773.143921279398,0.000312842716217639
6773.14492105132,0.00034989759939769137
6773.145920823243,0.00038709691210501215
6773.146920595165,0.00042442959161758894
6773.147920367088,0.0004618845904431152
6773.148920139011,0.0004994508802635549
6773.149919910934,0.0005371174558457676
6773.1509196828565,0.0005748733389162268
6773.151919454779,0.0006127075819979016
6773.152919226702,0.0006506092722074415
6773.153918998625,0.0006885675350108866
6773.154918770548,0.000726571537936223
6773.15591854247,0.0007646104942412062
6773.156918314393,0.000802673666534955
6773.157918086316,0.0008407503703518979
6773.158917858239,0.0008788299776767176
6773.1599176301615,0.0009169019204189947
6773.160917402084,0.0009549556938363132
6773.161917174007,0.0009929808599046417
6773.162916945929,0.0010309670506348577
6773.163916717853,0.0010689039713343267
6773.164916489775,0.0011067814038124926
6773.165916261698,0.001144589209529474
6773.1669160336205,0.0011823173326867113
6773.167915805543,0.001219955803258748
6773.168915577466,0.0012574947399652625
6773.169915349389,0.001294924353182509
6773.170915121312,0.0013322349477933495
6773.171914893234,0.001369416925975091
6773.172914665157,0.0014064607899243599
6773.17391443708,0.0014433571445182716
6773.174914209003,0.0014800966999111796
6773.1759139809255,0.001516670274066333
6773.176913752848,0.0015530687952218078
6773.177913524771,0.001589283304290124
6773.178913296693,0.0016253049571910078
6773.179913068617,0.001661125027116807
6773.180912840539,0.0016967349067301177
6773.181912612462,0.0017321261102932353
6773.1829123843845,0.0017672902757290738
6773.183912156307,0.001802219166613251
6773.184911928231,0.0018369046740970491
6773.185911700153,0.0018713388187609995
6773.186911472076,0.0019055137523988626
6773.187911243998,0.001939421759731817
6773.188911015921,0.0019730552600527047
6773.189910787844,0.0020064068088002204
6773.190910559767,0.0020394690990629782
6773.1919103316895,0.002072234963013439
6773.192910103612,0.0021046973732717494
6773.193909875535,0.0021368494441996125
6773.194909647457,0.002168684433124389
6773.195909419381,0.0022001957414937
6773.196909191303,0.0022313769159609
6773.197908963226,0.002262221649401876
6773.1989087351485,0.0022927237818637087
6773.199908507071,0.0023228773014458207
6773.200908278994,0.002352676345114272
6773.201908050917,0.002382115199449906
6773.20290782284,0.0024111883013310394
6773.203907594762,0.002439890238551375
6773.204907366685,0.0024682157503737876
6773.205907138608,0.0024961597280205848
6773.206906910531,0.002523717215100797
6773.2079066824535,0.002550883407974989
6773.208906454376,0.0025776536560580274
6773.209906226299,0.002604023462060164
6773.210905998221,0.002629988482166767
6773.211905770145,0.002655544526156962
6773.212905542067,0.0026806875574614357
6773.21390531399,0.002705413693159635
6773.2149050859125,0.0027297192039165965
6773.215904857835,0.002753600513859669
6773.216904629759,0.002777054200395395
6773.217904401681,0.002800076993966863
6773.218904173604,0.002822665777751841
6773.219903945526,0.0028448175873020546
6773.220903717449,0.00286652961012402
6773.221903489372,0.002887799185201877
6773.222903261295,0.0029086238024627438
6773.2239030332175,0.0029290011021851645
6773.22490280514,0.002948928874351283
6773.225902577063,0.0029684050579434356
6773.226902348985,0.0029874277401859234
6773.227902120909,0.0030059951557327674
6773.228901892831,0.0030241056858023164
6773.229901664754,0.0030417578572596534
6773.2309014366765,0.0030589503416477994
6773.231901208599,0.003075681954168752
6773.232900980523,0.0030919516526154564
6773.233900752445,0.003107758536255843
6773.234900524368,0.0031231018446700866
6773.23590029629,0.0031379809565422693
6773.236900068213,0.003152395388407617
6773.237899840136,0.0031663447933564658
6773.238899612059,0.0031798289596960717
6773.2398993839815,0.0031928478095713513
6773.240899155904,0.003205401397545589
6773.241898927827,0.0032174899091421214
6773.242898699749,0.0032291136593479907
6773.243898471673,0.0032402730910805317
6773.244898243595,0.0032509687736178563
6773.245898015518,0.0032612014009942023
6773.2468977874405,0.003270971790361134
6773.247897559363,0.0032802808803156546
6773.248897331287,0.0032891297291963626
6773.249897103209,0.0032975195133488544
6773.250896875132,0.0033054515253616817
6773.251896647054,0.0033129271722742177
6773.252896418977,0.003319947973757812
6773.2538961909,0.0033265155602716133
6773.254895962823,0.0033326316711943943
6773.2558957347455,0.0033382981529336488
6773.256895506668,0.003343516957013166
6773.257895278591,0.0033482901381401966
6773.258895050513,0.003352619852253252
6773.259894822437,0.0033565083545515437
6773.260894594359,0.0033599579975070256
6773.261894366282,0.003362971228860008
6773.2628941382045,0.0033655505895993543
6773.263893910127,0.0033676987119282925
6773.264893682051,0.0033694183172169817
6773.265893453973,0.0033707122139430266
6773.266893225896,0.0033715832956212203
6773.267892997818,0.0033720345387238788
6773.268892769741,0.00337206900059317
6773.269892541664,0.0033716898173468787
6773.270892313587,0.00337090020177903
6773.2718920855095,0.0033697034412567654
6773.272891857432,0.00336810289561478
6773.273891629355,0.003366101995048552
6773.274891401277,0.0033637042380074743
6773.275891173201,0.0033609131890888952
6773.276890945123,0.0033577324769339715
6773.277890717046,0.0033541657921261443
6773.2788904889685,0.003350216885092979
6773.279890260891,0.0033458895640120488
6773.280890032815,0.003341187692721493
6773.281889804737,0.0033361151886358454
6773.28288957666,0.003330676020667665
6773.283889348582,0.003324874207155465
6773.284889120505,0.0033187138137983963
6773.285888892428,0.0033121989515980995
6773.286888664351,0.003305333774808096
6773.2878884362735,0.0032981224788910433
6773.288888208196,0.0032905692984841316
6773.289887980119,0.0032826785053728493
6773.290887752041,0.0032744544064733016
6773.291887523965,0.0032659013418232536
6773.292887295887,0.003257023682582041
6773.29388706781,0.0032478258290395
6773.2948868397325,0.0032383122086340694
6773.295886611655,0.0032284872739802616
6773.296886383579,0.003218355500905687
6773.297886155501,0.0032079213864978705
6773.298885927424,0.0031971894471610985
6773.299885699346,0.0031861642166835452
6773.300885471269,0.003174850244314917
6773.301885243192,0.0031632520928548823
6773.302885015115,0.003151374336752564
6773.3038847870375,0.003139221560217411
6773.30488455896,0.003126798355341815
6773.305884330883,0.0031141093202358985
6773.306884102805,0.0031011590571749363
6773.307883874729,0.003087952170759947
6773.308883646651,0.003074493266092007
6773.309883418574,0.003060786946960886
6773.3108831904965,0.0030468378140486086
6773.311882962419,0.0030326504631485673
6773.312882734343,0.003018229483400825
6773.313882506265,0.003003579455544246
6773.314882278188,0.002988704950186087
6773.31588205011,0.0029736105260896547
6773.316881822033,0.002958300728480636
6773.317881593956,0.0029427800873726554
6773.318881365879,0.002927053115912603
6773.3198811378015,0.0029111243087462176
6773.320880909724,0.0028949981404044005
6773.321880681647,0.0028786790637107076
6773.32288045357,0.0028621715082104366
6773.323880225493,0.002845479878621699
6773.324879997415,0.0028286085533088465
6773.325879769338,0.0028115618827785887
6773.3268795412605,0.002794344188199132
6773.327879313183,0.0027769597599426577
6773.328879085107,0.002759412856151478
6773.329878857029,0.002741707701328252
6773.330878628952,0.0027238484849506795
6773.331878400874,0.002705839360111126
6773.332878172797,0.002687684442181695
6773.33387794472,0.0026693878075052953
6773.334877716643,0.002650953492113276
6773.3358774885655,0.002632385490470211
6773.336877260488,0.0026136877542464196
6773.337877032411,0.0025948641911188062
6773.338876804333,0.0025759186636005794
6773.339876576257,0.002556854987900371
6773.340876348179,0.002537676932811252
6773.341876120102,0.0025183882186300983
6773.3428758920245,0.0024989925161077453
6773.343875663947,0.0024794934454303056
6773.344875435871,0.002459894575232012
6773.345875207793,0.002440199421639893
6773.346874979716,0.0024204114473505207
6773.347874751638,0.00240053406073902
6773.348874523561,0.0023805706150004545
6773.349874295484,0.0023605244073236675
6773.350874067407,0.002340398678097579
6773.3518738393295,0.002320196610149919
6773.352873611252,0.002299921328018327
6773.353873383175,0.002279575897253729
6773.354873155098,0.002259163323755882
6773.355872927021,0.0022386865531409486
6773.356872698943,0.0022181484701409727
6773.357872470866,0.0021975518980351144
6773.3588722427885,0.002176899598112527
6773.359872014711,0.0021561942691667928
6773.360871786635,0.0021354385470218834
6773.361871558557,0.002114635004089666
6773.36287133048,0.002093786148959046
6773.363871102402,0.002072894426016902
6773.364870874325,0.0020519622151010104
6773.365870646248,0.002030991831185191
6773.366870418171,0.0020099855240969253
6773.3678701900935,0.0019889454782676726
6773.368869962016,0.001967873812516118
6773.369869733939,0.0019467725798645375
6773.370869505861,0.001925643767388464
6773.371869277785,0.0019044892960997913
6773.372869049707,0.0018833110208634342
6773.37386882163,0.0018621107303476334
6773.3748685935525,0.0018408901470079412
6773.375868365476,0.0018196509271048973
6773.376868137399,0.0017983946607553847
6773.377867909321,0.0017771228720176154
6773.378867681244,0.0017558370190096891
6773.379867453166,0.0017345384940616407
6773.380867225089,0.0017132286239008873
6773.381866997012,0.0016919086698709744
6773.382866768935,0.0016705798281835018
6773.3838665408575,0.0016492432302030804
6773.38486631278,0.001627899942765144
6773.385866084703,0.0016065509685263843
6773.386865856626,0.001585197246347547
6773.387865628549,0.0015638396517082514
6773.388865400471,0.0015424789971534346
6773.389865172394,0.001521116032770954
6773.3908649443165,0.0014997514466998229
6773.391864716239,0.0014783858656685035
6773.392864488163,0.0014570198555626452
6773.393864260085,0.0014356539220216427
6773.394864032008,0.0014142885110633979
6773.39586380393,0.0013929240097366898
6773.396863575853,0.0013715607468006
6773.397863347776,0.001350198993430484
6773.398863119699,0.0013288389639500389
6773.3998628916215,0.0013074808165890505
6773.400862663544,0.0012861246542664466
6773.401862435467,0.0012647705253982973
6773.40286220739,0.0012434184247304065
6773.403861979313,0.0012220682941951283
6773.404861751235,0.0012007200237920059
6773.405861523158,0.0011793734524917978
6773.4068612950805,0.0011580283691634303
6773.407861067004,0.0011366845135233937
6773.408860838927,0.0011153415771071042
6773.409860610849,0.0010939992042617586
6773.410860382772,0.0010726569931602272
6773.411860154694,0.0010513144968355465
6773.412859926617,0.0010299712242355975
6773.41385969854,0.001008626641297578
6773.414859470463,0.000987280172041895
6773.4158592423855,0.000965931199685124
6773.416859014308,0.0009445790677717038
6773.417858786231,0.0009232230813240284
6773.418858558154,0.0009018625080105958
6773.419858330077,0.0008804965793318427
6773.420858101999,0.0008591244918232465
6773.421857873922,0.0008377454082752216
6773.4228576458445,0.0008163584589692697
6773.423857417767,0.0007949627429297857
6773.424857189691,0.0007735573291908634
6773.425856961613,0.0007521412580774035
6773.426856733536,0.0007307135424997926
6773.427856505458,0.0007092731692614065
6773.428856277381,0.000687819100378182
6773.429856049304,0.0006663502744094981
6773.430855821227,0.0006448656077996055
6773.4318555931495,0.0006233639962288544
6773.432855365072,0.0006018443159739804
6773.433855136995,0.0005803054252767355
6773.434854908918,0.0005587461657201917
6773.435854680841,0.0005371653636120882
6773.436854452763,0.0005155618313746537
6773.437854224686,0.0004939343689403991
6773.4388539966085,0.0004722817651534386
6773.439853768532,0.00045060279917596687
6773.440853540455,0.0004288962418995807
6773.441853312377,0.00040716085736119305
6773.4428530843,0.0003853954041633323
6773.443852856222,0.00036359863689865537
6773.444852628145,0.0003417693075785121
6773.445852400068,0.0003199061670653929
6773.446852171991,0.00029800796650905886
6773.4478519439135,0.00027607345878611397
6773.448851715836,0.00025410139994273037
6773.449851487759,0.00023209055064019412
6773.450851259682,0.0002100396776029057
6773.451851031605,0.00018794755506844896
6773.452850803527,0.00016581296623933577
6773.45385057545,0.00014363470473603688
6773.4548503473725,0.00012141157605092549
6773.455850119296,9.914239900278027e-05
6773.456849891219,7.682600719152334e-05
6773.457849663141,5.446125045289953e-05
6773.458849435064,3.204699631283841e-05
6773.459849206986,9.582131441274324e-06
6773.46084897891,-1.2934436894769369e-05
6773.461848750832,-3.550377937900103e-05
6773.462848522755,-5.812694319473454e-05
6773.4638482946775,-8.080495057494426e-05
6773.4648480666,-0.00010353879735360764
6773.465847838523,-0.00012632945151842083
6773.466847610446,-0.0001491778517649548
6773.467847382369,-0.00017208490605230884
6773.468847154291,-0.00019505149016031204
6773.469846926214,-0.00021807844624831992
6773.4708466981365,-0.0002411665814156447
6773.47184647006,-0.000264316666263647
6773.472846241983,-0.0002875294334595028
6773.473846013905,-0.00031080557630164664
6773.474845785828,-0.00033414574728688113
6773.47584555775,-0.0003575505566791255
6773.476845329673,-0.0003810205710797503
6773.477845101596,-0.000404556311999412
6773.478844873519,-0.0004281582544312724
6773.4798446454415,-0.0004518268254254779
6773.480844417364,-0.00047556240266479827
6773.481844189287,-0.0004993653130413704
6773.48284396121,-0.0005232358312345744
6773.483843733133,-0.0005471741782901648
6773.484843505055,-0.0005711805202008942
6773.485843276978,-0.0005952549664889891
6773.4868430489005,-0.0006193975687909725
6773.487842820824,-0.0006436083194454585
6773.488842592747,-0.0006678871500846957
6773.489842364669,-0.0006922339302307879
6773.490842136592,-0.0007166484658976843
6773.491841908514,-0.0007411304982001946
6773.492841680438,-0.000765679701971452
6773.49384145236,-0.0007902956843904225
6773.494841224283,-0.0008149779836212342
6773.4958409962055,-0.0008397260674662754
6773.496840768128,-0.0008645393320351696
6773.497840540051,-0.0008894171004318846
6773.498840311974,-0.0009143586214623541
6773.499840083897,-0.0009393630683651123
6773.500839855819,-0.0009644295375675397
6773.501839627742,-0.00098955704747043
6773.5028393996645,-0.0010147445372636836
6773.503839171588,-0.0010399908657760114
6773.504838943511,-0.001065294810361593
6773.505838715433,-0.0010906550658266506
6773.506838487356,-0.0011160702433988827
6773.507838259278,-0.0011415388697426383
6773.508838031201,-0.0011670593860226301
6773.509837803124,-0.0011926301470188757
6773.510837575047,-0.0012182494202954385
6773.5118373469695,-0.0012439153854254226
6773.512837118892,-0.0012696261332745525
6773.513836890815,-0.0012953796653455403
6773.514836662738,-0.0013211738931853294
6773.515836434661,-0.0013470066378571865
6773.516836206583,-0.0013728756294795177
6773.517835978506,-0.0013987785068332093
6773.5188357504285,-0.0014247128170392297
6773.519835522352,-0.0014506760153082045
6773.520835294275,-0.001476665464763662
6773.521835066197,-0.001502678436340647
6773.52283483812,-0.0015287121087613964
6773.523834610042,-0.001554763568589777
6773.524834381966,-0.0015808298103661697
6773.525834153888,-0.0016069077368244555
6773.526833925811,-0.0016329941591927155
6773.5278336977335,-0.0016590857975792139
6773.528833469656,-0.0016851792814451584
6773.529833241579,-0.0017112711501656704
6773.530833013502,-0.0017373578536802987
6773.531832785425,-0.0017634357532343226
6773.532832557347,-0.001789501122211989
6773.53383232927,-0.0018155501470627246
6773.5348321011925,-0.0018415789283212612
6773.535831873116,-0.0018675834817225047
6773.536831645039,-0.0018935597394118553
6773.537831416961,-0.001919503551251574
6773.538831188884,-0.001945410686223653
6773.539830960806,-0.001971276833929518
6773.54083073273,-0.0019970976061867356
6773.541830504652,-0.0020228685387227423
6773.542830276575,-0.0020485850929654443
6773.5438300484975,-0.002074242657930363
6773.54482982042,-0.002099836552203847
6773.545829592344,-0.002125362026021707
6773.546829364266,-0.0021508142634425005
6773.547829136189,-0.00217618838461459
6773.548828908111,-0.0022014794481359586
6773.549828680034,-0.0022266824535056664
6773.5508284519565,-0.002251792343665709
6773.55182822388,-0.0022768040076319314
6773.5528279958025,-0.0023017122832125693
6773.553827767725,-0.0023265119598129113
6773.554827539648,-0.0023511977813245395
6773.55582731157,-0.0023757644490975584
6773.556827083494,-0.002400206624994211
6773.557826855416,-0.002424518934522265
6773.558826627339,-0.002448695970046536
6773.5598263992615,-0.0024727322940768987
6773.560826171184,-0.002496622442631112
6773.561825943107,-0.0025203609286707025
6773.56282571503,-0.0025439422456080946
6773.563825486953,-0.0025673608708830647
6773.564825258875,-0.002590611269606512
6773.565825030798,-0.0026136878982694393
6773.5668248027205,-0.002636585208514942
6773.567824574644,-0.002659297650970921
6773.568824346567,-0.002681819679141126
6773.569824118489,-0.0027041457533520602
6773.570823890412,-0.0027262703447531737
6773.571823662334,-0.0027481879393677043
6773.572823434258,-0.002769893042191459
6773.57382320618,-0.0027913801813367377
6773.574822978103,-0.00281264391221855
6773.5758227500255,-0.002833678821780184
6773.576822521948,-0.002854479532755103
6773.577822293872,-0.002875040707962061
6773.578822065794,-0.0028953570546302104
6773.579821837717,-0.0029154233287508845
6773.580821609639,-0.00293523433945261
6773.581821381562,-0.002954784953395794
6773.5828211534845,-0.0029740700991834203
6773.583820925408,-0.0029930847717839462
6773.5848206973305,-0.003011824036962455
6773.585820469253,-0.0030302830357159987
6773.586820241176,-0.0030484569887088975
6773.587820013098,-0.0030663412007036536
6773.588819785022,-0.003083931064982992
6773.589819556944,-0.003101222067758415
6773.590819328867,-0.0031182097925605153
6773.5918191007895,-0.0031348899246061864
6773.592818872712,-0.003151258255137739
6773.593818644636,-0.0031673106857288452
6773.594818416558,-0.0031830432325521897
6773.595818188481,-0.0031984520306036408
6773.596817960403,-0.0032135333378777195
6773.597817732326,-0.003228283539489126
6773.598817504249,-0.0032426991517350164
6773.599817276172,-0.003256776826092732
6773.600817048095,-0.003270513353147633
6773.601816820017,-0.0032839056664457186
6773.60281659194,-0.003296950846265659
6773.603816363862,-0.003309646123304886
6773.604816135786,-0.003321988882274314
6773.605815907708,-0.003333976665396216
6773.606815679631,-0.003345607175799721
6773.6078154515535,-0.0033568782808082926
6773.608815223476,-0.0033677880151134917
6773.6098149954,-0.003378334583829217
6773.610814767322,-0.003388516365420526
6773.611814539245,-0.003398331914501067
6773.612814311167,-0.0034077799644930684
6773.61381408309,-0.003416859430143801
6773.6148138550125,-0.003425569409892391
6773.615813626936,-0.003433909188080847
6773.6168133988585,-0.0034418782370031625
6773.617813170781,-0.003449476218786351
6773.618812942704,-0.003456702987097256
6773.619812714626,-0.003463558588668963
6773.62081248655,-0.003470043264640655
6773.621812258472,-0.0034761574517047774
6773.622812030395,-0.0034819017830554555
6773.6238118023175,-0.0034872770891321964
6773.62481157424,-0.0034922843981530756
6773.625811346164,-0.0034969249364317835
6773.626811118086,-0.0035012001284731465
6773.627810890009,-0.0035051115968420333
6773.628810661931,-0.0035086611618008667
6773.629810433854,-0.003511850840711301
6773.630810205777,-0.0035146828471959925
6773.6318099777,-0.0035171595900567666
6773.632809749623,-0.003519283671945882
6773.633809521545,-0.003521057887787529
6773.634809293468,-0.003522485222947142
6773.63580906539,-0.0035235688511465976
6773.636808837314,-0.003524312132123865
6773.637808609236,-0.003524718609036225
6773.638808381159,-0.0035247920056067014
6773.6398081530815,-0.0035245362230139424
6773.640807925004,-0.003523955336526357
6773.641807696928,-0.0035230535918818924
6773.64280746885,-0.0035218354014153906
6773.643807240773,-0.003520305339936036
6773.644807012695,-0.0035184681403579265
6773.645806784618,-0.0035163286890873735
6773.6468065565405,-0.0035138920211710716
6773.647806328464,-0.003511163315209884
6773.6488061003865,-0.0035081478880436045
6773.649805872309,-0.003504851189212737
6773.650805644232,-0.0035012787952040016
6773.651805416154,-0.0034974364034869956
6773.652805188078,-0.003493329826350165
6773.65380496,-0.0034889649845450004
6773.654804731923,-0.003484347900748186
6773.6558045038455,-0.0034794846928522896
6773.656804275768,-0.003474381567096529
6773.657804047692,-0.003469044811050149
6773.658803819614,-0.0034634807864619547
6773.659803591537,-0.0034576959219905575
6773.660803363459,-0.0034516967058308484
6773.661803135382,-0.0034454896782530617
6773.662802907305,-0.00343908142407148
6773.663802679228,-0.0034324785650603875
6773.664802451151,-0.0034256877523352576
6773.665802223073,-0.003418715658717416
6773.666801994996,-0.0034115689711005735
6773.667801766918,-0.003404254382837657
6773.668801538842,-0.0033967785861662605
6773.669801310764,-0.003389148264690819
6773.670801082687,-0.003381370085939239
6773.6718008546095,-0.003373450694011216
6773.672800626532,-0.003365396702334892
6773.673800398456,-0.0033572146865477742
6773.674800170378,-0.003348911177517063
6773.675799942301,-0.003340492654513651
6773.676799714223,-0.0033319655385530924
6773.677799486146,-0.003323336185915849
6773.678799258069,-0.003314610881858093
6773.679799029992,-0.003305795834523289
6773.6807988019145,-0.0032968971690637444
6773.681798573837,-0.003287920921980256
6773.68279834576,-0.003278873035686927
6773.683798117683,-0.0032697593533071744
6773.684797889606,-0.003260585613705908
6773.685797661528,-0.003251357446761772
6773.686797433451,-0.0032420803688823245
6773.6877972053735,-0.0032327597787640034
6773.688796977296,-0.003223400953397772
6773.68979674922,-0.0032140090443204773
6773.690796521142,-0.0032045890741111208
6773.691796293065,-0.0031951459331305506
6773.692796064987,-0.003185684376502396
6773.69379583691,-0.0031762090213324537
6773.694795608833,-0.0031667243441632115
6773.695795380756,-0.003157234678659691
6773.696795152679,-0.0031477442135223756
6773.697794924601,-0.003138256990622639
6773.698794696524,-0.0031287769033558253
6773.699794468446,-0.0031193076952068842
6773.70079424037,-0.0031098529585232813
6773.701794012292,-0.0031004161334898033
6773.702793784215,-0.003091000507299822
6773.7037935561375,-0.0030816092135175625
6773.70479332806,-0.0030722452316259614
6773.705793099984,-0.003062911386754732
6773.706792871906,-0.0030536103495833276
6773.707792643829,-0.0030443446364135573
6773.708792415751,-0.0030351166094066714
6773.709792187674,-0.0030259284769798373
6773.710791959597,-0.003016782294356987
6773.71179173152,-0.0030076799642691065
6773.7127915034425,-0.0029986232377991234
6773.713791275365,-0.002989613715366608
6773.714791047288,-0.002980652847847577
6773.715790819211,-0.0029717419378247644
6773.716790591134,-0.0029628821409637732
6773.717790363056,-0.0029540744675106046
6773.718790134979,-0.002945319783906117
6773.7197899069015,-0.002936618814513036
6773.720789678824,-0.00292797214345117
6773.721789450748,-0.002919380216536556
6773.72278922267,-0.002910843343320292
6773.723788994593,-0.0029023616992228532
6773.724788766515,-0.0028939353277597384
6773.725788538438,-0.0028855641428543197
6773.726788310361,-0.0028772479312338217
6773.727788082284,-0.0028689863549044153
6773.728787854207,-0.002860778953701473
6773.729787626129,-0.002852625147911072
6773.730787398052,-0.0028445242409588993
6773.731787169974,-0.002836475422162731
6773.732786941898,-0.0028284777695446817
6773.73378671382,-0.002820530252699457
6773.734786485743,-0.0028126317357148457
6773.7357862576655,-0.0028047809801407275
6773.736786029589,-0.0027969766480029313
6773.737785801512,-0.002789217304858323
6773.738785573434,-0.0027815014228875774
6773.739785345357,-0.00277382738402216
6773.740785117279,-0.002766193483102126
6773.741784889202,-0.002758597931061412
6773.742784661125,-0.00275103885813737
6773.743784433048,-0.0027435143171013615
6773.7447842049705,-0.0027360222865072934
6773.745783976893,-0.0027285606739550394
6773.746783748816,-0.002721127319365776
6773.747783520739,-0.0027137199982663423
6773.748783292662,-0.0027063364250798283
6773.749783064584,-0.002698974256419681
6773.750782836507,-0.002691631094384723
6773.7517826084295,-0.002684304489852585
6773.752782380352,-0.002676991945769141
6773.753782152276,-0.002669690920431673
6773.754781924198,-0.002662398830763561
6773.755781696121,-0.0026551130555784227
6773.756781468043,-0.002647830938831697
6773.757781239966,-0.002640549792857756
6773.758781011889,-0.002633266901590669
6773.759780783812,-0.0026259795237668173
6773.760780555735,-0.002618684896107557
6773.761780327657,-0.002611380236480168
6773.76278009958,-0.0026040627470353297
6773.763779871503,-0.002596729617319386
6773.764779643426,-0.002589378027359664
6773.765779415348,-0.0025820051507211813
6773.766779187271,-0.0025746081575331006
6773.7677789591935,-0.0025671842174833596
6773.768778731117,-0.002559730502779981
6773.76977850304,-0.00255224419107764
6773.770778274962,-0.002544722468368158
6773.771778046885,-0.002537162531833674
6773.772777818807,-0.0025295615926613697
6773.77377759073,-0.0025219168788187174
6773.774777362653,-0.0025142256377883227
6773.775777134576,-0.002506485139261533
6773.7767769064985,-0.002498692677790033
6773.777776678421,-0.0024908455753947126
6773.778776450344,-0.0024829411841311285
6773.779776222267,-0.002474976888610923
6773.78077599419,-0.002466950108478594
6773.781775766112,-0.0024588583008430492
6773.782775538035,-0.0024506989626634054
6773.7837753099575,-0.002442469633088536
6773.78477508188,-0.0024341678957499114
6773.785774853804,-0.002425791381007295
6773.786774625726,-0.0024173377681469092
6773.787774397649,-0.0024088047875316897
6773.788774169571,-0.0024001902227032777
6773.789773941494,-0.0023914919124353967
6773.790773713417,-0.0023827077527382706
6773.79177348534,-0.0023738356988137425
6773.792773257263,-0.0023648737669607575
6773.793773029185,-0.002355820036430873
6773.794772801108,-0.0023466726512334497
6773.795772573031,-0.002337429821890166
6773.796772344954,-0.0023280898271384656
6773.797772116876,-0.0023186510155835233
6773.798771888799,-0.0023091118072982556
6773.7997716607215,-0.002299470695370863
6773.800771432645,-0.0022897262473993286
6773.801771204568,-0.0022798771069322456
6773.80277097649,-0.002269921994855307
6773.803770748413,-0.0022598597107227627
6773.804770520335,-0.002249689134033131
6773.805770292258,-0.0022394092254484402
6773.806770064181,-0.0022290190279562845
6773.807769836104,-0.00221851766797397
6773.8087696080265,-0.0022079043563940377
6773.809769379949,-0.0021971783895704286
6773.810769151872,-0.002186339150244585
6773.811768923795,-0.002175386108410757
6773.812768695718,-0.0021643188221198255
6773.81376846764,-0.0021531369382209596
6773.814768239563,-0.0021418401930404537
6773.8157680114855,-0.002130428412997091
6773.816767783409,-0.0021189015151534016
6773.817767555332,-0.0021072595077021457
6773.818767327254,-0.0020955024903873496
6773.819767099177,-0.002083630654859151
6773.820766871099,-0.002071644284961676
6773.821766643023,-0.002059543756953095
6773.822766414945,-0.0020473295396569286
6773.823766186868,-0.0020350021945436275
6773.824765958791,-0.0020225623757413737
6773.825765730713,-0.002010010829974993
6773.826765502636,-0.0019973483964318257
6773.827765274559,-0.001984576006553369
6773.828765046482,-0.0019716946837514786
6773.829764818404,-0.001958705543047946
6773.830764590327,-0.0019456097906363067
6773.8317643622495,-0.001932408723364821
6773.832764134173,-0.0019191037281396962
6773.833763906096,-0.001905696281247784
6773.834763678018,-0.0018921879475981502
6773.835763449941,-0.0018785803798820958
6773.836763221863,-0.0018648753176513917
6773.837762993786,-0.0018510745863146553
6773.838762765709,-0.0018371800960519664
6773.839762537632,-0.0018231938406479719
6773.8407623095545,-0.0018091178962438665
6773.841762081477,-0.0017949544200087627
6773.8427618534,-0.0017807056487310665
6773.843761625323,-0.001766373897330564
6773.844761397246,-0.0017519615572919919
6773.845761169168,-0.0017374710950209627
6773.846760941091,-0.0017229050501231943
6773.8477607130135,-0.0017082660336081054
6773.848760484937,-0.0016935567260179451
6773.84976025686,-0.0016787798754837608
6773.850760028782,-0.0016639382957096382
6773.851759800705,-0.0016490348638867876
6773.852759572627,-0.0016340725185391828
6773.853759344551,-0.0016190542573025755
6773.854759116473,-0.0016039831346388149
6773.855758888396,-0.001588862259487481
6773.856758660319,-0.0015736947928568959
6773.857758432241,-0.0015584839453566244
6773.858758204164,-0.0015432329746735928
6773.859757976087,-0.0015279451829939808
6773.86075774801,-0.0015126239143730684
6773.861757519932,-0.0014972725520552318
6773.862757291855,-0.001481894515746312
6773.8637570637775,-0.0014664932588405969
6773.864756835701,-0.0014510722656046922
6773.865756607624,-0.0014356350483205858
6773.866756379546,-0.0014201851443902337
6773.867756151469,-0.0014047261134040392
6773.868755923391,-0.0013892615341756331
6773.869755695314,-0.0013737950017454136
6773.870755467237,-0.0013583301243553598
6773.87175523916,-0.0013428705203976943
6773.8727550110825,-0.0013274198153400466
6773.873754783005,-0.0013119816386298515
6773.874754554928,-0.0012965596205808067
6773.875754326851,-0.0012811573892443035
6773.876754098774,-0.0012657785672688228
6773.877753870696,-0.0012504267687503648
6773.878753642619,-0.0012351055960770504
6773.8797534145415,-0.0012198186367711004
6773.880753186465,-0.0012045694603314485
6773.881752958388,-0.0011893616150802817
6773.88275273031,-0.0011741986250168035
6773.883752502233,-0.0011590839866814893
6773.884752274155,-0.0011440211660340394
6773.885752046079,-0.0011290135953481572
6773.886751818001,-0.0011140646701261944
6773.887751589924,-0.0010991777460366114
6773.888751361847,-0.0010843561358771063
6773.889751133769,-0.0010696031065661853
6773.890750905692,-0.0010549218761658585
6773.891750677615,-0.0010403156109380645
6773.892750449538,-0.001025787422437346
6773.89375022146,-0.0010113403646422254
6773.894749993383,-0.0009969774311276581
6773.8957497653055,-0.0009827015522808741
6773.896749537229,-0.0009685155925628553
6773.897749309152,-0.0009544223478176315
6773.898749081074,-0.0009404245426315179
6773.899748852997,-0.0009265248277443531
6773.900748624919,-0.0009127257775147438
6773.901748396843,-0.0008990298874412793
6773.902748168765,-0.0008854395717416481
6773.903747940688,-0.0008719571609915605
6773.9047477126105,-0.0008585848998253543
6773.905747484533,-0.0008453249447001286
6773.906747256457,-0.0008321793617252091
6773.907747028379,-0.0008191501245586902
6773.908746800302,-0.0008062391123727354
6773.909746572224,-0.000793448107889246
6773.910746344147,-0.0007807787954874366
6773.9117461160695,-0.0007682327593847699
6773.912745887993,-0.0007558114818926273
6773.913745659916,-0.000743516341748001
6773.914745431838,-0.0007313486125224036
6773.915745203761,-0.0007193094611091042
6773.916744975683,-0.0007073999462897318
6773.917744747607,-0.0006956210173812193
6773.918744519529,-0.0006839735129640211
6773.919744291452,-0.0006724581596925055
6773.920744063375,-0.0006610755711883965
6773.921743835297,-0.0006498262470181397
6773.92274360722,-0.000638710571755066
6773.923743379143,-0.00062772881412724
6773.924743151066,-0.0006168811262519043
6773.925742922988,-0.0006061675429574368
6773.926742694911,-0.0005955879811937319
6773.9277424668335,-0.000585142239531884
6773.928742238757,-0.0005748299977539992
6773.92974201068,-0.0005646508165338888
6773.930741782602,-0.0005546041372093094
6773.931741554525,-0.0005446892816463177
6773.932741326447,-0.0005349054521962051
6773.933741098371,-0.0005252517317453787
6773.934740870293,-0.0005157270838584595
6773.935740642216,-0.0005063303530147681
6773.9367404141385,-0.0004970602649382568
6773.937740186061,-0.0004879154270208078
6773.938739957985,-0.0004788943288386666
6773.939739729907,-0.00046999534276161316
6773.94073950183,-0.0004612167246543136
6773.941739273752,-0.0004525566146691394
6773.942739045675,-0.00044401303812960727
6773.9437388175975,-0.00043558390650346357
6773.944738589521,-0.00042726701846432274
6773.945738361444,-0.00041906006104066874
6773.946738133366,-0.00041096061085093123
6773.947737905289,-0.00040296613542325626
6773.948737677211,-0.0003950739945984999
6773.949737449135,-0.0003872814420148881
6773.950737221057,-0.00037958562667270705
6773.95173699298,-0.0003719835945773256
6773.952736764903,-0.00036447229045880226
6773.953736536825,-0.0003570485595662886
6773.954736308749,-0.0003497091495354132
6773.955736080671,-0.000342450712326799
6773.956735852594,-0.00033526980623383405
6773.957735624516,-0.000328162897957777
6773.958735396439,-0.0003211263647482368
6773.959735168362,-0.000314156496607029
6773.960734940285,-0.0003072494985533833
6773.961734712208,-0.00030040149294846124
6773.96273448413,-0.000293608521877136
6773.963734256053,-0.0002868665495849864
6773.964734027975,-0.0002801714649684519
6773.965733799899,-0.00027351908411608975
6773.966733571821,-0.00026690515289886057
6773.967733343744,-0.0002603253496073531
6773.9687331156665,-0.0002537752876338386
6773.969732887589,-0.00024725051819702264
6773.970732659513,-0.00024074653310733997
6773.971732431435,-0.00023425876757062153
6773.972732203358,-0.00022778260302795396
6773.97373197528,-0.00022131337002955894
6773.974731747203,-0.00021484635114054495
6773.9757315191255,-0.00020837678387642191
6773.976731291049,-0.00020189986366631326
6773.977731062972,-0.00019541074684183382
6773.978730834894,-0.00018890455364961736
6773.979730606817,-0.00018237637128547151
6773.980730378739,-0.00017582125694811613
6773.981730150663,-0.0001692342409104325
6773.982729922585,-0.00016261032960612437
6773.983729694508,-0.0001559445087296681
6773.984729466431,-0.0001492317463474137
6773.985729238353,-0.0001424669960176932
6773.986729010277,-0.00013564519991780623
6773.987728782199,-0.00012876129197577523
6773.988728554122,-0.0001218102010047985
6773.989728326044,-0.00011478685383837126
6773.990728097967,-0.00010768617846409485
6773.99172786989,-0.00010050310715425575
6773.992727641813,-9.323257959132713e-05
6773.993727413736,-8.586954598662641e-05
6773.994727185658,-7.840897019044488e-05
6773.995726957581,-7.08458327920488e-05
6773.996726729503,-6.317513420802772e-05
6773.997726501427,-5.539189775752563e-05
6773.998726273349,-4.7491172722929746e-05
6773.999726045272,-3.946803739461229e-05
6774.0007258171945,-3.1317602098332995e-05
6774.001725589117,-2.3035012203921473e-05
6774.002725361041,-1.461545111387108e-05
6774.003725132963,-6.0541432304865235e-06
6774.004724904886,2.653643099765751e-06
6774.005724676808,1.1512592666050567e-05
6774.006724448731,2.0527340498438786e-05
6774.0077242206535,2.970246899998622e-05
6774.008723992577,3.904250510691274e-05
6774.0097237645,4.855191747814274e-05
6774.010723536422,5.8235113715428845e-05
6774.011723308345,6.80964376152411e-05
6774.012723080267,7.814016645356569e-05
6774.013722852191,8.837050830472162e-05
6774.014722624113,9.879159939526851e-05
6774.015722396036,0.00010940750149404332
6774.016722167959,0.00012022219933932735
6774.017721939881,0.00013123959810410843
6774.018721711805,0.00014246352090036937
6774.019721483727,0.00015389770632330739
6774.02072125565,0.00016554580603637156
6774.021721027572,0.00017741138239799913
6774.022720799495,0.0001894979061309333
6774.023720571418,0.0002018087540350117
6774.024720343341,0.00021434720674431873
6774.025720115264,0.00022711644652959355
6774.026719887186,0.0002401195551467767
6774.027719659109,0.0002533595117325745
6774.028719431031,0.0002668391907479222
6774.029719202955,0.00028056135997024103
6774.030718974877,0.00029452867853540094
6774.0317187468,0.00030874369503031585
6774.0327185187225,0.0003232088456371067
6774.033718290645,0.0003379264523297637
6774.034718062569,0.00035289872112422894
6774.035717834491,0.0003681277403828022
6774.036717606414,0.000383615479173758
6774.037717378336,0.00039936378568704794
6774.038717150259,0.0004153743857069558
6774.039716922182,0.00043164888114257175
6774.040716694105,0.0004481887486169491
6774.041716466028,0.0004649953381158052
6774.04271623795,0.00048206987169661925
6774.043716009873,0.0004994134422589697
6774.044715781796,0.0005170270123769411
6774.045715553719,0.0005349114131944178
6774.046715325641,0.0005530673433840647
6774.047715097564,0.0005714953681707803
6774.048714869487,0.0005901959184203761
6774.049714641409,0.0006091692897942082
6774.050714413333,0.0006284156419704396
6774.051714185255,0.0006479349979325635
6774.052713957178,0.0006677272433257675
6774.0537137291,0.000687792125881666
6774.054713501023,0.0007081292549118792
6774.055713272946,0.0007287381008708953
6774.056713044869,0.000749617994988615
6774.057712816792,0.0007707681289729401
6774.058712588714,0.0007921875547827421
6774.059712360637,0.0008138751844715184
6774.060712132559,0.0008358297901020389
6774.061711904483,0.0008580500037322826
6774.062711676405,0.0008805343174729706
6774.063711448328,0.0009032810836170115
6774.0647112202505,0.0009262885148411655
6774.065710992173,0.0009495546844802278
6774.066710764097,0.0009730775268739814
6774.067710536019,0.0009968548377871287
6774.068710307942,0.0010208842749023295
6774.069710079864,0.0010451633583863985
6774.070709851787,0.001069689471529633
6774.07170962371,0.0010944598614581846
6774.072709395633,0.0011194716399193197
6774.073709167556,0.0011447217841393895
6774.074708939478,0.0011702071377542866
6774.075708711401,0.001195924411812134
6774.076708483324,0.001221870185847911
6774.077708255247,0.001248040909029659
6774.078708027169,0.0012744329013758494
6774.079707799092,0.0013010423550434075
6774.080707571015,0.0013278653356858193
6774.081707342937,0.0013548977838806601
6774.082707114861,0.0013821355166258262
6774.083706886783,0.0014095742289036968
6774.084706658706,0.0014372094953124122
6774.085706430628,0.0014650367717634048
6774.086706202551,0.001493051397244277
6774.087705974474,0.0015212485956460566
6774.088705746397,0.0015496234776538004
6774.08970551832,0.0015781710426994537
6774.090705290242,0.0016068861809758036
6774.091705062165,0.0016357636755102982
6774.092704834087,0.0016647982042974447
6774.093704606011,0.0016939843424884256
6774.094704377933,0.001723316564636502
6774.095704149856,0.001752789246996717
6774.0967039217785,0.0017823966698783562
6774.097703693702,0.0018121330200485792
6774.098703465625,0.0018419923931855986
6774.099703237547,0.0018719687963797479
6774.10070300947,0.0019020561506807652
6774.101702781392,0.0019322482936896057
6774.102702553315,0.001962538982193092
6774.103702325238,0.0019929218948397287
6774.104702097161,0.002023390634855011
6774.105701869084,0.002053938732794566
6774.106701641006,0.00208455964933349
6774.107701412929,0.0021152467780902653
6774.108701184852,0.0021459934484836557
6774.109700956775,0.0021767929286210094
6774.110700728697,0.00220763842821641
6774.11170050062,0.0022385231015371533
6774.112700272543,0.002269440050377042
6774.113700044465,0.0023003823270550273
6774.114699816389,0.0023313429374377716
6774.115699588311,0.0023623148439847422
6774.116699360234,0.002393290968814471
6774.117699132156,0.00242426419679064
6774.118698904079,0.002455227378626651
6774.119698676002,0.002486173334007332
6774.120698447925,0.002517094854726396
6774.121698219848,0.00254798470783824
6774.12269799177,0.0025788356388226482
6774.123697763693,0.002609640374760912
6774.124697535616,0.002640391627521843
6774.125697307539,0.0026710820969561167
6774.126697079461,0.0027017044740973266
6774.127696851384,0.002732251444368092
6774.1286966233065,0.002762715690789502
6774.12969639523,0.0027930898971921412
6774.130696167153,0.002823366751426852
6774.131695939075,0.0028535389485733493
6774.132695710998,0.0028835991941447083
6774.13369548292,0.0029135402072857017
6774.134695254843,0.002943354723962902
6774.135695026766,0.0029730355001444486
6774.136694798689,0.003002575314967353
6774.137694570612,0.0030319669738902303
6774.138694342534,0.0030612033118293616
6774.139694114457,0.0030902771962759996
6774.14069388638,0.0031191815303928585
6774.141693658303,0.0031479092560877647
6774.142693430225,0.0031764533570625016
6774.143693202148,0.003204806861834914
6774.144692974071,0.0032329628467324
6774.145692745993,0.0032609144388549447
6774.146692517917,0.0032886548190058642
6774.147692289839,0.0033161772245884637
6774.148692061762,0.003343474952466816
6774.149691833684,0.0033705413617888917
6774.150691605607,0.0033973698767702943
6774.15169137753,0.003423953989436895
6774.152691149453,0.003450287262324688
6774.153690921376,0.0034763633311352543
6774.154690693298,0.003502175907345277
6774.155690465221,0.0035277187807686065
6774.156690237144,0.0035529858220694154
6774.157690009067,0.003577970985225049
6774.158689780989,0.00360266830993716
6774.159689552912,0.0036270719239897766
6774.1606893248345,0.003651176045552948
6774.161689096758,0.0036749749854306344
6774.162688868681,0.003698463149251527
6774.163688640603,0.0037216350396014936
6774.164688412526,0.0037444852580963903
6774.165688184448,0.0037670085073940114
6774.166687956371,0.0037891995931440283
6774.167687728294,0.0038110534258748016
6774.168687500217,0.0038325650228160564
6774.16968727214,0.0038537295096564756
6774.170687044062,0.003874542122235375
6774.171686815985,0.0038949982081677094
6774.172686587908,0.003915093228401767
6774.173686359831,0.003934822758708977
6774.174686131753,0.00395418249110536
6774.175685903676,0.003973168235204199
6774.176685675599,0.003991775919499544
6774.177685447522,0.0040100015925802306
6774.178685219445,0.004027841424274106
6774.179684991367,0.004045291706722211
6774.18068476329,0.004062348855382758
6774.181684535212,0.0040790094099648075
6774.182684307136,0.004095270035291624
6774.183684079058,0.0041111275220938135
6774.184683850981,0.004126578787732403
6774.185683622904,0.004141620876852094
6774.186683394826,0.004156250961964983
6774.187683166749,0.004170466343965098
6774.188682938672,0.004184264452574131
6774.189682710595,0.004197642846718808
6774.190682482517,0.004210599214840393
6774.19168225444,0.004223131375136887
6774.1926820263625,0.0042352372757385225
6774.193681798286,0.00424691499481725
6774.194681570209,0.004258162740630943
6774.195681342131,0.004268978851503111
6774.196681114054,0.004279361795738937
6774.197680885976,0.004289310171478482
6774.198680657899,0.004298822706487904
6774.199680429822,0.004307898257889585
6774.200680201745,0.004316535811832014
6774.201679973668,0.004324734483100337
6774.20267974559,0.004332493514668465
6774.203679517513,0.004339812277193615
6774.204679289436,0.004346690268454184
6774.205679061359,0.004353127112731811
6774.206678833281,0.004359122560138504
6774.207678605204,0.004364676485889691
6774.208678377127,0.004369788889524058
6774.20967814905,0.004374459894071106
6774.210677920973,0.004378689745167348
6774.211677692895,0.004382478810122114
6774.212677464818,0.004385827576933955
6774.21367723674,0.004388736653258663
6774.214677008664,0.004391206765329961
6774.215676780586,0.004393238756833933
6774.216676552509,0.004394833587738333
6774.217676324432,0.004395992333077928
6774.218676096354,0.004396716181697134
6774.219675868277,0.0043970064349512575
6774.2206756402,0.0043968645053677055
6774.221675412123,0.004396291915268603
6774.222675184045,0.004395290295356275
6774.223674955968,0.004393861383263047
6774.2246747278905,0.0043920070220668
6774.225674499814,0.004389729158773629
6774.226674271737,0.0043870298427689395
6774.227674043659,0.004383911224238199
6774.228673815582,0.004380375552558533
6774.229673587504,0.0043764251746622835
6774.230673359427,0.00437206253337362
6774.23167313135,0.004367290165719269
6774.232672903273,0.004362110701214395
6774.233672675196,0.004356526860124634
6774.234672447118,0.0043505414517052724
6774.235672219041,0.004344157372418542
6774.236671990964,0.004337377604129973
6774.237671762887,0.0043302052122847785
6774.238671534809,0.0043226433440652235
6774.239671306732,0.004314695226529988
6774.240671078655,0.004306364164736531
6774.241670850578,0.004297653539847493
6774.242670622501,0.004288566807222199
6774.243670394423,0.0042791074944943585
6774.244670166346,0.004269279199637058
6774.245669938268,0.004259085589016161
6774.246669710192,0.004248530395433234
6774.247669482114,0.004237617416159104
6774.248669254037,0.004226350510959112
6774.24966902596,0.004214733600111134
6774.250668797882,0.00420277066241736
6774.251668569805,0.004190465733210803
6774.252668341728,0.0041778229023574885
6774.253668113651,0.004164846312255229
6774.254667885573,0.004151540155829861
6774.255667657496,0.004137908674529828
6774.2566674294185,0.004123956156319978
6774.257667201342,0.004109686933675418
6774.258666973265,0.004095105381576284
6774.259666745187,0.004080215915504276
6774.26066651711,0.004065022989441771
6774.261666289032,0.004049531093874354
6774.262666060956,0.004033744753797493
6774.263665832878,0.004017668526728151
6774.264665604801,0.004001307000722037
6774.265665376724,0.003984664792397193
6774.266665148646,0.003967746544964607
6774.26766492057,0.003950556926266513
6774.268664692492,0.003933100626823019
6774.269664464415,0.003915382357887678
6774.270664236337,0.00389740684951263
6774.27166400826,0.0038791788486238956
6774.272663780183,0.0038607031171074345
6774.273663552106,0.0038419844299065493
6774.274663324029,0.003823027573131221
6774.275663095951,0.0038038373421799584
6774.276662867874,0.003784418539874743
6774.277662639796,0.003764775974609675
6774.27866241172,0.0037449144585139263
6774.279662183642,0.003724838805629647
6774.280661955565,0.0037045538301055028
6774.281661727488,0.0036840643444065384
6774.28266149941,0.00366337515754107
6774.283661271333,0.00364249107330531
6774.284661043256,0.0036214168885464484
6774.285660815179,0.003600157391444932
6774.286660587101,0.0035787173598167015
6774.287660359024,0.0035571015594361584
6774.2886601309465,0.0035353147423806417
6774.28965990287,0.0035133616453971546
6774.290659674793,0.0034912469882920584
6774.291659446715,0.0034689754723443676
6774.292659218638,0.003446551778743252
6774.29365899056,0.00342398056705029
6774.294658762484,0.0034012664736869707
6774.295658534406,0.003378414110447912
6774.296658306329,0.0033554280630401956
6774.297658078252,0.003332312889649189
6774.298657850174,0.0033090731195311606
6774.299657622098,0.0032857132516329454
6774.30065739402,0.003262237753238894
6774.301657165943,0.003238651058645314
6774.302656937865,0.003214957567862587
6774.303656709788,0.0031911616453451823
6774.304656481711,0.0031672676187497473
6774.305656253634,0.00314327977772147
6774.306656025557,0.00311920237270889
6774.307655797479,0.0030950396138072988
6774.308655569402,0.003070795669630827
6774.309655341324,0.0030464746662132655
6774.310655113248,0.0030220806859375983
6774.31165488517,0.0029976177664941643
6774.312654657093,0.0029730898998672956
6774.313654429016,0.0029485010313502332
6774.314654200938,0.002923855058588082
6774.315653972862,0.0028991558306485595
6774.316653744784,0.0028744071471202915
6774.317653516707,0.0028496127572384413
6774.318653288629,0.0028247763590375187
6774.319653060552,0.0027999015985312576
6774.320652832475,0.0027749920689195246
6774.321652604398,0.002750051309822258
6774.322652376321,0.002725082806540499
6774.323652148243,0.002700089989344584
6774.324651920166,0.002675076232789596
6774.325651692088,0.002650044855058183
6774.326651464012,0.0026249991173308237
6774.327651235934,0.002599942223183631
6774.328651007857,0.002574877318013751
6774.32965077978,0.0025498074884924126
6774.330650551702,0.0025247357620456607
6774.331650323626,0.002499665106362783
6774.332650095548,0.0024745984289324214
6774.333649867471,0.002449538576606353
6774.334649639393,0.002424488335190912
6774.335649411316,0.00239945042906601
6774.336649183239,0.0023744275208317112
6774.337648955162,0.002349422210982295
6774.338648727085,0.0023244370376077415
6774.339648499007,0.002299474476122563
6774.34064827093,0.002274536939021896
6774.341648042852,0.002249626775664769
6774.342647814776,0.002224746272084447
6774.343647586698,0.0021998976508257545
6774.344647358621,0.0021750830708092894
6774.345647130544,0.002150304627222431
6774.346646902466,0.0021255643514370586
6774.34764667439,0.0021008642109539
6774.348646446312,0.0020762061093734393
6774.349646218235,0.0020515918863933205
6774.350645990157,0.002027023317832186
6774.35164576208,0.002002502115679871
6774.352645534003,0.0019780299281738543
6774.353645305926,0.0019536083399018475
6774.3546450778485,0.0019292388719303658
6774.355644849771,0.0019049229819591135
6774.356644621694,0.0018806620645009859
6774.357644393616,0.001856457451087486
6774.35864416554,0.001832310410499334
6774.359643937462,0.0018082221490220275
6774.360643709385,0.0017841938107261033
6774.361643481308,0.001760226477771798
6774.36264325323,0.0017363211707377806
6774.363643025154,0.0017124788489735776
6774.364642797076,0.0016887004109752627
6774.365642568999,0.0016649866947839387
6774.366642340921,0.0016413384784064906
6774.367642112844,0.0016177564802580676
6774.368641884767,0.0015942413596257273
6774.36964165669,0.0015707937171526767
6774.3706414286125,0.00154741409534254
6774.371641200535,0.0015241029790830955
6774.372640972458,0.0015008607961889235
6774.37364074438,0.0014776879179624334
6774.374640516304,0.0014545846597727396
6774.375640288226,0.001431551281651876
6774.376640060149,0.001408587988907854
6774.377639832072,0.001385694932754077
6774.378639603994,0.0013628722109546509
6774.379639375918,0.001340119868485153
6774.38063914784,0.001317437898208448
6774.381638919763,0.0012948262415651878
6774.382638691685,0.0012722847892786575
6774.383638463608,0.0012498133820736776
6774.384638235531,0.001227411811409297
6774.385638007454,0.001205079820225041
6774.3866377793765,0.0011828171037004927
6774.387637551299,0.0011606233100280006
6774.388637323222,0.0011384980411983255
6774.389637095144,0.0011164408537990438
6774.390636867068,0.0010944512598255376
6774.39163663899,0.0010725287275043952
6774.392636410913,0.0010506726821290465
6774.393636182836,0.0010288825069074397
6774.394635954758,0.00100715754382156
6774.395635726682,0.000985497094498589
6774.396635498604,0.0009639004210935041
6774.397635270527,0.0009423667471829233
6774.398635042449,0.0009208952586700015
6774.399634814372,0.0008994851047001822
6774.400634586295,0.0008781353985875988
6774.401634358218,0.0008568452187519064
6774.4026341301405,0.000835613609665316
6774.403633902063,0.0008144395828095904
6774.404633673986,0.0007933221176427604
6774.405633445909,0.0007722601625753092
6774.406633217832,0.0007512526359555777
6774.407632989754,0.000730298427064128
6774.408632761677,0.0007093963971167872
6774.4096325336,0.0006885453802760749
6774.410632305522,0.0006677441846706971
6774.411632077446,0.0006469915934227735
6774.412631849368,0.0006262863656824545
6774.413631621291,0.0006056272376695874
6774.414631393213,0.0005850129237220912
6774.415631165136,0.0005644421173507142
6774.416630937059,0.0005439134922998684
6774.417630708982,0.000523425703614262
6774.4186304809045,0.000502977388711085
6774.419630252827,0.00048256716845754597
6774.42063002475,0.00046219364825359876
6774.421629796672,0.0004418554191197428
6774.422629568596,0.0004215510587898155
6774.423629340518,0.00040127913280872115
6774.424629112441,0.0003810381956350545
6774.425628884364,0.00036082679174858024
6774.426628656286,0.000340643456762527
6774.42762842821,0.0003204867185406423
6774.428628200132,0.00030035509831894465
6774.429627972055,0.00028024711183209655
6774.430627743977,0.0002601612704443127
6774.4316275159,0.0002400960822847191
6774.432627287823,0.00022005005338708572
6774.433627059746,0.00020002168883387396
6774.4346268316685,0.00018000949390456112
6774.435626603591,0.00016001197522822055
6774.436626375514,0.00014002764194034786
6774.437626147437,0.00012005500684392473
6774.43862591936,0.00010009258757470409
6774.439625691282,8.01389077706834e-05
6774.440625463205,6.019249824571292e-05
6774.441625235128,4.025189816716918e-05
6774.44262500705,2.0315656237610305e-05
6774.443624778974,3.823318803210251e-07
6774.444624550896,-1.9549503571350707e-05
6774.445624322819,-3.948126568096396e-05
6774.446624094741,-5.941435571236012e-05
6774.447623866664,-7.935015942954506e-05
6774.448623638587,-9.929004589319303e-05
6774.44962341051,-0.00011923536625390895
6774.4506231824325,-0.00013918745254241493
6774.451622954355,-0.00015914761645685965
6774.452622726278,-0.0001791171481474852
6774.4536224982,-0.0001990973149989232
6774.454622270124,-0.00021908936041042866
6774.455622042046,-0.00023909450257439112
6774.456621813969,-0.0002591139332534881
6774.457621585892,-0.00027914881655686407
6774.458621357815,-0.00029920028771573156
6774.459621129738,-0.00031926945185879903
6774.46062090166,-0.00033935738278792585
6774.461620673583,-0.0003594651217543964
6774.462620445505,-0.00037959367623618517
6774.463620217428,-0.0003997440187165691
6774.464619989351,-0.00041991708546443605
6774.465619761274,-0.00044011377531663935
6774.4666195331965,-0.0004603349484627626
6774.467619305119,-0.00048058142523267416
6774.468619077042,-0.00050085398488727
6774.469618848965,-0.0005211533644128295
6774.470618620888,-0.0005414802573194339
6774.47161839281,-0.0005618353124439375
6774.472618164733,-0.0005822191327580134
6774.473617936656,-0.0006026322741818494
6774.474617708578,-0.0006230752444041208
6774.475617480502,-0.0006435485017089336
6774.476617252424,-0.0006640524538105025
6774.477617024347,-0.0006845874566964059
6774.478616796269,-0.0007051538134803341
6774.479616568192,-0.0007257517732653158
6774.480616340115,-0.0007463815300184825
6774.481616112038,-0.0007670432214585026
6774.4826158839605,-0.0007877369279568878
6774.483615655883,-0.0008084626714544497
6774.484615427806,-0.0008292204143942469
6774.485615199729,-0.0008500100586724245
6774.486614971652,-0.0008708314446084023
6774.487614743574,-0.000891684349935929
6774.488614515497,-0.0009125684888165843
6774.48961428742,-0.000933483510877396
6774.490614059343,-0.0009544290002743353
6774.491613831266,-0.0009754044747835586
6774.492613603188,-0.0009964093849223735
6774.493613375111,-0.0010174431131020098
6774.494613147033,-0.0010385049728143705
6774.495612918956,-0.0010595942078550147
6774.496612690879,-0.0010807099915846779
6774.497612462802,-0.001101851426231666
6774.4986122347245,-0.0011230175422374646
6774.499612006647,-0.001144207297647888
6774.50061177857,-0.0011654195775520548
6774.501611550493,-0.0011866531935714319
6774.502611322416,-0.0012079068834011425
6774.503611094338,-0.0012291793104056805
6774.504610866261,-0.0012504690632711263
6774.505610638184,-0.0012717746557159206
6774.506610410106,-0.0012930945262622008
6774.50761018203,-0.0013144270380696598
6774.508609953952,-0.001335770478833832
6774.509609725875,-0.0013571230607506426
6774.510609497797,-0.0013784829205489863
6774.51160926972,-0.0013998481195930212
6774.512609041643,-0.0014212166440557615
6774.513608813566,-0.0014425864051654713
6774.5146085854885,-0.001463955239526249
6774.515608357411,-0.0014853209095140913
6774.516608129334,-0.0015066811037496085
6774.517607901257,-0.0015280334376484462
6774.51860767318,-0.001549375454050335
6774.519607445102,-0.0015707046239275733
6774.520607217025,-0.001592018347173592
6774.521606988948,-0.0016133139534721338
6774.522606760871,-0.0016345887032474377
6774.523606532794,-0.001655839788695693
6774.524606304716,-0.001677064334897912
6774.525606076639,-0.0016982594010142543
6774.526605848561,-0.001719421981559728
6774.527605620484,-0.0017405490077610814
6774.528605392407,-0.001761637348994606
6774.52960516433,-0.0017826838143044728
6774.5306049362525,-0.0018036851540011375
6774.531604708175,-0.0018246380613392672
6774.532604480098,-0.0018455391742745481
6774.533604252021,-0.0018663850772986442
6774.534604023944,-0.001887172303351482
6774.535603795866,-0.001907897335809973
6774.536603567789,-0.00192855661055221
6774.537603339712,-0.001949146518096115
6774.538603111635,-0.001969663405811465
6774.539602883558,-0.0019901035802041855
6774.54060265548,-0.0020104633092717533
6774.541602427403,-0.0020307388249285402
6774.542602199325,-0.0020509263254998786
6774.543601971249,-0.0020710219782836105
6774.544601743171,-0.0020910219221778287
6774.545601515094,-0.0021109222703734605
6774.5466012870165,-0.002130719113110272
6774.547601058939,-0.002150408520494773
6774.548600830862,-0.002169986545378423
6774.549600602785,-0.0021894492262944363
6774.550600374708,-0.00220879259045139
6774.55160014663,-0.0022280126567817467
6774.552599918553,-0.0022471054390432945
6774.553599690476,-0.002266066948971389
6774.554599462399,-0.0022848931994798
6774.555599234322,-0.002303580207907819
6774.556599006244,-0.002322123999311193
6774.557598778167,-0.0023405206097943175
6774.558598550089,-0.0023587660898810136
6774.559598322012,-0.0023768565079210816
6774.560598093935,-0.0023947879535297163
6774.561597865858,-0.0024125565410567595
6774.5625976377805,-0.0024301584130826366
6774.563597409703,-0.0024475897439377448
6774.564597181626,-0.002464846743241939
6774.565596953549,-0.002481925659460678
6774.566596725472,-0.002498822783474302
6774.567596497394,-0.0025155344521568387
6774.568596269317,-0.0025320570519606774
6774.56959604124,-0.0025483870225033803
6774.570595813163,-0.0025645208601528693
6774.571595585086,-0.00258045512160717
6774.572595357008,-0.0025961864274648408
6774.573595128931,-0.0026117114657821785
6774.574594900853,-0.0026270269956132127
6774.575594672777,-0.002642129850528478
6774.576594444699,-0.002657016942108474
6774.577594216622,-0.0026716852634076998
6774.5785939885445,-0.002686131892385097
6774.579593760467,-0.0027003539952967235
6774.58059353239,-0.002714348830046447
6774.581593304313,-0.002728113749490444
6774.582593076236,-0.002741646204691311
6774.583592848158,-0.002754943748117572
6774.584592620081,-0.0027680040367843986
6774.585592392004,-0.002780824835331344
6774.586592163927,-0.0027934040190328697
6774.58759193585,-0.0028057395767374094
6774.588591707772,-0.0028178296137306483
6774.589591479695,-0.0028296723545186272
6774.590591251617,-0.002841266145526206
6774.59159102354,-0.0028526094577063644
6774.592590795463,-0.002863700889055741
6774.593590567386,-0.002874539167031773
6774.5945903393085,-0.0028851231508667335
6774.595590111231,-0.0028954518337739542
6774.596589883154,-0.002905524345041469
6774.597589655077,-0.0029153399520083024
6774.598589427,-0.0029248980619186052
6774.599589198922,-0.0029341982236488076
6774.600588970845,-0.002943240129302936
6774.601588742768,-0.0029520236156712325
6774.602588514691,-0.0029605486655471763
6774.603588286614,-0.0029688154088980145
6774.604588058536,-0.0029768241238838644
6774.605587830459,-0.0029845752377204416
6774.606587602381,-0.0029920693273804404
6774.607587374305,-0.002999307120128556
6774.608587146227,-0.003006289493885126
6774.60958691815,-0.003013017477413361
6774.6105866900725,-0.0030194922503251533
6774.611586461995,-0.003025715142900517
6774.612586233918,-0.0030316876357157838
6774.613586005841,-0.0030374113590758527
6774.614585777764,-0.0030428880922459497
6774.615585549686,-0.0030481197624786234
6774.616585321609,-0.0030531084438319596
6774.617585093532,-0.0030578563557753383
6774.618584865455,-0.0030623658615793834
6774.619584637378,-0.0030666394664871665
6774.6205844093,-0.0030706798156640786
6774.621584181223,-0.003074489691924208
6774.622583953145,-0.003078072013231439
6774.623583725069,-0.0030814298299738684
6774.624583496991,-0.0030845663220105354
6774.625583268914,-0.0030874847954898456
6774.6265830408365,-0.0030901886794395066
6774.627582812759,-0.0030926815221282377
6774.628582584683,-0.0030949669872000346
6774.629582356605,-0.0030970488495822997
6774.630582128528,-0.003098930991169706
6774.63158190045,-0.003100617396286248
6774.632581672373,-0.0031021121469285394
6774.633581444296,-0.003103419417794004
6774.634581216219,-0.0031045434710982147
6774.635580988142,-0.0031054886511862377
6774.636580760064,-0.003106259378943463
6774.637580531987,-0.0031068601460120544
6774.638580303909,-0.003107295508819827
6774.639580075833,-0.0031075700824290966
6774.640579847755,-0.0031076885342138025
6774.641579619678,-0.0031076555773739854
6774.6425793916005,-0.0031074759642975005
6774.643579163523,-0.0031071544797796158
6774.644578935446,-0.003106695934111974
6774.645578707369,-0.003106105156053216
6774.646578479292,-0.0031053869856944335
6774.647578251214,-0.0031045462672335353
6774.648578023137,-0.0031035878416735196
6774.64957779506,-0.003102516539460611
6774.650577566983,-0.0031013371730791443
6774.651577338906,-0.0031000545296209327
6774.652577110828,-0.0030986733633476047
6774.653576882751,-0.003097198388264973
6774.654576654673,-0.0030956342707289014
6774.655576426597,-0.0030939856221023263
6774.656576198519,-0.003092256991483117
6774.657575970442,-0.0030904528585223327
6774.6585757423645,-0.0030885776263521554
6774.659575514287,-0.0030866356146423547
6774.660575286211,-0.0030846310528036243
6774.661575058133,-0.003082568073355421
6774.662574830056,-0.0030804507054751715
6774.663574601978,-0.0030782828687448316
6774.664574373901,-0.0030760683671097852
6774.665574145824,-0.0030738108830640205
6774.666573917747,-0.003071513972074372
6774.66757368967,-0.003069181057255427
6774.668573461592,-0.003066815424305473
6774.669573233515,-0.0030644202167126313
6774.670573005437,-0.0030619984312391145
6774.671572777361,-0.0030595529136903284
6774.672572549283,-0.003057086354974357
6774.673572321206,-0.0030546012874561857
6774.6745720931285,-0.0030521000816098507
6774.675571865051,-0.003049584942970555
6774.676571636975,-0.00304705790938767
6774.677571408897,-0.003044520848578422
6774.67857118082,-0.0030419754559810365
6774.679570952742,-0.0030394232529050783
6774.680570724665,-0.0030368655849758435
6774.681570496588,-0.003034303620868804
6774.682570268511,-0.003031738351329375
6774.683570040434,-0.0030291705884726073
6774.684569812356,-0.003026600965356849
6774.685569584279,-0.0030240299358249146
6774.686569356201,-0.0030214577746059236
6774.687569128125,-0.0030188845776705922
6774.688568900047,-0.0030163102628324944
6774.68956867197,-0.0030137345705875973
6774.6905684438925,-0.0030111570651841996
6774.691568215815,-0.0030085771359153204
6774.692567987739,-0.0030059939986255444
6774.693567759661,-0.003003406697424351
6774.694567531584,-0.0030008141065980083
6774.695567303506,-0.0029982149327122086
6774.696567075429,-0.0029956077168977174
6774.697566847352,-0.0029929908373114446
6774.698566619275,-0.002990362511765472
6774.699566391198,-0.002987720800516712
6774.70056616312,-0.0029850636092100353
6774.701565935043,-0.002982388691967826
6774.702565706965,-0.002979693654619096
6774.703565478889,-0.0029769759580614056
6774.704565250811,-0.002974232921748977
6774.705565022734,-0.0029714617273005326
6774.7065647946565,-0.0029686594222204724
6774.707564566579,-0.002965822923727107
6774.708564338503,-0.0029629490226817452
6774.709564110425,-0.0029600343876125
6774.710563882348,-0.002957075568826731
6774.71156365427,-0.0029540690026061346
6774.712563426193,-0.0029510110154785754
6774.713563198116,-0.0029478978285608437
6774.714562970039,-0.0029447255619666586
6774.715562741962,-0.00294149023927434
6774.716562513884,-0.0029381877920487322
6774.717562285807,-0.002934814064412073
6774.718562057729,-0.002931364817658669
6774.719561829653,-0.00292783573490836
6774.720561601575,-0.0029242224257938986
6774.721561373498,-0.002920520431177493
6774.7225611454205,-0.002916725227891892
6774.723560917343,-0.002912832233501535
6774.724560689267,-0.0029088368110793987
6774.725560461189,-0.0029047342739953333
6774.726560233112,-0.002900519890711795
6774.727560005034,-0.002896188889583007
6774.728559776957,-0.002891736463653718
6774.72955954888,-0.002887157775453816
6774.730559320803,-0.002882447961785179
6774.731559092726,-0.0028776021384972336
6774.732558864648,-0.0028726154052477844
6774.733558636571,-0.002867482850245761
6774.734558408493,-0.0028621995549726045
6774.735558180417,-0.0028567605988790734
6774.736557952339,-0.002851161064054324
6774.737557724262,-0.0028453960398641923
6774.7385574961845,-0.002839460627555664
6774.739557268107,-0.0028333499448246024
6774.740557040031,-0.0028270591303438774
6774.741556811953,-0.0028205833482491285
6774.742556583876,-0.0028139177925794903
6774.743556355798,-0.002807057691670703
6774.744556127721,-0.0027999983124981378
6774.745555899644,-0.0027927349649673693
6774.746555671567,-0.0027852630061500155
6774.74755544349,-0.002777577844462674
6774.748555215412,-0.002769674943786868
6774.749554987335,-0.0027615498275279857
6774.750554759257,-0.0027531980826112795
6774.751554531181,-0.002744615363413044
6774.752554303103,-0.0027357973956252013
6774.753554075026,-0.0027267399800515488
6774.7545538469485,-0.0027174389963340166
6774.755553618871,-0.0027078904066073287
6774.756553390795,-0.002698090259080533
6774.757553162717,-0.0026880346915439265
6774.75855293464,-0.0026777199347999686
6774.759552706562,-0.0026671423160168047
6774.760552478485,-0.002656298262003093
6774.761552250408,-0.002645184302402858
6774.762552022331,-0.0026337970728091283
6774.7635517942535,-0.0026221333177951886
6774.764551566176,-0.0026101898938623368
6774.765551338099,-0.00259796377230311
6774.766551110022,-0.0025854520419790264
6774.767550881945,-0.002572651912011966
6774.768550653867,-0.0025595607143884115
6774.76955042579,-0.0025461759064758505
6774.7705501977125,-0.0025324950734507247
6774.771549969635,-0.002518515930637395
6774.772549741559,-0.002504236325757655
6774.773549513481,-0.0024896542410904007
6774.774549285404,-0.0024747677955411084
6774.775549057326,-0.0024595752466208447
6774.776548829249,-0.0024440749923345627
6774.777548601172,-0.0024282655729785003
6774.778548373095,-0.0024121456728465355
6774.7795481450175,-0.002395714121845393
6774.78054791694,-0.0023789698970186537
6774.781547688863,-0.002361912123979553
6774.782547460785,-0.0023445400782525923
6774.783547232709,-0.002326853186524016
6774.784547004631,-0.0023088510278012307
6774.785546776554,-0.002290533334481259
6774.7865465484765,-0.0022718999933283345
6774.787546320399,-0.002252951046360749
6774.788546092323,-0.002233686691647083
6774.789545864245,-0.002214107284011943
6774.790545636168,-0.0021942133356513452
6774.79154540809,-0.0021740055166578984
6774.792545180013,-0.002153484655455959
6774.793544951936,-0.002132651739146922
6774.794544723859,-0.00211150791376483
6774.7955444957815,-0.002090054484442473
6774.796544267704,-0.0020682929154881412
6774.797544039627,-0.002046224830373188
6774.79854381155,-0.0020238520116305564
6774.799543583473,-0.0020011764006644234
6774.800543355395,-0.001978200097471133
6774.801543127318,-0.0019549253602716065
6774.8025428992405,-0.0019313546050554453
6774.803542671163,-0.0019074904050369712
6774.804542443087,-0.0018833354900234774
6774.805542215009,-0.0018588927456960002
6774.806541986932,-0.0018341652128029441
6774.807541758854,-0.0018091560862669325
6774.808541530777,-0.0017838687142052625
6774.8095413027,-0.0017583065968643527
6774.810541074623,-0.0017324733854685607
6774.8115408465455,-0.0017063728809837313
6774.812540618468,-0.0016800090327958256
6774.813540390391,-0.001653385937304973
6774.814540162313,-0.0016265078364352972
6774.815539934237,-0.0015993791160608757
6774.816539706159,-0.001572004304348225
6774.817539478082,-0.0015443880700157467
6774.8185392500045,-0.0015165352205106276
6774.819539021928,-0.0014884507001037429
6774.820538793851,-0.001460139587903183
6774.821538565773,-0.0014316070957870795
6774.822538337696,-0.001402858566256484
6774.823538109618,-0.0013738994702091102
6774.824537881541,-0.0013447354046348297
6774.825537653464,-0.0013153720902338848
6774.826537425387,-0.0012858153689588498
6774.8275371973095,-0.001256071201481439
6774.828536969232,-0.0012261456645853192
6774.829536741155,-0.0011960449484861354
6774.830536513078,-0.0011657753540800047
6774.831536285001,-0.001135343290121769
6774.832536056923,-0.0011047552703343372
6774.833535828846,-0.0010740179104504514
6774.8345356007685,-0.0010431379251882448
6774.835535372691,-0.001012122125161969
6774.836535144615,-0.0009809774137292985
6774.837534916537,-0.0009497107837766381
6774.83853468846,-0.0009183293144438735
6774.839534460382,-0.0008868401677900182
6774.840534232305,-0.0008552505854012207
6774.841534004228,-0.0008235678849426148
6774.842533776151,-0.0007917994566555279
6774.8435335480735,-0.0007599527598015951
6774.844533319996,-0.0007280353190553762
6774.845533091919,-0.0006960547208471113
6774.846532863842,-0.0006640186096572858
6774.847532635765,-0.0006319346842647167
6774.848532407687,-0.000599810693949905
6774.84953217961,-0.0005676544346554372
6774.8505319515325,-0.0005354737451052634
6774.851531723456,-0.0005032765028847146
6774.852531495379,-0.000471070620483165
6774.853531267301,-0.00043886404130128235
6774.854531039224,-0.0004066647356248522
6774.855530811146,-0.0003744806965671974
6774.856530583069,-0.00034231993598225573
6774.857530354992,-0.00031019048035041223
6774.858530126915,-0.00027810036663921273
6774.8595298988375,-0.00024605763814111763
6774.86052967076,-0.00021407034029048065
6774.861529442683,-0.0001821465164619641
6774.862529214606,-0.0001502942037526238
6774.863528986529,-0.00011852142874992132
6774.864528758451,-8.683620328795152e-05
6774.865528530374,-5.524652019421604e-05
6774.8665283022965,-2.3760349029328493e-05
6774.867528074219,7.614368177894701e-06
6774.868527846143,3.886972119742905e-05
6774.869527618065,6.999783586451664e-05
6774.870527389988,0.00010099087834294149
6774.87152716191,0.00013184105938235984
6774.872526933833,0.00016254063856688256
6774.873526705756,0.00019308192855205754
6774.874526477679,0.000223457299287355
6774.8755262496015,0.00025365918222121445
6774.876526021524,0.00028368007448566977
6774.877525793447,0.0003135125430575288
6774.87852556537,0.00034314922889304563
6774.879525337293,0.00037258285103299195
6774.880525109215,0.0004018062106750034
6774.881524881138,0.0004308121952100533
6774.8825246530605,0.00045959378221988994
6774.883524424984,0.00048814404343226596
6774.884524196907,0.0005164561486307903
6774.885523968829,0.0005445233695162454
6774.886523740752,0.000572339083516231
6774.887523512674,0.0005998967775400223
6774.888523284597,0.0006271900516755612
6774.88952305652,0.0006542126228255292
6774.890522828443,0.0006809583282794873
6774.8915226003655,0.0007074211292191043
6774.892522372288,0.0007335951141535247
6774.893522144211,0.0007594745022819668
6774.894521916134,0.0007850536467806664
6774.895521688057,0.00081032703801132
6774.896521459979,0.0008352893066482187
6774.897521231902,0.0008599352267213062
6774.8985210038245,0.0008842597185724424
6774.899520775748,0.0009082578517222096
6774.900520547671,0.0009319248476446558
6774.901520319593,0.0009552560824474365
6774.902520091516,0.000978247089454888
6774.903519863438,0.0010008935616916514
6774.904519635362,0.0010231913542645414
6774.905519407284,0.001045136486640439
6774.906519179207,0.0010667251448180793
6774.9075189511295,0.0010879536833916913
6774.908518723052,0.001108818627504531
6774.909518494975,0.0011293166746904422
6774.910518266898,0.0011494446966016608
6774.911518038821,0.0011691997406211845
6774.912517810743,0.0011885790313581229
6774.913517582666,0.0012075799720245748
6774.9145173545885,0.0012262001456926996
6774.915517126512,0.0012444373164307836
6774.916516898435,0.0012622894303172343
6774.917516670357,0.0012797546163315723
6774.91851644228,0.001296831187121624
6774.919516214202,0.0013135176396462556
6774.920515986125,0.0013298126556931258
6774.921515758048,0.0013457151022710644
6774.922515529971,0.0013612240318768172
6774.9235153018935,0.0013763386826360217
6774.924515073816,0.0013910584783184247
6774.925514845739,0.001405383028227485
6774.926514617662,0.0014193121269646353
6774.927514389585,0.0014328457540686201
6774.928514161507,0.0014459840735304497
6774.92951393343,0.001458727433184632
6774.9305137053525,0.0014710763639774803
6774.931513477276,0.0014830315791134103
6774.932513249199,0.001494593973080274
6774.933513021121,0.0015057646205549019
6774.934512793044,0.0015165447751901546
6774.935512564966,0.0015269358682848987
6774.93651233689,0.0015369395073384373
6774.937512108812,0.0015465574744910242
6774.938511880735,0.001555791724852186
6774.9395116526575,0.0015646443847186617
6774.94051142458,0.0015731177496838597
6774.941511196503,0.001581214282640809
6774.942510968426,0.0015889366116806562
6774.943510740349,0.001596287527888841
6774.944510512271,0.001603269983041158
6774.945510284194,0.0016098870872019964
6774.9465100561165,0.0016161421062271272
6774.94750982804,0.0016220384591734943
6774.948509599963,0.0016275797156185424
6774.949509371885,0.0016327695928917208
6774.950509143808,0.0016376119532208893
6774.95150891573,0.0016421108007964658
6774.952508687653,0.0016462702787562527
6774.953508459576,0.0016500946660939913
6774.954508231499,0.0016535883744947823
6774.9555080034215,0.0016567559451005922
6774.956507775344,0.001659602045209148
6774.957507547267,0.0016621314649095673
6774.95850731919,0.0016643491136580887
6774.959507091113,0.0016662600167972627
6774.960506863035,0.0016678693120219174
6774.961506634958,0.0016691822457951698
6774.9625064068805,0.0016702041697177017
6774.963506178804,0.0016709405368534485
6774.964505950727,0.0016713968980147911
6774.965505722649,0.0016715788980102726
6774.966505494572,0.0016714922718577988
6774.967505266494,0.0016711428409662099
6774.968505038418,0.0016705365092880482
6774.96950481034,0.0016696792594462742
6774.970504582263,0.001668577148837621
6774.9715043541855,0.0016672363057151935
6774.972504126108,0.0016656629252528679
6774.973503898031,0.001663863265593965
6774.974503669954,0.0016618436438866244
6774.975503441877,0.0016596104323082588
6774.976503213799,0.001657170054081416
6774.977502985722,0.0016545289794833503
6774.9785027576445,0.0016516937218515628
6774.979502529568,0.0016486708335875426
6774.980502301491,0.001645466902160928
6774.981502073413,0.0016420885461162897
6774.982501845336,0.0016385424110847496
6774.983501617258,0.0016348351658026586
6774.984501389182,0.0016309734981395688
6774.985501161104,0.0016269641111377633
6774.986500933027,0.0016228137190656086
6774.9875007049495,0.0016185290434869988
6774.988500476872,0.0016141168093491652
6774.989500248796,0.0016095837410910858
6774.990500020718,0.0016049365587746994
6774.991499792641,0.0016001819742410674
6774.992499564563,0.0015953266872935621
6774.993499336486,0.001590377381910099
6774.9944991084085,0.0015853407224863628
6774.995498880332,0.0015802233501119505
6774.996498652255,0.0015750318788813112
6774.997498424177,0.0015697728922413495
6774.9984981961,0.0015644529393775439
6774.999497968022,0.001559078531640421
6775.000497739946,0.0015536561390142216
6775.001497511868,0.0015481921866295793
6775.002497283791,0.0015426930513220264
6775.0034970557135,0.001537165058238118
6775.004496827636,0.0015316144774909287
6775.005496599559,0.001526047520866637
6775.006496371482,0.001520470338583869
6775.007496143405,0.0015148890161074276
6775.008495915327,0.0015093095710179852
6775.00949568725,0.0015037379499392761
6775.0104954591725,0.001498180025524275
6775.011495231096,0.0014926415935017788
6775.012495003019,0.0014871283697847565
6775.013494774941,0.00148164598764176
6775.014494546864,0.0014761999949326238
6775.015494318786,0.0014707958514096305
6775.01649409071,0.0014654389260852633
6775.017493862632,0.001460134494667624
6775.018493634555,0.0014548877370645693
6775.0194934064775,0.0014497037349575769
6775.0204931784,0.0014445874694463219
6775.021492950324,0.0014395438187649121
6775.022492722246,0.0014345775560706902
6775.023492494169,0.001429693347306467
6775.024492266091,0.0014248957491370135
6775.025492038014,0.0014201892069605896
6775.0264918099365,0.0014155780529962433
6775.02749158186,0.0014110665044475743
6775.028491353783,0.0014066586617435884
6775.029491125705,0.0014023585068572305
6775.030490897628,0.001398169901702117
6775.03149066955,0.0013940965866079211
6775.032490441474,0.0013901421788748008
6775.033490213396,0.0013863101714071849
6775.034489985319,0.0013826039314271637
6775.0354897572415,0.0013790266992676488
6775.036489529164,0.0013755815872453921
6775.037489301088,0.0013722715786138925
6775.03848907301,0.0013690995265961457
6775.039488844933,0.0013660681534971484
6775.040488616855,0.0013631800498960075
6775.041488388778,0.0013604376739174773
6775.042488160701,0.0013578433505827062
6775.043487932624,0.001355399271238964
6775.044487704547,0.0013531074930680932
6775.045487476469,0.0013509699386733964
6775.046487248392,0.001348988395744648
6775.047487020314,0.0013471645168008622
6775.048486792238,0.0013454998190104257
6775.04948656416,0.0013439956840881591
6775.050486336083,0.0013426533582688608
6775.0514861080055,0.0013414739523568652
6775.052485879928,0.0013404584418511352
6775.053485651852,0.0013396076671453965
6775.054485423774,0.001338922333802804
6775.055485195697,0.0013384030129046194
6775.056484967619,0.0013380501414723821
6775.057484739542,0.0013378640229630447
6775.0584845114645,0.0013378448278365364
6775.059484283388,0.001337992594195238
6775.060484055311,0.001338307228494839
6775.061483827233,0.0013387885063260595
6775.062483599156,0.0013394360732667085
6775.063483371078,0.0013402494458035431
6775.064483143002,0.001341228012323376
6775.065482914924,0.0013423710341728533
6775.066482686847,0.0013436776467862848
6775.0674824587695,0.0013451468608808462
6775.068482230692,0.0013467775637184011
6775.069482002616,0.0013485685204331016
6775.070481774538,0.001350518375423825
6775.071481546461,0.0013526256538104017
6775.072481318383,0.0013548887629524877
6775.073481090306,0.0013573059940298346
6775.074480862229,0.001359875523682612
6775.075480634152,0.0013625954157103542
6775.076480406075,0.001365463622828023
6775.077480177997,0.0013684779884776067
6775.07847994992,0.0013716362486936309
6775.079479721842,0.0013749360340209048
6775.080479493766,0.0013783748714828016
6775.081479265688,0.0013819501865983473
6775.082479037611,0.0013856593054463638
6775.0834788095335,0.0013894994567749037
6775.084478581456,0.0013934677741541965
6775.08547835338,0.0013975612981713139
6775.086478125302,0.0014017769786647508
6775.087477897225,0.0014061116769971192
6775.088477669147,0.0014105621683641405
6775.08947744107,0.0014151251441381263
6775.0904772129925,0.0014197972142441161
6775.091476984916,0.001424574909566831
6775.092476756839,0.0014294546843865617
6775.093476528761,0.0014344329188420875
6775.094476300684,0.0014395059214187059
6775.095476072606,0.0014446699314594543
6775.09647584453,0.0014499211216976256
6775.097475616452,0.0014552556008087167
6775.098475388375,0.0014606694159799876
6775.0994751602975,0.0014661585554958411
6775.10047493222,0.0014717189513372777
6775.101474704144,0.0014773464817937107
6775.102474476066,0.0014830369740854393
6775.103474247989,0.001488786206995082
6775.104474019911,0.00149458991350626
6775.105473791834,0.0015004437834478174
6775.106473563757,0.0015063434661418602
6775.10747333568,0.0015122845730538934
6775.108473107603,0.0015182626804433527
6775.109472879525,0.001524273332012817
6775.110472651448,0.0015303120415541922
6775.11147242337,0.0015363742955901444
6775.112472195294,0.0015424555560090583
6775.113471967216,0.001548551262691792
6775.114471739139,0.00155465683612852
6775.1154715110615,0.0015607676800239783
6775.116471282984,0.001566879183889464
6775.117471054908,0.0015729867256199792
6775.11847082683,0.001579085674054967
6775.119470598753,0.0015851713915211476
6775.120470370675,0.0015912392363560328
6775.121470142598,0.0015972845654107627
6775.122469914521,0.0016033027365309847
6775.123469686444,0.0016092891110145624
6775.124469458367,0.0016152390560449726
6775.125469230289,0.0016211479470993146
6775.126469002212,0.0016270111703299312
6775.127468774135,0.0016328241249186813
6775.128468546058,0.001638582225402991
6775.12946831798,0.0016442809039728496
6775.130468089903,0.001649915612738
6775.1314678618255,0.0016554818259646355
6775.132467633748,0.0016609750422810123
6775.133467405672,0.0016663907868514412
6775.134467177594,0.001671724613518206
6775.135466949517,0.0016769721069110055
6775.136466721439,0.0016821288845235629
6775.137466493362,0.0016871905987570774
6775.138466265285,0.0016921529389302124
6775.139466037208,0.0016970116332553342
6775.140465809131,0.0017017624507807312
6775.141465581053,0.0017064012032985746
6775.142465352976,0.0017109237472184224
6775.143465124898,0.0017153259854061028
6775.144464896822,0.001719603868987859
6775.145464668744,0.0017237533991196687
6775.146464440667,0.0017277706287216824
6775.1474642125895,0.0017316516641777324
6775.148463984512,0.001735392666999881
6775.149463756436,0.0017389898554579903
6775.150463528358,0.001742439506174281
6775.151463300281,0.0017457379556828493
6775.152463072203,0.0017488816019540722
6775.153462844126,0.0017518669058838063
6775.154462616049,0.0017546903927472396
6775.155462387972,0.001757348653617212
6775.156462159895,0.001759838346746791
6775.157461931817,0.0017621561989158766
6775.15846170374,0.0017642990067415997
6775.159461475663,0.0017662636379522894
6775.160461247586,0.0017680470326247996
6775.161461019508,0.0017696462043849997
6775.162460791431,0.0017710582415712485
6775.1634605633535,0.0017722803083606883
6775.164460335276,0.0017733096458581905
6775.1654601072,0.0017741435731477948
6775.166459879122,0.001774779488306473
6775.167459651045,0.0017752148693800417
6775.168459422967,0.001775447275321047
6775.16945919489,0.0017754743468884275
6775.170458966813,0.0017752938075087411
6775.171458738736,0.0017749034640987301
6775.1724585106585,0.0017743012078489794
6775.173458282581,0.001773485014968444
6775.174458054504,0.0017724529473896464
6775.175457826426,0.0017712031534343996
6775.17645759835,0.0017697338684399561
6775.177457370272,0.0017680434153455418
6775.178457142195,0.0017661302052392634
6775.1794569141175,0.001763992737865411
6775.180456686041,0.0017616296020921836
6775.181456457964,0.0017590394763398725
6775.182456229886,0.001756221128969532
6775.183456001809,0.0017531734186321795
6775.184455773731,0.0017498952945785619
6775.185455545654,0.001746385796929541
6775.186455317577,0.0017426440569071723
6775.1874550895,0.0017386692970265947
6775.188454861423,0.0017344608312488843
6775.189454633345,0.0017300180650950585
6775.190454405268,0.0017253404957214586
6775.191454177191,0.0017204277119567718
6775.192453949114,0.0017152793943010043
6775.193453721036,0.0017098953148867618
6775.194453492959,0.0017042753374032322
6775.1954532648815,0.0016984194169832908
6775.196453036804,0.0016923276000541734
6775.197452808728,0.001686000024152155
6775.19845258065,0.0016794369177016615
6775.199452352573,0.0016726385997592194
6775.200452124495,0.001665605479722611
6775.201451896418,0.0016583380570055484
6775.202451668341,0.0016508369206781543
6775.203451440264,0.0016431027490735122
6775.2044512121865,0.001635136309360565
6775.205450984109,0.0016269384570836625
6775.206450756032,0.0016185101356691104
6775.207450527955,0.0016098523758991201
6775.208450299878,0.001600966295353599
6775.2094500718,0.0015918530978202563
6775.210449843723,0.0015825140726735349
6775.2114496156455,0.0015729505942228908
6775.212449387569,0.0015631641210309831
6775.213449159492,0.0015531561952023378
6775.214448931414,0.0015429284416430707
6775.215448703337,0.0015324825672922487
6775.216448475259,0.0015218203603254619
6775.217448247182,0.0015109436893311738
6775.218448019105,0.0014998545024604122
6775.219447791028,0.0014885548265503462
6775.220447562951,0.001477046766222289
6775.221447334873,0.0014653325029546534
6775.222447106796,0.0014534142941314023
6775.223446878719,0.0014412944720665448
6775.224446650642,0.001428975443005241
6775.225446422564,0.0014164596861020928
6775.226446194487,0.0014037497523771896
6775.2274459664095,0.0013908482636504711
6775.228445738332,0.0013777579114549444
6775.229445510256,0.0013644814559292749
6775.230445282178,0.001351021724690257
6775.231445054101,0.001337381611685662
6775.232444826023,0.0013235640760279766
6775.233444597946,0.001309572140809546
6775.234444369869,0.0012954088918996725
6775.235444141792,0.0012810774767242268
6775.2364439137145,0.001266581103028354
6775.237443685637,0.0012519230376228678
6775.23844345756,0.0012371066051149468
6775.239443229483,0.001222135186623754
6775.240443001406,0.001207012218481607
6775.241442773328,0.0011917411909213198
6775.242442545251,0.0011763256467503269
6775.2434423171735,0.0011607691800121721
6775.244442089097,0.0011450754346359283
6775.24544186102,0.0011292481030741022
6775.246441632942,0.0011132909249295983
6775.247441404865,0.0010972076855723365
6775.248441176787,0.0010810022147461672
6775.24944094871,0.0010646783851667636
6775.250440720633,0.0010482401111112153
6775.251440492556,0.0010316913470000697
6775.252440264479,0.001015036085972595
6775.253440036401,0.0009982783584560377
6775.254439808324,0.0009814222307296422
6775.255439580247,0.0009644718034841712
6775.25643935217,0.0009474312103776419
6775.257439124092,0.0009303046165879588
6775.258438896015,0.0009130962173630897
6775.2594386679375,0.000895810236569403
6775.260438439861,0.0008784509252387492
6775.261438211784,0.0008610225601148332
6775.262437983706,0.0008435294421993735
6775.263437755629,0.000825975895298501
6775.264437527551,0.0008083662645698039
6775.265437299475,0.0007907049150703745
6775.266437071397,0.000772996230306181
6775.26743684332,0.0007552446107830467
6775.2684366152425,0.0007374544725594807
6775.269436387165,0.0007196302458015659
6775.270436159088,0.0007017763733400749
6775.271435931011,0.0006838973092299573
6775.272435702934,0.0006659975173123277
6775.273435474856,0.0006480814697790717
6775.274435246779,0.000630153645740195
6775.2754350187015,0.0006122185297940448
6775.276434790625,0.0005942806106005436
6775.277434562548,0.0005763443794575822
6775.27843433447,0.0005584143288807202
6775.279434106393,0.0005404949511863446
6775.280433878315,0.0005225907370784347
6775.281433650238,0.0005047061742390771
6775.282433422161,0.0004868457459228725
6775.283433194084,0.0004690139295553725
6775.284432966007,0.0004512151953356886
6775.285432737929,0.00043345400484342444
6775.286432509852,0.0004157348096501044
6775.287432281775,0.0003980620499352933
6775.288432053698,0.0003804401531076214
6775.28943182562,0.00036287353243095034
6775.290431597543,0.00034536658565592675
6775.2914313694655,0.00032792369365718224
6775.292431141389,0.000310549219076437
6775.293430913312,0.00029324750497175734
6775.294430685234,0.00027602287347320463
6775.295430457157,0.0002588796244450964
6775.296430229079,0.00024182203415509313
6775.297430001003,0.0002248543539503166
6775.298429772925,0.0002079808089407123
6775.299429544848,0.00019120559668988333
6775.3004293167705,0.000174532885913639
6775.301429088693,0.00015796681518652175
6775.302428860616,0.0001415114916565879
6775.303428632539,0.00012517098976871948
6775.304428404462,0.00010894934999674077
6775.305428176384,9.285057758460905e-05
6775.306427948307,7.687864129695227e-05
6775.3074277202295,6.103747217923962e-05
6775.308427492153,4.533096232788877e-05
6775.309427264076,2.9762963670628238e-05
6775.310427035998,1.4337286757437288e-05
6775.311426807921,-9.42300437619067e-07
6775.312426579843,-1.6072073703348937e-05
6775.313426351766,-3.10483537668779e-05
6775.314426123689,-4.586750745726974e-05
6775.315425895612,-6.052594885702215e-05
6775.316425667535,-7.502014044116464e-05
6775.317425439457,-8.934659420373872e-05
6775.31842521138,-0.00010350187277150678
6775.319424983303,-0.0001174825905048026
6775.320424755226,-0.00013128541458549728
6775.321424527148,-0.0001449070660921082
6775.322424299071,-0.00015834432106213056
6775.3234240709935,-0.00017159401154171814
6775.324423842917,-0.00018465302662288278
6775.32542361484,-0.00019751831346841687
6775.326423386762,-0.0002101868783247727
6775.327423158685,-0.00022265578752315293
6775.328422930607,-0.00023492216846907497
6775.329422702531,-0.000246983210620668
6775.330422474453,-0.00025883616645595197
6775.331422246376,-0.00027047835242934563
6775.3324220182985,-0.00028190714991766294
6775.333421790221,-0.0002931200061558857
6775.334421562144,-0.0003041144351630304
6775.335421334067,-0.00031488801865845806
6775.33642110599,-0.00032543840696898715
6775.337420877912,-0.00033576331992716353
6775.338420649835,-0.0003458605477610207
6775.3394204217575,-0.0003557279519756304
6775.340420193681,-0.00036536346622670086
6775.341419965604,-0.00037476509718643153
6775.342419737526,-0.00038393092540176996
6775.343419509449,-0.00039285910614515214
6775.344419281371,-0.0004015478702577331
6775.345419053295,-0.00040999552498504287
6775.346418825217,-0.0004182004548049352
6775.34741859714,-0.0004261611222476347
6775.348418369063,-0.0004338760687076262
6775.349418140985,-0.000441343915247062
6775.350417912909,-0.00044856336339027536
6775.351417684831,-0.00045553319590888546
6775.352417456754,-0.00046225227759686256
6775.353417228676,-0.00046871955603480255
6775.354417000599,-0.00047493406234254827
6775.3554167725215,-0.00048089491191918984
6775.356416544445,-0.0004866013051693888
6775.357416316368,-0.0004920525282148922
6775.35841608829,-0.0004972479535900406
6775.359415860213,-0.0005021870409200324
6775.360415632135,-0.00050686933758068
6775.361415404059,-0.0005112944793383955
6775.362415175981,-0.0005154621909691632
6775.363414947904,-0.0005193722868552918
6775.3644147198265,-0.0005230246715588003
6775.365414491749,-0.0005264193403703654
6775.366414263672,-0.000529556379832848
6775.367414035595,-0.0005324359682385125
6775.368413807518,-0.0005350583760991537
6775.36941357944,-0.0005374239665884434
6775.370413351363,-0.0005395331959558957
6775.3714131232855,-0.0005413866139119298
6775.372412895209,-0.0005429848639835717
6775.373412667132,-0.0005443286838403998
6775.374412439054,-0.0005454189055903891
6775.375412210977,-0.0005462564560453696
6775.376411982899,-0.0005468423569558783
6775.377411754823,-0.0005471777252152467
6775.378411526745,-0.000547263773032823
6775.379411298668,-0.0005471018080762708
6775.380411070591,-0.0005466932335829031
6775.381410842513,-0.0005460395484400215
6775.382410614437,-0.0005451423472342257
6775.383410386359,-0.0005440033202696614
6775.384410158282,-0.0005426242535551646
6775.385409930204,-0.0005410070287602567
6775.386409702127,-0.0005391536231399347
6775.3874094740495,-0.0005370661094282009
6775.388409245973,-0.0005347466557002824
6775.389409017896,-0.000532197525203514
6775.390408789818,-0.0005294210761568814
6775.391408561741,-0.0005264197615192463
6775.392408333663,-0.0005231961287262906
6775.393408105587,-0.0005197528193962263
6775.394407877509,-0.0005160925690043338
6775.395407649432,-0.0005122182065264271
6775.3964074213545,-0.0005081326540513945
6775.397407193277,-0.0005038389263630248
6775.398406965201,-0.0004993401304913823
6775.399406737123,-0.0004946394652340316
6775.400406509046,-0.0004897402206474217
6775.401406280968,-0.00048464577750872745
6775.402406052891,-0.00047935960674841367
6775.403405824814,-0.00047388526885373995
6775.404405596737,-0.00046822641324337493
6775.40540536866,-0.0004623867776132265
6775.406405140582,-0.00045637018725353326
6775.407404912505,-0.0004501805543371963
6775.408404684427,-0.00044382187717927134
6775.409404456351,-0.00043729823946749133
6775.410404228273,-0.0004306138094636491
6775.411404000196,-0.00042377283917563495
6775.412403772119,-0.00041677966349989813
6775.413403544041,-0.00040963869933407853
6775.414403315965,-0.0004023544446595485
6775.415403087887,-0.0003949314775936004
6775.41640285981,-0.00038737445541102184
6775.417402631732,-0.00037968811353480004
6775.418402403655,-0.00037187726449569775
6775.4194021755775,-0.0003639467968604425
6775.420401947501,-0.0003559016741282714
6775.421401719424,-0.00034774693359558036
6775.422401491346,-0.0003394876851884349
6775.423401263269,-0.0003311291102627035
6775.424401035191,-0.00032267646037159657
6775.425400807115,-0.00031413505600041405
6775.426400579037,-0.0003055102852683382
6775.42740035096,-0.00029680760259713913
6775.4284001228825,-0.0002880325273466787
6775.429399894805,-0.00027919064241709176
6775.430399666729,-0.00027028759281749325
6775.431399438651,-0.0002613290842010058
6775.432399210574,-0.0002523208813658436
6775.433398982496,-0.000243268806722127
6775.434398754419,-0.00023417873872405218
6775.435398526342,-0.0002250566102669982
6775.436398298265,-0.0002159084070491313
6775.437398070188,-0.0002067401658970628
6775.43839784211,-0.00019755797305513528
6775.439397614033,-0.00018836796243794295
6775.440397385955,-0.00017917631384574095
6775.441397157879,-0.00016998925114245875
6775.442396929801,-0.0001608130403961084
6775.443396701724,-0.00015165398798146516
6775.444396473647,-0.00014251843864498848
6775.445396245569,-0.00013341277353204169
6775.446396017493,-0.00012434340817655444
6775.447395789415,-0.00011531679045335759
6775.448395561338,-0.00010633939849350603
6775.44939533326,-9.741773856298913e-05
6775.450395105183,-8.855834290530246e-05
6775.4513948771055,-7.976776754841814e-05
6775.452394649029,-7.105259007674571e-05
6775.453394420952,-6.241940736873007e-05
6775.454394192874,-5.3874833300786615e-05
6775.455393964797,-4.5425496418321624e-05
6775.456393736719,-3.7078037574623656e-05
6775.457393508643,-2.883910753843752e-05
6775.458393280565,-2.0715364571047468e-05
6775.459393052488,-1.271347197370561e-05
6775.4603928244105,-4.840095606249045e-06
6775.461392596333,2.8980986222403974e-06
6775.462392368257,1.0494447289863056e-05
6775.463392140179,1.7942292024517627e-05
6775.464391912102,2.5234982091776737e-05
6775.465391684024,3.2365877007061746e-05
6775.466391455947,3.932834917113484e-05
6775.46739122787,4.611578652791033e-05
6775.468390999793,5.2721595243569115e-05
6775.469390771716,5.9139202405937406e-05
6775.470390543638,6.536205874306586e-05
6775.471390315561,7.138364135992595e-05
6775.472390087483,7.719745649213072e-05
6775.473389859407,8.279704227559007e-05
6775.474389631329,8.817597153102547e-05
6775.475389403252,9.332785456229562e-05
6775.476389175175,9.824634196752206e-05
6775.477388947097,0.00010292512746205263
6775.478388719021,0.00010735795071235671
6775.479388490943,0.0001115386001799984
6775.480388262866,0.00011546091597487015
6775.481388034788,0.00011911879271688526
6775.482387806711,0.00012250618240532442
6775.483387578634,0.0001256170972950192
6775.484387350557,0.00012844561277853625
6775.48538712248,0.00013098587027350508
6775.486386894402,0.0001332320801142094
6775.487386666325,0.00013517852444653507
6775.488386438248,0.00013681956012533518
6775.489386210171,0.00013814962161323466
6775.490385982093,0.00013916322387985043
6775.491385754016,0.00013985496530035567
6775.4923855259385,0.00014021953055226954
6775.493385297861,0.000140251693509312
6775.494385069785,0.00013994632013112704
6775.495384841707,0.00013929837134764563
6775.49638461363,0.00013830290593683245
6775.497384385552,0.00013695508339453817
6775.498384157475,0.0001352501667951612
6775.499383929398,0.00013318352564181123
6775.500383701321,0.0001307506387046584
6775.501383473244,0.00012794709684614604
6775.502383245166,0.00012476860583174253
6775.503383017089,0.00012121098912489888
6775.504382789011,0.00011727019066486646
6775.505382560935,0.00011294227762601402
6775.506382332857,0.00010822344315726763
6775.50738210478,0.00010311000910028378
6775.508381876703,9.759842868495561e-05
6775.509381648625,9.168528920084773e-05
6775.510381420549,8.536731464316116e-05
6775.511381192471,7.864136833185194e-05
6775.512380964394,7.150445550256217e-05
6775.513380736316,6.395372586806372e-05
6775.514380508239,5.598647614895227e-05
6775.515380280162,4.760015257234912e-05
6775.516380052085,3.879235333736901e-05
6775.517379824008,2.9560831046093464e-05
6775.51837959593,1.990349509876133e-05
6775.519379367853,9.818414051860284e-06
6775.520379139776,-6.961820622147917e-07
6775.521378911699,-1.1641899455273394e-05
6775.522378683621,-2.3020178344535652e-05
6775.523378455544,-3.4832290756233436e-05
6775.5243782274665,-4.707933837287099e-05
6775.525377999389,-5.97622504253625e-05
6775.526377771313,-7.288178163120496e-05
6775.527377543235,-8.643851017977688e-05
6775.528377315158,-0.0001004328357657845
6775.52937708708,-0.0001148649776718142
6775.530376859003,-0.00012973497290089936
6775.531376630926,-0.00014504267435997635
6775.532376402849,-0.0001607877490950916
6775.533376174772,-0.00017696967657922967
6775.534375946694,-0.0001935877470536608
6775.535375718617,-0.00021064105992375212
6775.536375490539,-0.0002281285222102457
