Time,Filtered_ECG
6572.678653276731,0.0027588042967991513
6572.679653048654,0.0027081631961526445
6572.680652820577,0.0026564896058399517
6572.6816525925,0.002603794889853343
6572.682652364422,0.002550090905776312
6572.683652136345,0.002495390003568192
6572.684651908267,0.002439705024023337
6572.685651680191,0.0023830492968981184
6572.686651452113,0.002325436638699297
6572.687651224036,0.0022668813501277875
6572.688650995959,0.0022073982131723675
6572.689650767881,0.0021470024878485765
6572.690650539805,0.0020857099085787967
6572.691650311727,0.002023536680210332
6572.69265008365,0.0019604994736691574
6572.693649855572,0.0018966154212478458
6572.694649627495,0.0018319021115269928
6572.6956493994185,0.001766377583930257
6572.696649171341,0.0017000603229138857
6572.697648943264,0.0016329692517923454
6572.698648715186,0.001565123726202398
6572.699648487109,0.0014965435272086673
6572.700648259031,0.001427248854054432
6572.701648030955,0.0013572603165621
6572.702647802877,0.0012865989271885574
6572.7036475748,0.0012152860927413854
6572.704647346723,0.0011433436057627462
6572.705647118645,0.0010707936355885425
6572.706646890569,0.000997658719091218
6572.707646662491,0.0009239617511152287
6572.708646434414,0.0008497259746147706
6572.709646206336,0.000774974970503754
6572.710645978259,0.0006997326472282807
6572.711645750183,0.0006240232300720272
6572.712645522105,0.0005478712502049932
6572.713645294028,0.0004713015334860805
6572.71464506595,0.0003943391890299471
6572.715644837873,0.00031700959754855365
6572.716644609795,0.00023933839947778981
6572.717644381719,0.00016135148289955894
6572.718644153641,8.307497126969981e-05
6572.719643925564,4.535210962131795e-06
6572.720643697487,-7.424124136038304e-05
6572.721643469409,-0.00015322763153846313
6572.722643241333,-0.00023239702086091544
6572.723643013255,-0.00031172229915173003
6572.724642785178,-0.00039117619798886865
6572.7256425571,-0.00047073130404446875
6572.726642329023,-0.0005503600725361037
6572.7276421009465,-0.0006300348407787605
6572.728641872869,-0.0007097278418272238
6572.729641644792,-0.0007894112181985752
6572.730641416714,-0.0008690570356645515
6572.731641188637,-0.0009486372971035483
6572.732640960559,-0.0010281239564021113
6572.733640732483,-0.0011074889323958346
6572.734640504405,-0.0011867041228396666
6572.735640276328,-0.0012657414183977296
6572.736640048251,-0.0013445727166428605
6572.737639820173,-0.0014231699360561915
6572.738639592097,-0.001501505030017183
6572.739639364019,-0.00157955000077462
6572.740639135942,-0.0016572769133891595
6572.741638907864,-0.0017346579096381041
6572.742638679787,-0.0018116652218731668
6572.743638451711,-0.0018882711868220803
6572.744638223633,-0.0019644482593250013
6572.745637995556,-0.0020401690259967374
6572.746637767478,-0.002115406218805906
6572.747637539401,-0.0021901327285622045
6572.748637311324,-0.0022643216183030447
6572.749637083247,-0.0023379461365708827
6572.750636855169,-0.0024109797305726663
6572.751636627092,-0.0024833960592129146
6572.752636399015,-0.002555169005992039
6572.753636170937,-0.0026262726917616274
6572.754635942861,-0.0026966814873285072
6572.755635714783,-0.0027663700258994915
6572.756635486706,-0.0028353132153588136
6572.757635258628,-0.0029034862503703185
6572.758635030551,-0.0029708646242965816
6572.7596348024745,-0.003037424140927195
6572.760634574397,-0.003103140926008587
6572.76163434632,-0.003167991438567824
6572.762634118242,-0.003231952482022967
6572.763633890165,-0.003295001215072628
6572.764633662088,-0.0033571151623574816
6572.765633434011,-0.0034182722248865065
6572.766633205933,-0.0034784506902208207
6572.767632977856,-0.0035376292424079544
6572.768632749779,-0.0035957869716594926
6572.769632521701,-0.003652903383765054
6572.770632293625,-0.003708958409235695
6572.771632065547,-0.0037639324121699984
6572.77263183747,-0.0038178061988362847
6572.773631609392,-0.0038705610259646465
6572.774631381315,-0.003922178608742743
6572.775631153239,-0.003972641128509544
6572.776630925161,-0.004021931240141472
6572.777630697084,-0.004070032079125604
6572.778630469006,-0.004116927268314794
6572.779630240929,-0.004162600924359762
6572.780630012852,-0.004207037663813311
6572.781629784775,-0.004250222608901977
6572.782629556697,-0.0042921413929604664
6572.78362932862,-0.004332780165524342
6572.784629100543,-0.004372125597076496
6572.785628872465,-0.004410164883443037
6572.786628644389,-0.004446885749834384
6572.787628416311,-0.004482276454527571
6572.788628188234,-0.004516325792186036
6572.789627960156,-0.004549023096813518
6572.790627732079,-0.004580358244339073
6572.7916275040025,-0.004610321654830644
6572.792627275925,-0.004638904294335129
6572.793627047848,-0.004666097676343376
6572.79462681977,-0.004691893862879143
6572.795626591693,-0.004716285465211618
6572.796626363616,-0.004739265644191717
6572.797626135539,-0.004760828110212895
6572.798625907461,-0.0047809671227977924
6572.799625679384,-0.004799677489812492
6572.800625451307,-0.00481695456631067
6572.80162522323,-0.00483279425301037
6572.802624995153,-0.004847192994406573
6572.803624767075,-0.004860147776523161
6572.804624538998,-0.0048716561243082185
6572.80562431092,-0.004881716098676911
6572.806624082843,-0.004890326293206432
6572.807623854767,-0.004897485830487623
6572.808623626689,-0.004903194358137975
6572.809623398612,-0.004907452044480718
6572.810623170534,-0.004910259573894762
6572.811622942457,-0.004911618141840236
6572.81262271438,-0.004911529449564521
6572.813622486303,-0.004909995698493796
6572.814622258225,-0.004907019584315411
6572.815622030148,-0.004902604290756624
6572.816621802071,-0.004896753483065661
6572.817621573993,-0.0048894713012013055
6572.818621345917,-0.004880762352737681
6572.819621117839,-0.004870631705491247
6572.820620889762,-0.004859084879877517
6572.821620661684,-0.004846127841005567
6572.822620433607,-0.004831766990519052
6572.8236202055305,-0.004816009158193204
6572.824619977453,-0.0047988615932981074
6572.825619749376,-0.0047803319557394135
6572.826619521298,-0.004760428306988487
6572.827619293221,-0.004739159100814853
6572.828619065144,-0.004716533173834576
6572.829618837067,-0.004692559735889021
6572.830618608989,-0.004667248360269073
6572.831618380912,-0.0046406089738005845
6572.832618152835,-0.004612651846807403
6572.833617924758,-0.004583387582968887
6572.834617696681,-0.004552827109089417
6572.835617468603,-0.004520981664797856
6572.836617240526,-0.00448786279219548
6572.837617012448,-0.00445348232547131
6572.838616784371,-0.004417852380504312
6572.839616556295,-0.004380985344472348
6572.840616328217,-0.0043428938654882145
6572.84161610014,-0.004303590842283411
6572.842615872062,-0.0042630894139604825
6572.843615643985,-0.004221402949834794
6572.844615415908,-0.004178545039386402
6572.845615187831,-0.004134529482342374
6572.846614959753,-0.004089370278909385
6572.847614731676,-0.004043081620175777
6572.848614503599,-0.003995677878701517
6572.849614275522,-0.003947173599313597
6572.850614047445,-0.0038975834901233968
6572.851613819367,-0.0038469224137814453
6572.85261359129,-0.0037952053789837253
6572.853613363212,-0.0037424475322423443
6572.854613135135,-0.0036886641499319452
6572.8556129070585,-0.0036338706306217267
6572.856612678981,-0.0035780824877014714
6572.857612450904,-0.0035213153423084933
6572.858612222826,-0.0034635849165609825
6572.859611994749,-0.0034049070271018785
6572.860611766672,-0.0033452975789560586
6572.861611538595,-0.0032847725597023704
6572.862611310517,-0.0032233480339608277
6572.86361108244,-0.0031610401381941366
6572.864610854363,-0.0030978650758216653
6572.865610626286,-0.0030338391126429574
6572.866610398209,-0.0029689785725670087
6572.867610170131,-0.0029032998336426877
6572.868609942054,-0.0028368193243849637
6572.869609713976,-0.0027695535203909535
6572.870609485899,-0.0027015189412392584
6572.871609257823,-0.002632732147665613
6572.872609029745,-0.002563209739007505
6572.873608801668,-0.002492968350910164
6572.87460857359,-0.002422024653286129
6572.875608345513,-0.00235039534852046
6572.876608117436,-0.002278097169913595
6572.877607889359,-0.002205146880353752
6572.878607661281,-0.002131561271210716
6572.879607433204,-0.0020573571614427785
6572.880607205127,-0.0019825513969085012
6572.88160697705,-0.0019071608498748567
6572.882606748973,-0.0018312024187131385
6572.883606520895,-0.0017546930277738384
6572.884606292818,-0.0016776496274314627
6572.88560606474,-0.0016000891942900114
6572.886605836664,-0.0015220287315396259
6572.8876056085865,-0.0014434852694546918
6572.888605380509,-0.0013644758660235432
6572.889605152432,-0.001285017607699825
6572.890604924354,-0.0012051276102655706
6572.891604696277,-0.0011248230197961832
6572.8926044682,-0.00104412101371776
6572.893604240123,-0.0009630388019475609
6572.894604012045,-0.0008815936281088805
6572.895603783968,-0.0007998027708120715
6572.896603555891,-0.0007176835449939499
6572.897603327814,-0.0006352533033082493
6572.898603099737,-0.0005525294375601404
6572.899602871659,-0.0004695293801780973
6572.900602643582,-0.00038627060571656336
6572.901602415504,-0.00030277063238298707
6572.902602187428,-0.00021904702358286813
6572.90360195935,-0.0001351173894765084
6572.904601731273,-5.099938854119417e-05
6572.905601503196,3.32892708674342e-05
6572.906601275118,0.00011773082896105502
6572.907601047041,0.00020230747297759924
6572.908600818964,0.00028700133565965545
6572.909600590887,0.00037179449375853894
6572.910600362809,0.00045666896657018964
6572.911600134732,0.0005416067145090265
6572.912599906655,0.0006265896377258439
6572.913599678578,0.0007115995747757947
6572.914599450501,0.0007966183013424683
6572.915599222423,0.0008816275290240426
6572.916598994346,0.0009666089041874674
6572.917598766268,0.0010515440068966256
6572.918598538192,0.0011364143499204163
6572.919598310114,0.0012212013778266936
6572.920598082037,0.0013058864661679905
6572.92159785396,0.0013904509207649449
6572.922597625882,0.0014748759770933293
6572.923597397805,0.0015591427997805648
6572.924597169728,0.0016432324822175698
6572.925596941651,0.001727126046291734
6572.926596713573,0.001810804442246771
6572.927596485496,0.0018942485486751108
6572.928596257419,0.0019774391726484044
6572.929596029342,0.002060357049991565
6572.930595801265,0.0021429828457055753
6572.931595573187,0.002225297154544001
6572.93259534511,0.002307280501747849
6572.933595117032,0.002388913343943005
6572.934594888956,0.002470176070204125
6572.935594660878,0.0025510490032884595
6572.936594432801,0.002631512401042714
6572.937594204724,0.002711546457985732
6572.938593976646,0.0027911313070694602
6572.93959374857,0.002870247021620425
6572.940593520492,0.0029488736174637154
6572.941593292415,0.003026991055231294
6572.942593064337,0.0031045792428562534
6572.94359283626,0.0031816180382543816
6572.944592608183,0.003258087252194068
6572.945592380106,0.0033339666513551923
6572.946592152029,0.0034092359615772
6572.947591923951,0.003483874871296087
6572.948591695874,0.0035578630351695826
6572.949591467796,0.003631180077889368
6572.95059123972,0.003703805598178862
6572.951591011642,0.003775719172974851
6572.952590783565,0.0038469003617911434
6572.953590555488,0.003917328711262398
6572.95459032741,0.003986983759866357
6572.955590099333,0.0040558450428227885
6572.956589871256,0.004123892097167549
6572.957589643179,0.004191104467000184
6572.958589415101,0.004257461708903432
6572.959589187024,0.004322943397532721
6572.960588958947,0.00438752913137336
6572.96158873087,0.0044511985386624835
6572.962588502793,0.004513931283472096
6572.963588274715,0.004575707071948788
6572.964588046638,0.00463650565870494
6572.96558781856,0.004696306853355592
6572.966587590484,0.004755090527194579
6572.967587362406,0.004812836620003179
6572.968587134329,0.00486952514698412
6572.969586906252,0.004925136205813661
6572.970586678174,0.004979649983804302
6572.971586450098,0.005033046765170649
6572.97258622202,0.005085306938391058
6572.973585993943,0.00513641100365775
6572.974585765865,0.0051863395804083315
6572.975585537788,0.005235073414931875
6572.976585309711,0.005282593388043031
6572.977585081634,0.005328880522817974
6572.978584853557,0.005373915992386355
6572.979584625479,0.005417681127773749
6572.980584397402,0.005460157425789436
6572.981584169324,0.005501326556954686
6572.982583941248,0.005541170373466944
6572.98358371317,0.005579670917195569
6572.984583485093,0.005616810427704935
6572.985583257016,0.005652571350300798
6572.986583028938,0.005686936344095919
6572.987582800862,0.005719888290091002
6572.988582572784,0.0057514102992670705
6572.989582344707,0.0057814857206855705
6572.990582116629,0.005810098149592593
6572.991581888552,0.005837231435523811
6572.992581660475,0.0058628696904069145
6572.993581432398,0.0058869972966584805
6572.994581204321,0.0059095989152723235
6572.995580976243,0.005930659493896507
6572.996580748166,0.005950164274896256
6572.997580520088,0.005968098803400076
6572.998580292012,0.005984448935326437
6572.999580063934,0.00599920084538839
6573.000579835857,0.006012341035073478
6573.00157960778,0.006023856340596302
6573.002579379702,0.006033733940821061
6573.003579151626,0.006041961365151357
6573.004578923548,0.006048526501384614
6573.005578695471,0.006053417603528525
6573.006578467393,0.006056623299577076
6573.007578239316,0.006058132599243846
6573.008578011239,0.006057934901650406
6573.009577783162,0.006056020002967713
6573.010577555085,0.006052378104008361
6573.011577327007,0.006046999817767396
6573.01257709893,0.00603987617690912
6573.013576870852,0.006030998641196883
6573.014576642776,0.006020359104862485
6573.015576414698,0.0060079499039113
6573.016576186621,0.005993763823358908
6573.017575958544,0.0059777941043946395
6573.018575730466,0.005960034451467207
6573.01957550239,0.005940479039287396
6573.020575274312,0.0059191225197427
6573.021575046235,0.0058959600287186815
6573.022574818157,0.005870987192821808
6573.02357459008,0.005844200135998501
6573.024574362004,0.0058155954860450755
6573.025574133926,0.0057851703810032655
6573.026573905849,0.005752922475435932
6573.027573677771,0.0057188499465775635
6573.028573449694,0.005682951500354085
6573.029573221616,0.005645226377266453
6573.03057299354,0.005605674358132489
6573.031572765462,0.005564295769681362
6573.032572537385,0.005521091489995188
6573.033572309308,0.005476062953792207
6573.03457208123,0.005429212157546131
6573.035571853154,0.005380541664436264
6573.036571625076,0.005330054609123089
6573.037571396999,0.005277754702344042
6573.038571168921,0.005223646235324269
6573.039570940844,0.005167734083997223
6573.040570712767,0.00511002371303008
6573.04157048469,0.005050521179649132
6573.042570256613,0.004989233137260519
6573.043570028535,0.004926166838861962
6573.044569800458,0.0048613301402413095
6573.04556957238,0.004794731502957908
6573.046569344304,0.004726379997102804
6573.047569116226,0.004656285303833678
6573.048568888149,0.00458445771768016
6573.049568660072,0.004510908148614852
6573.050568431994,0.004435648123884956
6573.051568203918,0.0043586897895989355
6573.05256797584,0.0042800459120621625
6573.053567747763,0.004199729878855066
6573.054567519685,0.004117755699646983
6573.055567291608,0.004034138006738654
6573.056567063532,0.003948892055326197
6573.057566835454,0.0038620337234795137
6573.058566607377,0.0037735795118283275
6573.059566379299,0.0036835465429494825
6573.060566151222,0.003591952560449734
6573.061565923144,0.003498815927738847
6573.062565695068,0.0034041556264884382
6573.06356546699,0.003307991254772581
6573.064565238913,0.003210343024886696
6573.065565010836,0.003111231760841746
6573.066564782758,0.003010678895531192
6573.067564554682,0.00290870646756858
6573.068564326604,0.0028053371177940135
6573.069564098527,0.0027005940854481054
6573.070563870449,0.0025945012040123187
6573.071563642372,0.00248708289671493
6573.072563414296,0.002378364171702116
6573.073563186218,0.0022683706168739565
6573.074562958141,0.0021571283943853806
6573.075562730063,0.0020446642348122862
6573.076562501986,0.0019310054309831857
6573.077562273908,0.0018161798314767928
6573.078562045832,0.0017002158337859371
6573.079561817754,0.0015831423771480964
6573.080561589677,0.0014649889350427173
6573.0815613616,0.001345785507355413
6573.082561133522,0.0012255626122091667
6573.083560905446,0.001104351277462859
6573.084560677368,0.0009821830318778135
6573.085560449291,0.0008590898959535868
6573.086560221213,0.0007351043724348734
6573.087559993136,0.0006102594364921065
6573.08855976506,0.0004845885255790495
6573.089559536982,0.0003581255289713639
6573.090559308905,0.00023090477699077476
6573.091559080827,0.00010296102992003087
6573.09255885275,-2.5670533385625483e-05
6573.093558624672,-0.00015495432718429263
6573.094558396596,-0.0002848543708239389
6573.095558168518,-0.00041533430100261856
6573.096557940441,-0.0005463573843049823
6573.097557712364,-0.0006778865300073083
6573.098557484286,-0.0008098843031429054
6573.09955725621,-0.0009423129378193752
6573.100557028132,-0.0010751343507788807
6573.101556800055,-0.0012083101551922737
6573.102556571977,-0.0013418016746776676
6573.1035563439,-0.0014755699575338364
6573.104556115824,-0.0016095757911786445
6573.105555887746,-0.0017437797167825927
6573.106555659669,-0.001878142044087499
6573.107555431591,-0.002012622866400317
6573.108555203514,-0.0021471820757520913
6573.109554975437,-0.0022817793782120665
6573.11055474736,-0.00241637430934694
6573.111554519282,-0.0025509262498152135
6573.112554291205,-0.002685394441086504
6573.113554063128,-0.0028197380012755647
6573.11455383505,-0.002953915941080611
6573.115553606974,-0.0030878871798153784
6573.116553378896,-0.0032216105615241433
6573.117553150819,-0.003355044871168757
6573.118552922741,-0.003488148850876567
6573.119552694664,-0.0036208812162379666
6573.120552466588,-0.0037532006726422626
6573.12155223851,-0.003885065931640537
6573.122552010433,-0.004016435727324249
6573.123551782355,-0.004147268832708395
6573.124551554278,-0.004277524076108133
6573.125551326201,-0.004407160357497897
6573.126551098124,-0.004536136664842093
6573.127550870046,-0.0046644120903866085
6573.128550641969,-0.004791945846900438
6573.129550413892,-0.004918697283856905
6573.130550185814,-0.005044625903544078
6573.131549957738,-0.005169691377094215
6573.13254972966,-0.005293853560422237
6573.133549501583,-0.005417072510063519
6573.134549273505,-0.005539308498901521
6573.135549045428,-0.005660522031776035
6573.136548817352,-0.005780673860963125
6573.137548589274,-0.005899725001518051
6573.138548361197,-0.006017636746472751
6573.139548133119,-0.006134370681879668
6573.140547905042,-0.006249888701693914
6573.141547676965,-0.006364153022485954
6573.142547448888,-0.006477126197977206
6573.14354722081,-0.006588771133391117
6573.144546992733,-0.006699051099612428
6573.145546764656,-0.0068079297471475815
6573.146546536578,-0.00691537111987935
6573.147546308502,-0.007021339668608991
6573.148546080424,-0.00712580026437941
6573.149545852347,-0.007228718211573035
6573.150545624269,-0.007330059260778318
6573.151545396192,-0.007429789621418977
6573.152545168116,-0.007527875974140306
6573.153544940038,-0.007624285482947082
6573.154544711961,-0.007718985807087847
6573.155544483883,-0.007811945112680527
6573.156544255806,-0.007903132084074645
6573.157544027729,-0.007992515934945625
6573.158543799652,-0.008080066419117031
6573.159543571574,-0.008165753841106854
6573.160543343497,-0.008249549066394241
6573.16154311542,-0.008331423531403419
6573.162542887343,-0.008411349253201769
6573.163542659266,-0.008489298838909271
6573.164542431188,-0.008565245494816843
6573.165542203111,-0.008639163035211339
6573.166541975033,-0.00871102589090522
6573.167541746956,-0.00878080911746916
6573.16854151888,-0.00884848840316608
6573.169541290802,-0.008914040076585295
6573.170541062725,-0.008977441113975708
6573.171540834647,-0.00903866914627719
6573.17254060657,-0.009097702465849513
6573.173540378493,-0.009154520032898562
6573.174540150416,-0.009209101481599797
6573.175539922338,-0.009261427125919465
6573.176539694261,-0.009311477965134492
6573.177539466184,-0.009359235689052524
6573.178539238106,-0.00940468268293407
6573.17953901003,-0.009447802032119198
6573.180538781952,-0.009488577526361626
6573.181538553875,-0.009526993663873419
6573.182538325797,-0.009563035655083782
6573.18353809772,-0.009596689426115714
6573.184537869644,-0.009627941621984475
6573.185537641566,-0.009656779609521972
6573.186537413489,-0.009683191480031307
6573.187537185411,-0.009707166051675733
6573.188536957334,-0.009728692871606255
6573.189536729257,-0.009747762217832124
6573.19053650118,-0.009764365100838378
6573.191536273102,-0.009778493264954658
6573.192536045025,-0.00979013918947947
6573.193535816948,-0.009799296089564131
6573.194535588871,-0.009805957916860624
6573.195535360794,-0.009810119359937627
6573.196535132716,-0.009811775844468896
6573.197534904639,-0.009810923533198153
6573.198534676561,-0.009807559325684532
6573.199534448484,-0.009801680857832515
6573.200534220408,-0.009793286501210202
6573.20153399233,-0.009782375362159633
6573.202533764253,-0.009768947280702801
6573.203533536175,-0.009753002829246911
6573.204533308098,-0.009734543311092459
6573.205533080021,-0.009713570758747663
6573.206532851944,-0.009690087932052777
6573.207532623866,-0.009664098316117756
6573.208532395789,-0.009635606119076713
6573.209532167712,-0.009604616269662494
6573.210531939635,-0.009571134414604606
6573.211531711558,-0.009535166915853594
6573.21253148348,-0.009496720847634858
6573.213531255403,-0.009455803993334792
6573.214531027325,-0.009412424842222041
6573.215530799248,-0.009366592586006634
6573.216530571172,-0.009318317115239741
6573.217530343094,-0.0092676090155569
6573.218530115017,-0.009214479563767598
6573.219529886939,-0.009158940723794124
6573.220529658862,-0.009101005142462685
6573.221529430785,-0.00904068614514965
6573.222529202708,-0.008977997731285709
6573.22352897463,-0.008912954569720518
6573.224528746553,-0.008845571993950306
6573.225528518476,-0.008775865997210693
6573.226528290399,-0.008703853227436914
6573.227528062322,-0.008629550982093545
6573.228527834244,-0.00855297720287571
6573.229527606167,-0.00847415047028367
6573.230527378089,-0.008393089998072567
6573.231527150012,-0.008309815627579088
6573.232526921936,-0.008224347821926568
6573.233526693858,-0.00813670766011004
6573.234526465781,-0.008046916830962505
6573.235526237703,-0.007954997627003569
6573.236526009626,-0.007860972938171364
6573.237525781549,-0.007764866245438471
6573.238525553472,-0.007666701614312349
6573.239525325394,-0.007566503688220566
6573.240525097317,-0.007464297681780955
6573.24152486924,-0.007360109373956597
6573.242524641163,-0.007253965101095412
6573.243524413086,-0.007145891749853992
6573.244524185008,-0.007035916750005159
6573.245523956931,-0.006924068067128716
6573.246523728853,-0.00681037419518475
6573.247523500777,-0.006694864148968859
6573.2485232727,-0.006577567456448589
6573.249523044622,-0.006458514150980433
6573.250522816545,-0.006337734763406627
6573.251522588467,-0.006215260314031072
6573.25252236039,-0.006091122304473663
6573.253522132313,-0.0059653527094022905
6573.254521904236,-0.005837983968141802
6573.255521676158,-0.005709048976159229
6573.256521448081,-0.0055785810764245524
6573.257521220004,-0.0054466140506462726
6573.258520991927,-0.005313182110381077
6573.25952076385,-0.0051783198880168725
6573.260520535772,-0.005042062427628456
6573.261520307695,-0.0049044451757050715
6573.262520079617,-0.004765503971749083
6573.263519851541,-0.0046252750387449845
6573.264519623464,-0.004483794973497938
6573.265519395386,-0.004341100736841028
6573.266519167309,-0.004197229643710428
6573.267518939231,-0.00405221935308767
6573.268518711154,-0.0039061078578082474
6573.269518483077,-0.003758933474235782
6573.270518255,-0.003610734831801014
6573.271518026922,-0.0034615508624048627
6573.272517798845,-0.003311420789684876
6573.273517570768,-0.0031603841181444318
6573.274517342691,-0.003008480622144205
6573.275517114614,-0.002855750334755605
6573.276516886536,-0.0027022335364761496
6573.277516658459,-0.0025479707438070686
6573.278516430381,-0.002393002697693741
6573.279516202305,-0.0022373703518298884
6573.280515974228,-0.002081114860826703
6573.28151574615,-0.0019242775682482545
6573.282515518073,-0.0017668999945146676
6573.283515289995,-0.0016090238246746446
6573.284515061918,-0.0014506908960489786
6573.285514833841,-0.0012919431857467637
6573.286514605764,-0.0011328227980560654
6573.287514377686,-0.0009733719517109117
6573.288514149609,-0.0008136329670365748
6573.289513921532,-0.0006536482529752317
6573.290513693455,-0.0004934602939942114
6573.291513465378,-0.0003331116368791135
6573.2925132373,-0.00017264487741414347
6573.293513009223,-1.2102646952072066e-05
6573.294512781145,0.00014847240112367987
6573.295512553069,0.00030903760504218873
6573.296512324991,0.00046955030839056976
6573.297512096914,0.0006299678739588287
6573.298511868837,0.0007902476976806459
6573.299511640759,0.0009503472226663808
6573.300511412683,0.001110223953324228
6573.301511184605,0.0012698354695650782
6573.302510956528,0.001429139441086284
6573.30351072845,0.00158809364172921
6573.304510500373,0.0017466559639052028
6573.305510272296,0.0019047844330844943
6573.306510044219,0.0020624372223425
6573.307509816142,0.0022195726669580005
6573.308509588064,0.002376149279057757
6573.309509359987,0.002532125762302151
6573.310509131909,0.00268746102660649
6573.311508903833,0.00284211420289265
6573.312508675755,0.0029960446578657387
6573.313508447678,0.003149212008810442
6573.314508219601,0.003301576138401641
6573.315507991523,0.003453097209523723
6573.316507763446,0.0036037356800927758
6573.317507535369,0.003753452317875473
6573.318507307292,0.0039022082152980154
6573.319507079214,0.004049964804237879
6573.320506851137,0.004196683870790408
6573.32150662306,0.0043423275700014445
6573.322506394983,0.0044868584405562805
6573.323506166906,0.004630239419414337
6573.324505938828,0.00477243385637814
6573.325505710751,0.004913405528584518
6573.326505482673,0.005053118654905499
6573.327505254597,0.005191537910246171
6573.328505026519,0.005328628439726747
6573.329504798442,0.005464355872736175
6573.330504570365,0.005598686336844839
6573.331504342287,0.0057315864715641145
6573.332504114211,0.005863023441940761
6573.333503886133,0.0059929649519744445
6573.334503658056,0.006121379257846973
6573.335503429978,0.006248235180952207
6573.336503201901,0.006373502120715972
6573.337502973824,0.006497150067195673
6573.338502745747,0.0066191496134496855
6573.33950251767,0.006739471967666942
6573.340502289592,0.00685808896504741
6573.341502061515,0.006974973079424434
6573.342501833437,0.0070900974346200865
6573.343501605361,0.007203435815524849
6573.344501377283,0.007314962678893048
6573.345501149206,0.007424653163845609
6573.346500921129,0.00753248310207186
6573.347500693051,0.007638429027722331
6573.348500464975,0.007742468186984696
6573.349500236897,0.007844578547335269
6573.35050000882,0.007944738806458644
6573.351499780742,0.00804292840082824
6573.352499552665,0.008139127513940553
6573.353499324588,0.008233317084195899
6573.354499096511,0.008325478812418246
6573.355498868434,0.008415595169006489
6573.356498640356,0.008503649400709322
6573.357498412279,0.008589625537015776
6573.358498184201,0.008673508396153478
6573.359497956125,0.00875528359068696
6573.360497728047,0.008834937532708672
6573.36149749997,0.008912457438615958
6573.362497271893,0.00898783133346791
6573.363497043815,0.009061048054916717
6573.364496815739,0.009132097256709071
6573.365496587661,0.009200969411753914
6573.366496359584,0.00926765581475371
6573.367496131506,0.009332148584397158
6573.368495903429,0.00939444066511197
6573.369495675352,0.009454525828376973
6573.370495447275,0.009512398673593277
6573.371495219198,0.00956805462851472
6573.37249499112,0.0096214899492382
6573.373494763043,0.009672701719754805
6573.374494534965,0.009721687851062939
6573.375494306889,0.009768447079844868
6573.376494078811,0.00981297896670826
6573.377493850734,0.00985528389399439
6573.378493622657,0.009895363063154779
6573.379493394579,0.009933218491698098
6573.380493166503,0.009968853009709313
6573.381492938425,0.010002270255943274
6573.382492710348,0.010033474673495184
6573.38349248227,0.010062471505050808
6573.384492254193,0.010089266787719672
6573.3854920261165,0.010113867347455
6573.386491798039,0.010136280793064684
6573.387491569962,0.01015651550981811
6573.388491341884,0.010174580652654142
6573.389491113807,0.010190486138996098
6573.390490885729,0.01020424264117989
6573.391490657653,0.010215861578501866
6573.392490429575,0.01022535510889317
6573.393490201498,0.010232736120227652
6573.394489973421,0.010238018221270585
6573.395489745343,0.010241215732275674
6573.396489517267,0.010242343675237974
6573.397489289189,0.010241417763810576
6573.398489061112,0.010238454392892945
6573.399488833034,0.010233470627898872
6573.400488604957,0.01022648419371197
6573.40148837688,0.01021751346333654
6573.402488148803,0.010206577446251622
6573.403487920726,0.010193695776475994
6573.404487692648,0.010178888700351958
6573.405487464571,0.010162177064055802
6573.406487236493,0.010143582300843055
6573.407487008417,0.010123126418036857
6573.408486780339,0.010100831983767981
6573.409486552262,0.010076722113475376
6573.410486324185,0.010050820456176272
6573.411486096107,0.01002315118051514
6573.412485868031,0.009993738960600854
6573.413485639953,0.009962608961641556
6573.414485411876,0.009929786825386686
6573.415485183798,0.009895298655385716
6573.416484955721,0.009859171002073052
6573.4174847276445,0.009821430847688554
6573.418484499567,0.009782105591043137
6573.41948427149,0.009741223032138834
6573.420484043412,0.00969881135665267
6573.421483815335,0.00965489912029365
6573.422483587257,0.009609515233042003
6573.423483359181,0.009562688943279756
6573.424483131103,0.00951444982182153
6573.425482903026,0.009464827745854372
6573.426482674949,0.00941385288279531
6573.427482446871,0.009361555674075261
6573.428482218795,0.009307966818857831
6573.429481990717,0.009253117257701487
6573.43048176264,0.009197038156173443
6573.431481534562,0.009139760888423538
6573.432481306485,0.009081317020726218
6573.4334810784085,0.009021738294998704
6573.434480850331,0.00896105661230337
6573.435480622254,0.008899304016342277
6573.436480394176,0.008836512676951866
6573.437480166099,0.00877271487360575
6573.438479938022,0.008707942978933588
6573.439479709945,0.008642229442263984
6573.440479481867,0.00857560677319936
6573.44147925379,0.00850810752523069
6573.442479025713,0.008439764279399848
6573.443478797635,0.008370609628017306
6573.444478569559,0.008300676158442754
6573.445478341481,0.008229996436936162
6573.446478113404,0.008158602992586712
6573.447477885326,0.00808652830132694
6573.448477657249,0.008013804770039391
6573.4494774291725,0.007940464720762997
6573.450477201095,0.007866540375006342
6573.451476973018,0.007792063838174869
6573.45247674494,0.0077170670841189845
6573.453476516863,0.007641581939809933
6573.454476288785,0.007565640070150236
6573.455476060709,0.0074892729629254615
6573.456475832631,0.00741251191390405
6573.457475604554,0.007335388012091951
6573.458475376477,0.007257932125148864
6573.459475148399,0.00718017488497281
6573.460474920323,0.007102146673459739
6573.461474692245,0.00702387760844477
6573.462474464168,0.006945397529831522
6573.46347423609,0.0068667359859158105
6573.464474008013,0.006787922219909783
6573.4654737799365,0.006708985156672411
6573.466473551859,0.006629953389652049
6573.467473323782,0.006550855168046655
6573.468473095704,0.006471718384187099
6573.469472867627,0.006392570561148926
6573.47047263955,0.00631343884059785
6573.471472411473,0.006234349970874227
6573.472472183395,0.006155330295321697
6573.473471955318,0.00607640574086517
6573.474471727241,0.0059976018068432545
6573.475471499163,0.005918943554100121
6573.476471271087,0.005840455594341667
6573.477471043009,0.005762162079760662
6573.478470814932,0.005684086692935369
6573.479470586854,0.0056062526370058855
6573.480470358777,0.005528682626132304
6573.4814701307005,0.005451398876238594
6573.482469902623,0.00537442309604596
6573.483469674546,0.005297776478399287
6573.484469446468,0.005221479691890219
6573.485469218391,0.005145552872780276
6573.486468990314,0.005070015617227369
6573.487468762237,0.004994886973818975
6573.488468534159,0.004920185436415185
6573.489468306082,0.004845928937304755
6573.490468078005,0.004772134840677261
6573.491467849927,0.00469881993641445
6573.492467621851,0.004626000434203815
6573.493467393773,0.0045536919579774945
6573.494467165696,0.004481909540679567
6573.495466937618,0.0044106676193648485
6573.496466709541,0.004339980030632306
6573.4974664814645,0.004269860006396248
6573.498466253387,0.004200320169998387
6573.49946602531,0.004131372532663851
6573.500465797232,0.004063028490304057
6573.501465569155,0.003995298820669255
6573.502465341078,0.003928193680853304
6573.503465113001,0.0038617226051530576
6573.504464884923,0.0037958945032845193
6573.505464656846,0.003730717658957758
6573.506464428769,0.0036661997288123843
6573.507464200691,0.0036023477417152817
6573.508463972615,0.00353916809842215
6573.509463744537,0.0034766665716043197
6573.51046351646,0.0034148483062421725
6573.511463288382,0.0033537178203863916
6573.512463060305,0.003293279006288157
6573.5134628322285,0.00323353513189928
6573.514462604151,0.0031744888427431488
6573.515462376074,0.003116142164157238
6573.516462147996,0.0030584965039078026
6573.517461919919,0.003001552655177195
6573.518461691842,0.002945310799924093
6573.519461463765,0.0028897705126166755
6573.520461235687,0.0028349307643385337
6573.52146100761,0.002780789927266863
6573.522460779533,0.0027273457795221594
6573.523460551456,0.0026745955103883163
6573.524460323379,0.0026225357259015893
6573.525460095301,0.002571162454806396
6573.526459867224,0.0025204711548753086
6573.527459639146,0.002470456719589984
6573.528459411069,0.002421113485179163
6573.5294591829925,0.002372435238009322
6573.530458954915,0.0023244152223231753
6573.531458726838,0.0022770461483209614
6573.53245849876,0.002230320200579364
6573.533458270683,0.0021842290468029706
6573.534458042606,0.0021387638469033
6573.535457814529,0.002093915262400585
6573.536457586451,0.002049673466143602
6573.537457358374,0.0020060281523429013
6573.538457130297,0.001962968546912747
6573.539456902219,0.0019204834181170104
6573.540456674143,0.0018785610875141263
6573.541456446065,0.001837189441196116
6573.542456217988,0.0017963559413165517
6573.54345598991,0.001756047637902281
6573.544455761833,0.0017162511809436722
6573.5454555337565,0.00167695283275812
6573.546455305679,0.0016381384806215334
6573.547455077602,0.0015997936496625128
6573.548454849524,0.0015619035160139268
6573.549454621447,0.0015244529202165637
6573.55045439337,0.001487426380869497
6573.551454165293,0.0014508081085216778
6573.552453937215,0.0014145820197990963
6573.553453709138,0.0013787317517615766
6573.554453481061,0.001343240676482879
6573.555453252984,0.001308091915847271
6573.556453024907,0.0012732683565550803
6573.557452796829,0.0012387526653289838
6573.558452568752,0.001204527304311987
6573.559452340674,0.0011705745466472277
6573.560452112597,0.0011368764922289373
6573.5614518845205,0.0011034150836131326
6573.562451656443,0.0010701721220758844
6573.563451428366,0.0010371292838063399
6573.564451200288,0.0010042681362210726
6573.565450972211,0.0009715701543857825
6573.566450744134,0.0009390167375298773
6573.567450516057,0.0009065892256390238
6573.568450287979,0.0008742689161103606
6573.569450059902,0.0008420370804546996
6573.570449831825,0.00080987498102971
6573.571449603748,0.000777763887787752
6573.572449375671,0.0007456850950216791
6573.573449147593,0.0007136199380915647
6573.574448919516,0.0006815498101148788
6573.575448691438,0.0006494561786021764
6573.576448463361,0.0006173206020198269
6573.5774482352845,0.0005851247462607157
6573.578448007207,0.0005528504010031856
6573.57944777913,0.0005204794959377306
6573.580447551052,0.0004879941168401628
6573.581447322975,0.00045537652146920295
6573.582447094898,0.00042260915526579843
6573.583446866821,0.0003896746668310449
6573.584446638743,0.00035655592315940286
6573.585446410666,0.00032323602460397757
6573.586446182589,0.00028969831955094605
6573.587445954512,0.00025592641878076594
6573.588445726435,0.00022190420949455165
6573.589445498357,0.0001876158689849274
6573.59044527028,0.0001530458779317114
6573.591445042202,0.00011817903330391943
6573.592444814125,8.300046085077048e-05
6573.5934445860485,4.749562716562225e-05
6573.594444357971,1.1650351308037531e-05
6573.595444129894,-2.454918402954085e-05
6573.596443901816,-6.111642182276991e-05
6573.597443673739,-9.806442049507443e-05
6573.598443445662,-0.0001354058441858287
6573.599443217585,-0.00017315295351567642
6573.600442989507,-0.00021131759685640036
6573.60144276143,-0.0002499112021115182
6573.602442533353,-0.00028894476901253054
6573.603442305276,-0.0003284288619344942
6573.604442077199,-0.00036837360323334264
6573.605441849121,-0.0004087886671061403
6573.606441621044,-0.00044968327397422795
6573.607441392966,-0.000491066185388003
6573.60844116489,-0.0005329456994508734
6573.6094409368125,-0.0005753296467587275
6573.610440708735,-0.0006182253868500584
6573.611440480658,-0.0006616398051606858
6573.61244025258,-0.0007055793104758377
6573.613440024503,-0.0007500498328712209
6573.614439796426,-0.0007950568221336492
6573.615439568349,-0.0008406052466508253
6573.616439340271,-0.0008866995927590145
6573.617439112194,-0.000933343864536587
6573.618438884117,-0.0009805415840307614
6573.61943865604,-0.0010282957919043277
6573.620438427963,-0.0010766090484886877
6573.621438199885,-0.001125483435229202
6573.622437971808,-0.0011749205565085817
6573.62343774373,-0.0012249215418339344
6573.624437515654,-0.0012754870483730634
6573.6254372875765,-0.0013266172638257503
6573.626437059499,-0.001378311909616009
6573.627436831422,-0.0014305702443916698
6573.628436603344,-0.0014833910678180961
6573.629436375267,-0.0015367727246532925
6573.63043614719,-0.0015907131090920998
6573.631435919113,-0.0016452096693675403
6573.632435691035,-0.0017002594125976795
6573.633435462958,-0.0017558589098666283
6573.634435234881,-0.0018120043015285542
6573.635435006804,-0.001868691302723825
6573.636434778727,-0.0019259152090966884
6573.637434550649,-0.0019836709027041977
6573.638434322572,-0.002041952858106417
6573.639434094494,-0.0021007551486282505
6573.640433866418,-0.0021600714527835532
6573.6414336383405,-0.002219895060852442
6573.642433410263,-0.002280218881602964
6573.643433182186,-0.0023410354491484975
6573.644432954108,-0.002402336929932441
6573.645432726031,-0.00246411512983191
6573.646432497954,-0.002526361501372303
6573.647432269877,-0.0025890671510447345
6573.648432041799,-0.0026522228467184454
6573.649431813722,-0.002715819025140394
6573.650431585645,-0.0027798457995143067
6573.651431357568,-0.0028442929671515346
6573.652431129491,-0.0029091500171860934
6573.653430901413,-0.0029744061383462825
6573.654430673336,-0.003040050226775296
6573.655430445258,-0.0031060708938932665
6573.656430217182,-0.0031724564742932684
6573.6574299891045,-0.0032391950336639786
6573.658429761027,-0.003306274376732001
6573.65942953295,-0.0033736820552172885
6573.660429304872,-0.0034414053757956535
6573.661429076796,-0.00350943140806304
6573.662428848718,-0.0035777469924969177
6573.663428620641,-0.003646338748410834
6573.664428392563,-0.003715193081898679
6573.665428164486,-0.0037842961937655543
6573.666427936409,-0.003853634087442274
6573.667427708332,-0.003923192576880526
6573.668427480255,-0.003992957294425665
6573.669427252177,-0.00406291369866399
6573.6704270241,-0.0041330470822412944
6573.671426796022,-0.00420334257964946
6573.672426567946,-0.004273785174977811
6573.6734263398685,-0.004344359709625991
6573.674426111791,-0.00441505088997518
6573.675425883714,-0.004485843295014567
6573.676425655636,-0.004556721383920138
6573.677425427559,-0.004627669503583053
6573.678425199482,-0.004698671896085106
6573.679424971405,-0.004769712706119068
6573.680424743327,-0.004840775988351966
6573.68142451525,-0.0049118457147296676
6573.682424287173,-0.004982905781721348
6573.683424059096,-0.0050539400175025305
6573.684423831019,-0.005124932189075457
6573.685423602941,-0.005195866009325444
6573.686423374864,-0.005266725144011736
6573.687423146786,-0.00533749321869131
6573.68842291871,-0.005408153825573994
6573.6894226906325,-0.005478690530307325
6573.690422462555,-0.005549086878689706
6573.691422234478,-0.005619326403310598
6573.6924220064,-0.005689392630116716
6573.693421778324,-0.005759269084903411
6573.694421550246,-0.005828939299730549
6573.695421322169,-0.0058983868192623
6573.696421094091,-0.005967595207030197
6573.697420866014,-0.006036548051618822
6573.698420637937,-0.006105228972773259
6573.69942040986,-0.006173621627427329
6573.700420181783,-0.006241709715651451
6573.701419953705,-0.006309476986518866
6573.702419725628,-0.00637690724388879
6573.70341949755,-0.006443984352105075
6573.704419269474,-0.006510692241608873
6573.705419041396,-0.006577014914463794
6573.706418813319,-0.0066429364497921205
6573.707418585242,-0.006708441009120716
6573.708418357164,-0.006773512841635355
6573.709418129088,-0.006838136289342397
6573.71041790101,-0.006902295792136787
6573.711417672933,-0.006965975892775453
6573.712417444855,-0.0070291612417552295
6573.713417216778,-0.007091836602094419
6573.714416988701,-0.00715398685401712
6573.715416760624,-0.00721559699953943
6573.716416532547,-0.007276652166956643
6573.717416304469,-0.007337137615230572
6573.718416076392,-0.007397038738276177
6573.719415848314,-0.0074563410691467855
6573.720415620238,-0.007515030284117292
6573.72141539216,-0.0075730922066649465
6573.722415164083,-0.007630512811347531
6573.723414936006,-0.007687278227579043
6573.724414707928,-0.007743374743303303
6573.725414479852,-0.007798788808566301
6573.726414251774,-0.007853507038988447
6573.727414023697,-0.007907516219138313
6573.728413795619,-0.007960803305809746
6573.729413567542,-0.008013355431204626
6573.730413339465,-0.008065159906023847
6573.731413111388,-0.008116204222469343
6573.732412883311,-0.008166476057160157
6573.733412655233,-0.008215963273965622
6573.734412427156,-0.008264653926758727
6573.735412199078,-0.008312536262092595
6573.736411971002,-0.008359598721802806
6573.737411742924,-0.008405829945538089
6573.738411514847,-0.00845121877322157
6573.73941128677,-0.008495754247444559
6573.740411058692,-0.008539425615794509
6573.741410830616,-0.008582222333118547
6573.742410602538,-0.008624134063723704
6573.743410374461,-0.008665150683514799
6573.744410146383,-0.008705262282070745
6573.745409918306,-0.008744459164659909
6573.7464096902295,-0.008782731854195092
6573.747409462152,-0.008820071093128582
6573.748409234075,-0.008856467845287633
6573.749409005997,-0.00889191329765066
6573.75040877792,-0.008926398862064372
6573.751408549842,-0.008959916176901924
6573.752408321766,-0.00899245710866215
6573.753408093688,-0.009024013753509745
6573.754407865611,-0.009054578438756298
6573.755407637534,-0.009084143724281858
6573.756407409456,-0.009112702403896755
6573.75740718138,-0.00914024750664328
6573.758406953302,-0.009166772298036816
6573.759406725225,-0.009192270281245982
6573.760406497147,-0.009216735198211387
6573.76140626907,-0.0092401610307026
6573.762406040993,-0.009262542001313056
6573.763405812916,-0.009283872574392622
6573.764405584839,-0.009304147456917652
6573.765405356761,-0.009323361599298237
6573.766405128684,-0.009341510196122354
6573.767404900606,-0.009358588686836446
6573.76840467253,-0.009374592756361832
6573.769404444452,-0.00938951833564615
6573.770404216375,-0.009403361602148939
6573.771403988298,-0.009416118980260263
6573.77240376022,-0.009427787141651153
6573.773403532144,-0.0094383630055545
6573.774403304066,-0.009447843738974858
6573.775403075989,-0.009456226756825486
6573.776402847911,-0.009463509721990776
6573.777402619834,-0.009469690545312142
6573.7784023917575,-0.009474767385495271
6573.77940216368,-0.009478738648936573
6573.780401935603,-0.009481602989466563
6573.781401707525,-0.009483359308007868
6573.782401479448,-0.009484006752145478
6573.78340125137,-0.00948354471560686
6573.784401023294,-0.00948197283764952
6573.785400795216,-0.009479291002353639
6573.786400567139,-0.009475499337817496
6573.787400339062,-0.00947059821525344
6573.788400110984,-0.009464588247982422
6573.789399882908,-0.009457470290325306
6573.79039965483,-0.009449245436389437
6573.791399426753,-0.00943991501874934
6573.792399198675,-0.009429480607020873
6573.793398970598,-0.00941794400632866
6573.7943987425215,-0.009405307255667272
6573.795398514444,-0.009391572626157193
6573.796398286367,-0.009376742619197354
6573.797398058289,-0.0093608199645166
6573.798397830212,-0.009343807618127113
6573.799397602135,-0.009325708760183403
6573.800397374058,-0.009306526792750935
6573.80139714598,-0.009286265337488718
6573.802396917903,-0.009264928233250327
6573.803396689826,-0.00924251953360776
6573.804396461748,-0.00921904350430251
6573.805396233672,-0.009194504620628242
6573.806396005594,-0.009168907564749574
6573.807395777517,-0.009142257222961693
6573.808395549439,-0.009114558682895887
6573.809395321362,-0.009085817230676384
6573.8103950932855,-0.009056038348034182
6573.811394865208,-0.009025227709383722
6573.812394637131,-0.008993391178868337
6573.813394409053,-0.008960534807380391
6573.814394180976,-0.008926664829561937
6573.815393952898,-0.008891787660791437
6573.816393724822,-0.008855909894162031
6573.817393496744,-0.008819038297456477
6573.818393268667,-0.00878117981012369
6573.81939304059,-0.008742341540261473
6573.820392812512,-0.008702530761609683
6573.821392584436,-0.008661754910557595
6573.822392356358,-0.008620021583168797
6573.823392128281,-0.008577338532226371
6573.824391900203,-0.008533713664300644
6573.825391672126,-0.008489155036841247
6573.8263914440495,-0.008443670855294868
6573.827391215972,-0.008397269470249637
6573.828390987895,-0.008349959374606832
6573.829390759817,-0.00830174920078041
6573.83039053174,-0.00825264771792467
6573.831390303663,-0.008202663829190231
6573.832390075586,-0.00815180656900833
6573.833389847508,-0.008100085100403245
6573.834389619431,-0.008047508712332516
6573.835389391354,-0.007994086817054408
6573.836389163276,-0.007939828947521932
6573.8373889352,-0.00788474475480261
6573.838388707122,-0.007828844005523018
6573.839388479045,-0.0077721365793370295
6573.840388250967,-0.007714632466416618
6573.84138802289,-0.007656341764963951
6573.8423877948135,-0.007597274678743502
6573.843387566736,-0.007537441514632847
6573.844387338659,-0.007476852680190832
6573.845387110581,-0.007415518681241771
6573.846386882504,-0.007353450119474379
6573.847386654427,-0.007290657690054128
6573.84838642635,-0.00722715217924774
6573.849386198272,-0.007162944462058566
6573.850385970195,-0.007098045499871647
6573.851385742118,-0.007032466338107294
6573.85238551404,-0.0069662181038821006
6573.853385285964,-0.006899312003676334
6573.854385057886,-0.006831759321006731
6573.855384829809,-0.006763571414103779
6573.856384601731,-0.006694759713592595
6573.857384373654,-0.006625335720176542
6573.8583841455775,-0.0065553110023227525
6573.8593839175,-0.006484697193948731
6573.860383689423,-0.006413505992109178
6573.861383461345,-0.006341749154682185
6573.862383233268,-0.006269438498053957
6573.863383005191,-0.006196585894801151
6573.864382777114,-0.006123203271369984
6573.865382549036,-0.006049302605751231
6573.866382320959,-0.005974895925150264
6573.867382092882,-0.005899995303651294
6573.868381864804,-0.005824612859875031
6573.869381636728,-0.005748760754628965
6573.87038140865,-0.005672451188549513
6573.871381180573,-0.005595696399735322
6573.872380952495,-0.00551850866137098
6573.873380724418,-0.005440900279340449
6573.8743804963415,-0.005362883589829523
6573.875380268264,-0.005284470956916612
6573.876380040187,-0.005205674770151186
6573.877379812109,-0.005126507442119192
6573.878379584032,-0.005046981405994775
6573.879379355955,-0.004967109113077652
6573.880379127878,-0.004886903030315473
6573.8813788998,-0.00480637563781057
6573.882378671723,-0.004725539426310535
6573.883378443646,-0.004644406894682159
6573.884378215569,-0.0045629905473683575
6573.885377987492,-0.00448130289182785
6573.886377759414,-0.004399356435957539
6573.887377531337,-0.0043171636854977035
6573.888377303259,-0.004234737141420299
6573.889377075182,-0.004152089297300879
6573.8903768471055,-0.004069232636674765
6573.891376619028,-0.003986179630378276
6573.892376390951,-0.003902942733875932
6573.893376162873,-0.003819534384574655
6573.894375934796,-0.003735966999126086
6573.895375706719,-0.0036522529707182644
6573.896375478642,-0.0035684046663580133
6573.897375250564,-0.0034844344241455453
6573.898375022487,-0.0034003545505429753
6573.89937479441,-0.003316177317638622
6573.900374566332,-0.0032319149604091656
6573.901374338256,-0.0031475796739819303
6573.902374110178,-0.003063183610899649
6573.903373882101,-0.002978738878390132
6573.904373654023,-0.002894257535643249
6573.905373425946,-0.0028097515910975833
6573.9063731978695,-0.0027252329997390556
6573.907372969792,-0.0026407136604137383
6573.908372741715,-0.0025562054131570075
6573.909372513637,-0.0024717200365410898
6573.91037228556,-0.0023872692450429794
6573.911372057483,-0.0023028646864346053
6573.912371829406,-0.002218517939197019
6573.913371601328,-0.002134240509960286
6573.914371373251,-0.0020500438309706405
6573.915371145174,-0.0019659392575862994
6573.916370917097,-0.001881938065803167
6573.91737068902,-0.0017980514498114224
6573.918370460942,-0.001714290519583748
6573.919370232865,-0.0016306662984957386
6573.920370004787,-0.0015471897209788838
6573.92136977671,-0.0014638716302064474
6573.9223695486335,-0.001380722775812597
6573.923369320556,-0.0012977538116452643
6573.924369092479,-0.0012149752935533846
6573.925368864401,-0.0011323976772093874
6573.926368636324,-0.0010500313159680036
6573.927368408247,-0.0009678864587626506
6573.92836818017,-0.000885973248040791
6573.929367952092,-0.0008043017177397387
6573.930367724015,-0.0007228817913043905
6573.931367495938,-0.0006417232797483231
6573.932367267861,-0.0005608358797596363
6573.933367039784,-0.0004802291718528681
6573.934366811706,-0.0003999126185682799
6573.935366583629,-0.00031989556271980445
6573.936366355551,-0.0002401872256929334
6573.937366127474,-0.00016079670579380006
6573.9383658993975,-8.173297665066007e-05
6573.93936567132,-3.0048856689062777e-06
6573.940365443243,7.537884745933094e-05
6573.941365215165,0.00015340963219004575
6573.942364987088,0.00023107900850584788
6573.943364759011,0.00030837864823739285
6573.944364530934,0.0003853003563272291
6573.945364302856,0.00046183607203572664
6573.946364074779,0.0005379778700889514
6573.947363846702,0.000613717961768557
6573.948363618625,0.000689048695943972
6573.949363390548,0.0007639625600473706
6573.95036316247,0.0008384521809921115
6573.951362934393,0.00091251032603551
6573.952362706315,0.0009861299035869551
6573.953362478238,0.0010593039639624918
6573.9543622501615,0.0011320257000870307
6573.955362022084,0.0012042884481453513
6573.956361794007,0.001276085688183022
6573.957361565929,0.001347411044658286
6573.958361337852,0.0014182582869458821
6573.959361109775,0.0014886213297936688
6573.960360881698,0.0015584942337327978
6573.96136065362,0.0016278712054420654
6573.962360425543,0.0016967465980669153
6573.963360197466,0.00176511491149341
6573.964359969389,0.0018329707925773282
6573.965359741312,0.0019003090353284355
6573.966359513234,0.001967124581049916
6573.967359285157,0.00203341251843299
6573.968359057079,0.0020991680836068565
6573.969358829003,0.0021643866601442543
6573.9703586009255,0.0022290637790231523
6573.971358372848,0.002293195118545261
6573.972358144771,0.0023567765042122797
6573.973357916693,0.0024198039085609694
6573.974357688616,0.0024822734509582734
6573.975357460539,0.0025441813973578176
6573.976357232462,0.002605524160019145
6573.977357004384,0.0026662982971910453
6573.978356776307,0.0027265005127602923
6573.97935654823,0.0027861276558670666
6573.980356320153,0.0028451767204882806
6573.981356092076,0.002903644844990015
6573.982355863998,0.0029615293116502395
6573.983355635921,0.0030188275461529896
6573.984355407843,0.0030755371170551526
6573.985355179767,0.003131655735226991
6573.9863549516895,0.0031871812532674798
6573.987354723612,0.0032421116648954492
6573.988354495535,0.0032964451043174196
6573.989354267457,0.003350179845572873
6573.99035403938,0.003403314301857557
6573.991353811303,0.0034558470248252466
6573.992353583226,0.003507776703868244
6573.993353355148,0.003559102165376723
6573.994353127071,0.0036098223719768993
6573.995352898994,0.003659936421747875
6573.996352670917,0.003709443547416908
6573.99735244284,0.0037583431155327994
6573.998352214762,0.003806634625617005
6573.999351986685,0.0038543177092920803
6574.000351758607,0.0039013921293870424
6574.001351530531,0.003947857779019248
6574.0023513024535,0.003993714680652431
6574.003351074376,0.00403896298513056
6574.004350846299,0.004083602970687232
6574.005350618221,0.0041276350419303335
6574.006350390144,0.0041710597288017555
6574.007350162067,0.004213877685512017
6574.00834993399,0.004256089689449693
6574.009349705912,0.004297696640065618
6574.010349477835,0.004338699557731947
6574.011349249758,0.004379099582576223
6574.012349021681,0.004418897973290698
6574.013348793604,0.004458096105917233
6574.014348565526,0.00449669547260819
6574.015348337449,0.004534697680363768
6574.016348109371,0.004572104449746348
6574.017347881295,0.0046089176135724625
6574.0183476532175,0.004645139115583072
6574.01934742514,0.004680771009092923
6574.020347197063,0.0047158154556198074
6574.021346968985,0.0047502747234946545
6574.022346740909,0.004784151186453435
6574.023346512831,0.0048174473222119835
6574.024346284754,0.004850165711024874
6574.025346056676,0.004882309034229562
6574.026345828599,0.004913880072777004
6574.027345600522,0.004944881705749923
6574.028345372445,0.00497531690886978
6574.029345144368,0.005005188752993365
6574.03034491629,0.005034500402599737
6574.031344688213,0.0050632551142680985
6574.032344460135,0.005091456235147014
6574.033344232059,0.0051191072014153014
6574.0343440039815,0.005146211536734838
6574.035343775904,0.005172772850695432
6574.036343547827,0.005198794837251803
6574.037343319749,0.005224281273152601
6574.038343091672,0.005249236016361178
6574.039342863595,0.005273663004467721
6574.040342635518,0.005297566253092204
6574.04134240744,0.005320949854277567
6574.042342179363,0.005343817974872531
6574.043341951286,0.005366174854903544
6574.044341723209,0.005388024805935446
6574.045341495132,0.005409372209420537
6574.046341267054,0.005430221515035896
6574.047341038977,0.005450577239008834
6574.048340810899,0.005470443962430513
6574.049340582823,0.005489826329557799
6574.0503403547455,0.005508729046103489
6574.051340126668,0.005527156877514984
6574.052339898591,0.0055451146472414795
6574.053339670513,0.005562607234989502
6574.054339442437,0.005579639574966453
6574.055339214359,0.0055962166541115
6574.056338986282,0.0056123435103128975
6574.057338758204,0.005628025230610597
6574.058338530127,0.005643266949382822
6574.05933830205,0.0056580738465153045
6574.060338073973,0.005672451145551917
6574.061337845896,0.005686404111825656
6574.062337617818,0.0056999380505691755
6574.063337389741,0.005713058305004364
6574.064337161663,0.005725770254410734
6574.065336933587,0.005738079312172701
6574.0663367055095,0.005749990923806071
6574.067336477432,0.005761510564964305
6574.068336249355,0.005772643739425358
6574.069336021277,0.005783395977060011
6574.070335793201,0.005793772831782752
6574.071335565123,0.005803779879486341
6574.072335337046,0.0058134227159611935
6574.073335108968,0.005822706954800743
6574.074334880891,0.005831638225293947
6574.075334652814,0.005840222170306069
6574.076334424737,0.0058484644441489765
6574.07733419666,0.005856370710442193
6574.078333968582,0.005863946639966062
6574.079333740505,0.0058711979085084845
6574.080333512427,0.005878130194706827
6574.081333284351,0.0058847491778867295
6574.0823330562735,0.005891060535899685
6574.083332828196,0.005897069942961349
6574.084332600119,0.005902783067492689
6574.085332372041,0.005908205569966198
6574.086332143965,0.0059133431007594665
6574.087331915887,0.005918201298018559
6574.08833168781,0.005922785785533701
6574.089331459732,0.005927102170629873
6574.090331231655,0.0059311560420749875
6574.091331003578,0.005934952968008383
6574.092330775501,0.0059384984938924195
6574.093330547424,0.005941798140490055
6574.094330319346,0.005944857401871268
6574.095330091269,0.005947681743451255
6574.096329863191,0.005950276600063331
6574.097329635115,0.00595264737406939
6574.098329407037,0.005954799433510723
6574.09932917896,0.005956738110301714
6574.100328950883,0.005958468698468643
6574.101328722805,0.005959996452435347
6574.102328494729,0.0059613265853569715
6574.103328266651,0.005962464267502412
6574.104328038574,0.005963414624685465
6574.105327810496,0.005964182736744168
6574.106327582419,0.005964773636067385
6574.107327354343,0.005965192306167381
6574.108327126265,0.005965443680296962
6574.109326898188,0.005965532640109757
6574.11032667011,0.005965464014362281
6574.111326442033,0.005965242577656564
6574.112326213955,0.005964873049222264
6574.113325985879,0.005964360091737292
6574.114325757801,0.005963708310186052
6574.115325529724,0.005962922250754437
6574.116325301647,0.005962006399760754
6574.117325073569,0.005960965182621744
6574.118324845493,0.005959802962852878
6574.119324617415,0.005958524041102115
6574.120324389338,0.005957132654216302
6574.12132416126,0.005955632974339436
6574.122323933183,0.005954029108042076
6574.123323705106,0.005952325095481251
6574.124323477029,0.005950524909590329
6574.125323248952,0.005948632455298417
6574.126323020874,0.005946651568778954
6574.127322792797,0.005944586016727206
6574.128322564719,0.005942439495666413
6574.129322336643,0.005940215631282359
6574.130322108565,0.005937917977786202
6574.131321880488,0.00593555001730547
6574.132321652411,0.0059331151593032695
6574.133321424333,0.005930616740025892
6574.134321196257,0.005928058021979118
6574.135320968179,0.005925442193433589
6574.136320740102,0.005922772367959597
6574.137320512024,0.005920051583991621
6574.138320283947,0.00591728280442278
6574.139320055871,0.005914468916229255
6574.140319827793,0.005911612730124628
6574.141319599716,0.00590871698024402
6574.142319371638,0.00590578432385792
6574.143319143561,0.0059028173411156855
6574.144318915483,0.005899818534818771
6574.145318687407,0.005896790330223878
6574.146318459329,0.0058937350748763
6574.147318231252,0.0058906550384738195
6574.148318003175,0.00588755241276152
6574.149317775097,0.005884429311457932
6574.150317547021,0.005881287770212915
6574.151317318943,0.005878129746597606
6574.152317090866,0.005874957120126686
6574.153316862788,0.005871771692312983
6574.154316634711,0.005868575186754228
6574.1553164066345,0.005865369249251427
6574.156316178557,0.00586215544795804
6574.15731595048,0.005858935273558932
6574.158315722402,0.005855710139477874
6574.159315494325,0.005852481382112392
6574.160315266248,0.005849250261094757
6574.161315038171,0.005846017959578007
6574.162314810093,0.005842785584545968
6574.163314582016,0.005839554167146339
6574.164314353939,0.005836324663045939
6574.165314125861,0.005833097952807264
6574.166313897785,0.0058298748422854615
6574.167313669707,0.0058266560630447295
6574.16831344163,0.005823442272792996
6574.169313213552,0.005820234055833511
6574.170312985475,0.005817031923531749
6574.171312757399,0.005813836314795735
6574.172312529321,0.005810647596567699
6574.173312301244,0.005807466064324669
6574.174312073166,0.005804291942585297
6574.175311845089,0.0058011253854198695
6574.176311617011,0.005797966476959946
6574.177311388935,0.005794815231903676
6574.178311160857,0.005791671596012424
6574.17931093278,0.005788535446594008
6574.180310704703,0.0057854065929676774
6574.181310476625,0.0057822847769059636
6574.182310248549,0.005779169673048665
6574.183310020471,0.0057760608892845795
6574.184309792394,0.005772957967097023
6574.185309564316,0.005769860381869738
6574.186309336239,0.0057667675431503865
6574.1873091081625,0.005763678794869398
6574.188308880085,0.005760593415512538
6574.189308652008,0.005757510618246057
6574.19030842393,0.0057544295509937594
6574.191308195853,0.00575134929646571
6574.192307967776,0.005748268872138632
6574.193307739699,0.005745187230188307
6574.194307511621,0.005742103257374471
6574.195307283544,0.0057390157748787776
6574.196307055467,0.005735923538096436
6574.197306827389,0.005732825236381993
6574.198306599313,0.005729719492749605
6574.199306371235,0.005726604863527831
6574.200306143158,0.005723479837968858
6574.20130591508,0.005720342837811847
6574.202305687003,0.00571719221680002
6574.203305458927,0.005714026260151217
6574.204305230849,0.005710843183981715
6574.205305002772,0.005707641134683428
6574.206304774694,0.005704418188254823
6574.207304546617,0.005701172349586188
6574.20830431854,0.005697901551700191
6574.209304090463,0.005694603654948944
6574.210303862385,0.005691276446169019
6574.211303634308,0.005687917637796058
6574.212303406231,0.005684524866940873
6574.213303178153,0.0056810956944290435
6574.214302950077,0.005677627603806246
6574.215302721999,0.005674118000311671
6574.216302493922,0.0056705642098220195
6574.217302265844,0.005666963477768634
6574.218302037767,0.005663312968030448
6574.2193018096905,0.005659609761805455
6574.220301581613,0.005655850856463579
6574.221301353536,0.005652033164383854
6574.222301125458,0.005648153511778991
6574.223300897381,0.005644208637510535
6574.224300669304,0.0056401951918979105
6574.225300441227,0.0056361097355248435
6574.226300213149,0.005631948738046744
6574.227299985072,0.00562770857700277
6574.228299756995,0.005623385536636391
6574.229299528917,0.0056189758067283525
6574.230299300841,0.005614475481445978
6574.231299072763,0.005609880558212802
6574.232298844686,0.005605186936602504
6574.233298616608,0.005600390417261166
6574.234298388531,0.005595486700861796
6574.235298160455,0.005590471387095122
6574.236297932377,0.005585339973700591
6574.2372977043,0.005580087855541496
6574.238297476222,0.00557471032372813
6574.239297248145,0.005569202564792838
6574.240297020068,0.005563559659920819
6574.241296791991,0.0055577765842405365
6574.242296563913,0.005551848206177577
6574.243296335836,0.005545769286875799
6574.244296107759,0.005539534479689597
6574.245295879682,0.005533138329751081
6574.246295651605,0.005526575273615895
6574.247295423527,0.005519839638991249
6574.24829519545,0.005512925644549631
6574.249294967372,0.0055058273998314184
6574.250294739295,0.005498538905239437
6574.2512945112185,0.005491054052128254
6574.252294283141,0.00548336662299084
6574.253294055064,0.005475470291745003
6574.254293826986,0.0054673586241219116
6574.255293598909,0.0054590250781588676
6574.256293370832,0.005450463004798425
6574.257293142755,0.005441665648595906
6574.258292914677,0.005432626148537368
6574.2592926866,0.005423337538970032
6574.260292458523,0.005413792750647272
6574.261292230445,0.00540398461189026
6574.262292002369,0.005393905849868411
6574.263291774291,0.0053835490920007755
6574.264291546214,0.0053729068674804575
6574.265291318136,0.00536197160892408
6574.266291090059,0.005350735654148127
6574.267290861983,0.005339191248073784
6574.268290633905,0.005327330544761633
6574.269290405828,0.005315145609577337
6574.27029017775,0.005302628421489251
6574.271289949673,0.005289770875498767
6574.272289721596,0.005276564785204083
6574.273289493519,0.00526300188549808
6574.274289265441,0.005249073835400928
6574.275289037364,0.005234772221028031
6574.276288809287,0.005220088558693874
6574.27728858121,0.00520501429815227
6574.278288353133,0.005189540825973499
6574.279288125055,0.0051736594690587326
6574.280287896978,0.005157361498292157
6574.2812876689,0.005140638132331119
6574.282287440823,0.005123480541534613
6574.2832872127465,0.005105879852030352
6574.284286984669,0.005087827149920587
6574.285286756592,0.005069313485626756
6574.286286528514,0.005050329878372949
6574.287286300437,0.0050308673208081245
6574.28828607236,0.005010916783766955
6574.289285844283,0.00499046922116913
6574.290285616205,0.004969515575056892
6574.291285388128,0.004948046780770465
6574.292285160051,0.0049260537722609216
6574.293284931974,0.004903527487539801
6574.294284703897,0.00488045887426461
6574.295284475819,0.004856838895459146
6574.296284247742,0.004832658535367414
6574.297284019664,0.004807908805439861
6574.298283791587,0.004782580750450565
6574.299283563511,0.004756665454744022
6574.300283335433,0.004730154048610126
6574.301283107356,0.004703037714785842
6574.302282879278,0.004675307695081961
6574.303282651201,0.004646955297133126
6574.304282423124,0.004617971901269063
6574.305282195047,0.004588348967504636
6574.306281966969,0.004558078042645987
6574.307281738892,0.0045271507675096355
6574.308281510815,0.0044955588842509955
6574.309281282738,0.004463294243798379
6574.310281054661,0.004430348813388124
6574.311280826583,0.004396714684196119
6574.312280598506,0.004362384079060564
6574.313280370428,0.004327349360290485
6574.314280142351,0.004291603037554159
6574.3152799142745,0.004255137775841236
6574.316279686197,0.004217946403492
6574.31727945812,0.0041800219202867825
6574.318279230042,0.004141357505588063
6574.319279001965,0.004101946526527301
6574.320278773888,0.004061782546228008
6574.321278545811,0.004020859332056087
6574.322278317733,0.003979170863887999
6574.323278089656,0.003936711342386831
6574.324277861579,0.003893475197275958
6574.325277633502,0.003849457095599502
6574.326277405425,0.0038046519499584075
6574.327277177347,0.0037590549267104817
6574.32827694927,0.0037126614541223525
6574.329276721192,0.0036654672304608856
6574.330276493116,0.0036174682320112123
6574.331276265039,0.003568660721008138
6574.332276036961,0.0035190412534673574
6574.333275808884,0.0034686066869025626
6574.334275580806,0.0034173541879142337
6574.335275352729,0.003365281239635632
6574.336275124652,0.0033123856490212622
6574.337274896575,0.0032586655539628712
6574.338274668497,0.003204119430217851
6574.33927444042,0.0031487460981348145
6574.340274212343,0.0030925447291610033
6574.341273984266,0.0030355148521162088
6574.342273756189,0.0029776563592180125
6574.343273528111,0.002918969511843417
6574.344273300034,0.0028594549460123453
6574.345273071956,0.0027991136775790313
6574.34627284388,0.0027379471071179453
6574.3472726158025,0.0026759570244916393
6574.348272387725,0.002613145613088724
6574.349272159648,0.0025495154537211106
6574.35027193157,0.002485069528170693
6574.351271703493,0.0024198112223767602
6574.352271475416,0.0023537443292565336
6574.353271247339,0.0022868730511523797
6574.354271019261,0.002219202001900397
6574.355270791184,0.0021507362085161925
6574.356270563107,0.0020814811124947753
6574.35727033503,0.002011442570722557
6574.358270106953,0.0019406268560004513
6574.359269878875,0.0018690406571779754
6574.360269650798,0.001796691078899103
6574.36126942272,0.0017235856409614186
6574.362269194644,0.0016497322772909197
6574.363268966567,0.0015751393345356216
6574.364268738489,0.0014998155702819693
6574.365268510412,0.0014237701508989136
6574.366268282334,0.0013470126490153975
6574.367268054257,0.0012695530406378465
6574.36826782618,0.001191401701915005
6574.369267598103,0.0011125694055580508
6574.370267370025,0.001033067316924282
6574.371267141948,0.000952906989772814
6574.372266913871,0.0008721003617006517
6574.373266685794,0.0007906597492673119
6574.374266457717,0.0007085978428158945
6574.375266229639,0.000625927700998289
6574.376266001562,0.0005426627450121097
6574.377265773484,0.00045881675255703597
6574.378265545408,0.00037440385151848196
6574.3792653173305,0.0002894385133868555
6574.380265089253,0.00020393554642101833
6574.381264861176,0.00011791008856486977
6574.382264633098,3.137760012620229e-05
6574.383264405022,-5.56461437728883e-05
6574.384264176944,-0.0001431450609647217
6574.385263948867,-0.00023110277021460763
6574.386263720789,-0.00031950259940009
6574.387263492712,-0.0004083275938817699
6574.388263264635,-0.0004975605250566916
6574.389263036558,-0.0005871838990853274
6574.390262808481,-0.0006771799657832253
6574.391262580403,-0.0007675307276684036
6574.392262352326,-0.0008582179491555987
6574.393262124248,-0.0009492231658885044
6574.394261896172,-0.0010405276942011888
6574.395261668095,-0.0011321126406999256
6574.396261440017,-0.0012239589119567467
6574.39726121194,-0.001316047224306074
6574.398260983862,-0.001408358113735846
6574.399260755785,-0.0015008719458645837
6574.400260527708,-0.0015935689259958927
6574.401260299631,-0.0016864291092419516
6574.402260071553,-0.0017794324107076238
6574.403259843476,-0.001872558615726929
6574.404259615399,-0.00196578739014372
6574.405259387322,-0.0020590982906285122
6574.406259159245,-0.0021524707750234994
6574.407258931167,-0.00224588421270786
6574.40825870309,-0.0023393178949755395
6574.409258475012,-0.0024327510454177897
6574.410258246936,-0.0025261628303028458
6574.4112580188585,-0.0026195323689452423
6574.412257790781,-0.0027128387440573877
6574.413257562704,-0.0028060610120761347
6574.414257334626,-0.0028991782134571847
6574.41525710655,-0.0029921693829302715
6574.416256878472,-0.003085013559708155
6574.417256650395,-0.0031776897976425688
6574.418256422317,-0.0032701771753203502
6574.41925619424,-0.0033624548060930863
6574.420255966163,-0.003454501848033702
6574.421255738086,-0.0035462975138135324
6574.422255510009,-0.0036378210804935357
6574.423255281931,-0.0037290518992234155
6574.424255053854,-0.003819969404842549
6574.425254825776,-0.003910553125376737
6574.4262545977,-0.004000782691424887
6574.427254369623,-0.004090637845429841
6574.428254141545,-0.00418009845082766
6574.429253913468,-0.004269144501069772
6574.43025368539,-0.004357756128512489
6574.431253457314,-0.004445913613168535
6574.432253229236,-0.004533597391315392
6574.433253001159,-0.004620788063955427
6574.434252773081,-0.004707466405123004
6574.435252545004,-0.00479361337003397
6574.436252316927,-0.004879210103073156
6574.43725208885,-0.00496423794561576
6574.438251860773,-0.005048678443678656
6574.439251632695,-0.005132513355397863
6574.440251404618,-0.00521572465832853
6574.44125117654,-0.005298294556563909
6574.442250948464,-0.005380205487669861
6574.4432507203865,-0.005461440129431545
6574.444250492309,-0.005541981406409011
6574.445250264232,-0.0056218124962985365
6574.446250036154,-0.0057009168360966245
6574.447249808078,-0.00577927812806377
6574.44824958,-0.0058568803454852525
6574.449249351923,-0.00593370773822644
6574.450249123845,-0.006009744838080305
6574.451248895768,-0.006084976463905127
6574.452248667691,-0.006159387726550655
6574.453248439614,-0.006232964033571253
6574.454248211537,-0.006305691093724881
6574.455247983459,-0.006377554921257068
6574.456247755382,-0.006448541839969339
6574.457247527304,-0.006518638487071891
6574.458247299228,-0.006587831816820617
6574.459247071151,-0.006656109103938781
6574.460246843073,-0.006723457946823922
6574.461246614996,-0.006789866270540701
6574.462246386918,-0.00685532232960052
6574.463246158842,-0.006919814710528828
6574.464245930764,-0.006983332334221078
6574.465245702687,-0.007045864458088304
6574.466245474609,-0.007107400677993351
6574.467245246532,-0.007167930929978738
6574.468245018456,-0.0072274454917872185
6574.469244790378,-0.007285934984176163
6574.470244562301,-0.007343390372026959
6574.471244334223,-0.007399802965250789
6574.472244106146,-0.007455164419492468
6574.473243878068,-0.007509466736634399
6574.474243649992,-0.0075627022651031965
6574.4752434219145,-0.0076148636999822045
6574.476243193837,-0.0076659440829337355
6574.47724296576,-0.0077159368019355514
6574.478242737682,-0.0077648355908367245
6574.479242509606,-0.007812634528738515
6574.480242281528,-0.007859328039206298
6574.481242053451,-0.007904910889318727
6574.482241825373,-0.007949378188560396
6574.483241597296,-0.007992725387564044
6574.484241369219,-0.00803494827670816
6574.485241141142,-0.008076042984575458
6574.486240913065,-0.008116005976277358
6574.487240684987,-0.00815483405164926
6574.48824045691,-0.008192524343320982
6574.489240228832,-0.008229074314666492
6574.490240000756,-0.008264481757636654
6574.491239772679,-0.008298744790478624
6574.492239544601,-0.008331861855345157
6574.493239316524,-0.008363831715797073
6574.494239088446,-0.008394653454201874
6574.49523886037,-0.008424326469031369
6574.496238632292,-0.008452850472061025
6574.497238404215,-0.008480225485473654
6574.498238176137,-0.008506451838869908
6574.49923794806,-0.008531530166187974
6574.500237719984,-0.008555461402534763
6574.501237491906,-0.008578246780930767
6574.502237263829,-0.008599887828970719
6574.503237035751,-0.008620386365402105
6574.504236807674,-0.008639744496623587
6574.505236579596,-0.008657964613105376
6574.50623635152,-0.008675049385733689
6574.507236123442,-0.008691001762081433
6574.508235895365,-0.008705824962607288
6574.509235667288,-0.008719522476785327
6574.51023543921,-0.008732098059167245
6574.511235211134,-0.008743555725379137
6574.512234983056,-0.008753899748054619
6574.513234754979,-0.008763134652705932
6574.514234526901,-0.008771265213534558
6574.515234298824,-0.008778296449182713
6574.516234070748,-0.008784233618427008
6574.51723384267,-0.008789082215815508
6574.518233614593,-0.008792847967249303
6574.519233386515,-0.008795536825509714
6574.520233158438,-0.008797154965732202
6574.521232930361,-0.008797708780828035
6574.522232702284,-0.008797204876854788
6574.523232474206,-0.008795650068336741
6574.524232246129,-0.008793051373536236
6574.525232018052,-0.00878941600967701
6574.526231789974,-0.008784751388120574
6574.527231561898,-0.008779065109496637
6574.52823133382,-0.008772364958788628
6574.529231105743,-0.008764658900375352
6574.530230877665,-0.008755955073029875
6574.531230649588,-0.008746261784876763
6574.532230421512,-0.008735587508308823
6574.533230193434,-0.008723940874864559
6574.534229965357,-0.008711330670067558
6574.535229737279,-0.008697765828229103
6574.536229509202,-0.008683255427215342
6574.537229281124,-0.008667808683180381
6574.538229053048,-0.008651434945266647
6574.53922882497,-0.008634143690273917
6574.540228596893,-0.008615944517298392
6574.541228368816,-0.008596847142343244
6574.542228140738,-0.008576861392902035
6574.543227912662,-0.008555997202516439
6574.544227684584,-0.008534264605309714
6574.545227456507,-0.008511673730497358
6574.546227228429,-0.008488234796876427
6574.547227000352,-0.008463958107294956
6574.548226772276,-0.008438854043103024
6574.549226544198,-0.008412933058586937
6574.550226316121,-0.008386205675388198
6574.551226088043,-0.008358682476909001
6574.552225859966,-0.008330374102706248
6574.553225631889,-0.008301291242876367
6574.554225403812,-0.00827144463243359
6574.555225175734,-0.008240845045684762
6574.556224947657,-0.008209503290604233
6574.55722471958,-0.008177430203212778
6574.558224491502,-0.008144636641964884
6574.559224263426,-0.008111133482149058
6574.560224035348,-0.008076931610305893
6574.561223807271,-0.008042041918668762
6574.562223579193,-0.008006475299631858
6574.563223351116,-0.00797024264025021
6574.56422312304,-0.007933354816776124
6574.565222894962,-0.007895822689236295
6574.566222666885,-0.007857657096053659
6574.567222438807,-0.007818868848717984
6574.56822221073,-0.007779468726509056
6574.569221982653,-0.007739467471276247
6574.570221754576,-0.007698875782278219
6574.571221526498,-0.007657704311086423
6574.572221298421,-0.007615963656556013
6574.573221070344,-0.007573664359867711
6574.574220842266,-0.007530816899644076
6574.57522061419,-0.00748743168714363
6574.576220386112,-0.007443519061536252
6574.577220158035,-0.007399089285263365
6574.578219929957,-0.007354152539486523
6574.57921970188,-0.00730871891962818
6574.580219473804,-0.00726279843100865
6574.581219245726,-0.007216400984583429
6574.582219017649,-0.007169536392785217
6574.583218789571,-0.0071222143654750825
6574.584218561494,-0.007074444506007138
6574.585218333417,-0.007026236307411006
6574.58621810534,-0.006977599148696076
6574.587217877262,-0.0069285422912813525
6574.588217649185,-0.006879074875554411
6574.589217421108,-0.006829205917562809
6574.59021719303,-0.006778944305841047
6574.591216964954,-0.006728298798376012
6574.592216736876,-0.006677278019713602
6574.593216508799,-0.00662589045820905
6574.594216280721,-0.0065741444634232074
6574.595216052644,-0.006522048243666838
6574.596215824568,-0.006469609863694721
6574.59721559649,-0.006416837242551092
6574.598215368413,-0.006363738151567698
6574.599215140335,-0.006310320212515467
6574.600214912258,-0.006256590895910509
6574.601214684181,-0.006202557519474937
6574.602214456104,-0.0061482272467527415
6574.603214228026,-0.006093607085880724
6574.604213999949,-0.006038703888514298
6574.605213771872,-0.005983524348907785
6574.606213543795,-0.005928075003148651
6574.607213315718,-0.005872362228544958
6574.60821308764,-0.005816392243165111
6574.609212859563,-0.005760171105528783
6574.610212631485,-0.005703704714447734
6574.611212403408,-0.00564699880901505
6574.612212175332,-0.005590058968741154
6574.613211947254,-0.005532890613834836
6574.614211719177,-0.0054754990056273605
6574.615211491099,-0.005417889247137662
6574.616211263022,-0.0053600662837764495
6574.617211034945,-0.005302034904186984
6574.618210806868,-0.005243799741220169
6574.61921057879,-0.005185365273041502
6574.620210350713,-0.005126735824367352
6574.621210122636,-0.005067915567827942
6574.622209894558,-0.00500890852545436
6574.623209666482,-0.004949718570286817
6574.624209438404,-0.004890349428101314
6574.625209210327,-0.004830804679251821
6574.626208982249,-0.004771087760625
6574.627208754172,-0.004711201967704449
6574.628208526096,-0.004651150456741389
6574.629208298018,-0.0045909362470286635
6574.630208069941,-0.004530562223274833
6574.631207841863,-0.004470031138075153
6574.632207613786,-0.004409345614476133
6574.633207385709,-0.004348508148630349
6574.634207157632,-0.004287521112538165
6574.635206929554,-0.004226386756872935
6574.636206701477,-0.004165107213886286
6574.6372064734,-0.0041036845003899975
6574.638206245323,-0.004042120520811036
6574.639206017246,-0.003980417070316237
6574.640205789168,-0.003918575838003155
6574.641205561091,-0.003856598410153597
6574.642205333013,-0.0037944862735463233
6574.643205104936,-0.003732240818825447
6574.64420487686,-0.0036698633439210425
6574.645204648782,-0.0036073550575185243
6574.646204420705,-0.003544717082573375
6574.647204192627,-0.003481950459867827
6574.64820396455,-0.003419056151606165
6574.649203736473,-0.003356035045045334
6574.650203508396,-0.003292887956157584
6574.651203280318,-0.0032296156333219113
6574.652203052241,-0.003166218761041124
6574.653202824164,-0.003102697963681389
6574.654202596087,-0.0030390538092311967
6574.65520236801,-0.002975286813076733
6574.656202139932,-0.0029113974417907308
6574.657201911855,-0.002847386116931889
6574.658201683777,-0.0027832532188520023
6574.6592014557,-0.002718999090507982
6574.660201227624,-0.0026546240412759635
6574.661200999546,-0.0025901283507647264
6574.662200771469,-0.0025255122726256904
6574.663200543391,-0.0024607760383567605
6574.664200315314,-0.002395919861097306
6574.665200087237,-0.0023309439394115857
6574.66619985916,-0.0022658484610579206
6574.667199631082,-0.002200633606740951
6574.668199403005,-0.002135299553844324
6574.669199174928,-0.002069846480141216
6574.670198946851,-0.002004274567480126
6574.671198718774,-0.0019385840054434377
6574.672198490696,-0.0018727749949763017
6574.673198262619,-0.001806847751983453
6574.674198034541,-0.0017408025108916444
6574.675197806464,-0.0016746395281754677
6574.676197578388,-0.0016083590858444474
6574.67719735031,-0.0015419614948893943
6574.678197122233,-0.0014754470986861254
6574.679196894155,-0.0014088162763547555
6574.680196666078,-0.0013420694460728648
6574.681196438001,-0.001275207068340937
6574.682196209924,-0.0012082296491985414
6574.683195981846,-0.0011411377433898041
6574.684195753769,-0.0010739319574767873
6574.685195525692,-0.0010066129528994493
6574.686195297615,-0.0009391814489809283
6574.687195069538,-0.0008716382258769498
6574.68819484146,-0.0008039841274682164
6574.689194613383,-0.0007362200641946886
6574.690194385305,-0.0006683470158307144
6574.691194157229,-0.0006003660342000025
6574.692193929152,-0.0005322782458294847
6574.693193701074,-0.00046408485454115585
6574.694193472997,-0.0003957871439810365
6574.695193244919,-0.00032738648008444706
6574.696193016842,-0.00025888431347683273
6574.697192788765,-0.00019028218180941825
6574.698192560688,-0.00012158171202901579
6574.69919233261,-5.278462258135158e-05
6574.700192104533,1.610727445268137e-05
6574.701191876456,8.509207128840234e-05
6574.702191648379,0.0001541677624368855
6574.703191420302,0.0002233322427731848
6574.704191192224,0.0002925833056737584
6574.705190964147,0.00036191864122361574
6574.706190736069,0.0004313358344937159
6574.707190507993,0.0005008323638891473
6574.708190279916,0.0005704055995686164
6574.709190051838,0.0006400528019357735
6574.710189823761,0.0007097711202029083
6574.711189595683,0.0007795575910275555
6574.712189367606,0.0008494091372225615
6574.713189139529,0.0009193225665401665
6574.714188911452,0.000989294570530661
6574.715188683374,0.0010593217234761716
6574.716188455297,0.0011294004814001233
6574.71718822722,0.0011995271811529175
6574.718187999143,0.001269698039574347
6574.719187771066,0.001339909152733262
6574.720187542988,0.0014101564952449855
6574.721187314911,0.0014804359196669678
6574.722187086833,0.0015507431559731652
6574.723186858757,0.0016210738111075978
6574.72418663068,0.0016914233686175198
6574.725186402602,0.0017617871883666063
6574.726186174525,0.0018321605063284963
6574.727185946447,0.0019025384344609543
6574.72818571837,0.0019729159606608174
6574.729185490293,0.002043287948799785
6574.730185262216,0.002113649138840989
6574.731185034138,0.0021839941470361917
6574.732184806061,0.002254317466203389
6574.733184577984,0.0023246134660845946
6574.734184349907,0.002394876393783597
6574.73518412183,0.002465100374283557
6574.736183893752,0.0025352794110443683
6574.737183665675,0.0026054073866797803
6574.738183437597,0.0026754780637142928
6574.739183209521,0.002745485085419846
6574.740182981444,0.002815421976732272
6574.741182753366,0.002885282145247422
6574.742182525289,0.0029550588822967404
6574.743182297211,0.003024745364101952
6574.744182069135,0.003094334653008354
6574.745181841057,0.0031638196987960597
6574.74618161298,0.003233193340068387
6574.747181384902,0.003302448305716485
6574.748181156825,0.0033715772164591845
6574.749180928748,0.003440572586456978
6574.750180700671,0.003509426824998924
6574.751180472594,0.0035781322382611495
6574.752180244516,0.0036466810311354242
6574.753180016439,0.003715065309126051
6574.754179788361,0.0037832770803129852
6574.755179560285,0.003851308257378774
6574.756179332208,0.003919150659696565
6574.75717910413,0.00398679601547611
6574.758178876053,0.0040542359639644
6574.759178647975,0.004121462057697419
6574.760178419898,0.00418846576479939
6574.761178191821,0.004255238471325936
6574.762177963744,0.004321771483647634
6574.763177735666,0.004388056030870635
6574.764177507589,0.004454083267291188
6574.765177279512,0.004519844274881106
6574.766177051435,0.004585330065801403
6574.767176823358,0.004650531584941544
6574.76817659528,0.0047154397124819
6574.769176367203,0.0047800452664771885
6574.770176139125,0.004844339005458863
6574.771175911049,0.004908311631054557
6574.772175682972,0.004971953790622868
6574.773175454894,0.005035256079901941
6574.774175226817,0.005098209045670459
6574.775174998739,0.005160803188419781
6574.776174770663,0.005223028965036123
6574.777174542585,0.005284876791491777
6574.778174314508,0.005346337045544497
6574.77917408643,0.005407400069444315
6574.780173858353,0.005468056172647169
6574.781173630276,0.005528295634534871
6574.782173402199,0.005588108707141051
6574.783173174122,0.005647485617882839
6574.784172946044,0.005706416572298144
6574.785172717967,0.005764891756788506
6574.786172489889,0.005822901341367562
6574.787172261813,0.005880435482415244
6574.788172033736,0.005937484325437881
6574.789171805658,0.005994038007834441
6574.790171577581,0.006050086661669132
6574.791171349503,0.006105620416450677
6574.792171121427,0.006160629401918487
6574.793170893349,0.00621510375083606
6574.794170665272,0.006269033601791868
6574.795170437194,0.0063224091020080316
6574.796170209117,0.00637522041015698
6574.79716998104,0.006427457699186183
6574.798169752963,0.006479111159150756
6574.799169524886,0.00653017100005339
6574.800169296808,0.006580627454690531
6574.801169068731,0.006630470781503178
6574.802168840653,0.006679691267429998
6574.803168612577,0.006728279230759876
6574.8041683845,0.006776225023980574
6574.805168156422,0.006823519036619808
6574.806167928345,0.006870151698075018
6574.807167700267,0.006916113480428179
6574.808167472191,0.006961394901242244
6574.809167244113,0.007005986526336095
6574.810167016036,0.007049878972535212
6574.811166787958,0.0070930629103955764
6574.812166559881,0.007135529066898601
6574.813166331804,0.00717726822811516
6574.814166103727,0.007218271241837014
6574.81516587565,0.00725852902017416
6574.816165647572,0.007298032542116827
6574.817165419495,0.007336772856061018
6574.818165191417,0.007374741082296623
6574.819164963341,0.0074119284154572805
6574.820164735264,0.007448326126931239
6574.821164507186,0.00748392556723263
6574.822164279109,0.007518718168332603
6574.823164051031,0.00755269544594993
6574.824163822955,0.007585849001800772
6574.825163594877,0.0076181705258074345
6574.8261633668,0.007649651798266055
6574.827163138722,0.007680284691973296
6574.828162910645,0.007710061174312255
6574.8291626825685,0.007738973309297984
6574.830162454491,0.007767013259583111
6574.831162226414,0.007794173288424267
6574.832161998336,0.007820445761610072
6574.833161770259,0.007845823149351602
6574.834161542181,0.00787029802813625
6574.835161314105,0.007893863082545973
6574.836161086028,0.007916511107040928
6574.83716085795,0.007938235007709498
6574.838160629873,0.00795902780398572
6574.839160401795,0.00797888263033512
6574.840160173719,0.007997792737909976
6574.841159945641,0.008015751496175012
6574.842159717564,0.008032752394504518
6574.843159489486,0.008048789043751862
6574.844159261409,0.008063855177792316
6574.845159033332,0.008077944655040088
6574.846158805255,0.008091051459940378
6574.847158577178,0.008103169704437224
6574.8481583491,0.008114293629417903
6574.849158121023,0.008124417606134523
6574.850157892945,0.008133536137603543
6574.851157664869,0.008141643859983871
6574.852157436792,0.008148735543934223
6574.853157208714,0.008154806095950437
6574.854156980637,0.008159850559683412
6574.855156752559,0.008163864117238396
6574.856156524483,0.008166842090456285
6574.857156296405,0.008168779942177668
6574.858156068328,0.00816967327749027
6574.85915584025,0.008169517844960462
6574.860155612173,0.008168309537849503
6574.8611553840965,0.008166044395315116
6574.862155156019,0.008162718603599036
6574.863154927942,0.008158328497201111
6574.864154699864,0.008152870560040562
6574.865154471787,0.008146341426604954
6574.866154243709,0.008138737883087449
6574.867154015633,0.008130056868512885
6574.868153787556,0.008120295475853235
6574.869153559478,0.008109450953132967
6574.870153331401,0.00809752070452483
6574.871153103323,0.008084502291436525
6574.872152875247,0.008070393433588714
6574.873152647169,0.008055192010084767
6574.874152419092,0.008038896060472566
6574.875152191014,0.008021503785798648
6574.876151962937,0.008003013549654919
6574.8771517348605,0.00798342387921807
6574.878151506783,0.007962733466281836
6574.879151278706,0.007940941168282152
6574.880151050628,0.0079180460093153
6574.881150822551,0.00789404718114903
6574.882150594474,0.007868944044226662
6574.883150366397,0.007842736128664094
6574.88415013832,0.007815423135239571
6574.885149910242,0.007787004936376064
6574.886149682165,0.007757481577116077
6574.887149454087,0.0077268532760886854
6574.888149226011,0.007695120426468581
6574.889148997933,0.007662283596926911
6574.890148769856,0.0076283435325737135
6574.891148541778,0.007593301155891722
6574.892148313701,0.007557157567661379
6574.8931480856245,0.007519914047876879
6574.894147857547,0.007481572056653143
6574.89514762947,0.007442133235123676
6574.896147401392,0.007401599406329268
6574.897147173315,0.007359972576097624
6574.898146945237,0.007317254933913972
6574.899146717161,0.007273448853782748
6574.900146489083,0.007228556895080467
6574.901146261006,0.007182581803399838
6574.902146032929,0.007135526511385145
6574.903145804851,0.007087394139558808
6574.904145576775,0.007038187997139014
6574.905145348697,0.006987911582848136
6574.90614512062,0.006936568585711637
6574.907144892542,0.006884162885847059
6574.908144664465,0.006830698555242685
6574.9091444363885,0.006776179858525387
6574.910144208311,0.006720611253717173
6574.911143980234,0.006663997392979902
6574.912143752156,0.006606343123347593
6574.913143524079,0.006547653487445768
6574.914143296002,0.0064879337241972096
6574.915143067925,0.006427189269513546
6574.916142839847,0.00636542575697203
6574.91714261177,0.006302649018476907
6574.918142383693,0.00623886508490474
6574.919142155615,0.0061740801867330615
6574.920141927539,0.006108300754651673
6574.921141699461,0.006041533420155931
6574.922141471384,0.005973785016121271
6574.923141243306,0.0059050625773582055
6574.924141015229,0.005835373341146964
6574.9251407871525,0.005764724747750922
6574.926140559075,0.005693124440907936
6574.927140330998,0.005620580268298626
6574.92814010292,0.0055471002819906445
6574.929139874843,0.005472692738857942
6574.930139646766,0.0053973661009740215
6574.931139418689,0.0053211290359781145
6574.932139190611,0.0052439904174131765
6574.933138962534,0.0051659593250345396
6574.934138734457,0.0050870450450879855
6574.935138506379,0.005007257070555942
6574.936138278303,0.004926605101370426
6574.937138050225,0.004845099044591286
6574.938137822148,0.004762749014548245
6574.93913759407,0.004679565332945129
6574.940137365993,0.00459555852892468
6574.9411371379165,0.0045107393390922445
6574.942136909839,0.004425118707496658
6574.943136681762,0.004338707785566581
6574.944136453684,0.0042515179320005685
6574.945136225607,0.004163560712609107
6574.94613599753,0.00407484790010687
6574.947135769453,0.003985391473853353
6574.948135541375,0.0038952036195400762
6574.949135313298,0.0038042967288224347
6574.950135085221,0.003712683398894278
6574.951134857143,0.0036203764320032372
6574.952134629067,0.0035273888349047784
6574.953134400989,0.003433733818252922
6574.954134172912,0.0033394247959255274
6574.955133944834,0.003244475384281991
6574.956133716757,0.003148899401351177
6574.9571334886805,0.0030527108659473695
6574.958133260603,0.0029559239967120133
6574.959133032526,0.0028585532110790104
6574.960132804448,0.0027606131241613816
6574.961132576371,0.002662118547557153
6574.962132348294,0.002563084488072413
6574.963132120217,0.0024635261463595553
6574.964131892139,0.002363458915468829
6574.965131664062,0.0022628983793113646
6574.966131435985,0.0021618603110318993
6574.967131207908,0.002060360671289456
6574.968130979831,0.001958415606444268
6574.969130751753,0.0018560414466492355
6574.970130523676,0.0017532547038442473
6574.971130295598,0.001650072069651706
6574.972130067521,0.0015465104131716343
6574.9731298394445,0.001442586778674765
6574.974129611367,0.001338318383192066
6574.97512938329,0.0012337226139991974
6574.976129155212,0.0011288170259944634
6574.977128927135,0.0010236193389689115
6574.978128699058,0.0009181474347673302
6574.979128470981,0.000812419354339011
6574.980128242903,0.0007064532946772789
6574.981128014826,0.0006002676056469603
6574.982127786749,0.0004938807866991447
6574.983127558671,0.0003873114834728048
6574.984127330595,0.00028057848428306674
6574.985127102517,0.00017370071649614754
6574.98612687444,6.669724279120065e-05
6574.987126646362,-4.041274269049231e-05
6574.988126418285,-0.00014760991830837478
6574.9891261902085,-0.00025487483899676495
6574.990125962131,-0.00036218794044943543
6574.991125734054,-0.0004695295434136464
6574.992125505976,-0.0005768798580925493
6574.993125277899,-0.00068421898865478
6574.994125049822,-0.0007915269378499906
6574.995124821745,-0.0008987836117290175
6574.996124593667,-0.0010059688244673686
6574.99712436559,-0.0011130623032907007
6574.998124137513,-0.001220043693500954
6574.999123909436,-0.0013268925636017895
6575.000123681359,-0.0014335884105219506
6575.001123453281,-0.0015401106649351368
6575.002123225204,-0.0016464386966749379
6575.003122997126,-0.001752551820243336
6575.004122769049,-0.0018584293004112325
6575.0051225409725,-0.0019640503579093907
6575.006122312895,-0.0020693941752081306
6575.007122084818,-0.0021744399023840583
6575.00812185674,-0.002279166663072078
6575.009121628663,-0.0023835535605009257
6575.010121400586,-0.0024875796836104575
6575.011121172509,-0.0025912241132489237
6575.012120944431,-0.0026944659284484375
6575.013120716354,-0.0027972842127768167
6575.014120488277,-0.002899658060763924
6575.0151202602,-0.0030015665844005802
6575.016120032123,-0.003102988919708045
6575.017119804045,-0.003203904233375984
6575.018119575968,-0.003304291729466758
6575.01911934789,-0.003404130656183766
6575.020119119813,-0.0035034003127014652
6575.0211188917365,-0.0036020800560545786
6575.022118663659,-0.0037001493080839123
6575.023118435582,-0.0037975875624360832
6575.024118207504,-0.003894374391614367
6575.025117979427,-0.003990489454077788
6575.02611775135,-0.004085912501385439
6575.027117523273,-0.004180623385382895
6575.028117295195,-0.004274602065427484
6575.029117067118,-0.004367828615648994
6575.030116839041,-0.004460283232242344
6575.031116610964,-0.004551946240788598
6575.032116382887,-0.004642798103600611
6575.033116154809,-0.004732819427089534
6575.034115926732,-0.004821990969148325
6575.035115698654,-0.004910293646548371
6575.036115470577,-0.004997708542345273
6575.0371152425005,-0.00508421691328981
6575.038115014423,-0.005169800197240111
6575.039114786346,-0.005254440020571055
6575.040114558268,-0.005338118205576915
6575.041114330191,-0.005420816777863253
6575.042114102114,-0.005502517973724049
6575.043113874037,-0.005583204247499973
6575.044113645959,-0.0056628582789136515
6575.045113417882,-0.005741462980377628
6575.046113189805,-0.005819001504270624
6575.047112961728,-0.0058954572501775096
6575.048112733651,-0.005970813872088244
6575.049112505573,-0.006045055285550903
6575.050112277496,-0.00611816567477377
6575.051112049418,-0.006190129499671326
6575.052111821342,-0.0062609315028488415
6575.0531115932645,-0.006330556716520139
6575.054111365187,-0.006398990469352971
6575.05511113711,-0.0064662183932363265
6575.056110909032,-0.006532226429963895
6575.057110680955,-0.006597000837827782
6575.058110452878,-0.006660528198116545
6575.059110224801,-0.006722795421511478
6575.060109996723,-0.006783789754375029
6575.061109768646,-0.006843498784925082
6575.062109540569,-0.006901910449288777
6575.063109312492,-0.006959013037429362
6575.064109084415,-0.007014795198939504
6575.065108856337,-0.007069245948694278
6575.06610862826,-0.0071223546723568985
6575.067108400182,-0.007174111131730074
6575.068108172106,-0.007224505469945653
6575.0691079440285,-0.007273528216485056
6575.070107715951,-0.00732117029202283
6575.071107487874,-0.007367423013085476
6575.072107259796,-0.0074122780965176
6575.073107031719,-0.007455727663747317
6575.074106803642,-0.007497764244842787
6575.075106575565,-0.007538380782351697
6575.076106347487,-0.007577570634915563
6575.07710611941,-0.0076153275806507765
6575.078105891333,-0.007651645820288529
6575.079105663256,-0.007686519980065961
6575.080105435179,-0.007719945114361172
6575.081105207101,-0.00775191670806512
6575.082104979024,-0.007782430678683772
6575.083104750946,-0.007811483378164337
6575.08410452287,-0.007839071594439775
6575.0851042947925,-0.007865192552686256
6575.086104066715,-0.00788984391628859
6575.087103838638,-0.007913023787509086
6575.08810361056,-0.00793473070785569
6575.089103382483,-0.007954963658145688
6575.090103154406,-0.007973722058261655
6575.091102926329,-0.00799100576659683
6575.092102698251,-0.008006815079187513
6575.093102470174,-0.00802115072853058
6575.094102242097,-0.008034013882084695
6575.09510201402,-0.008045406140454204
6575.096101785943,-0.008055329535255212
6575.097101557865,-0.00806378652666371
6575.098101329788,-0.0080707800006461
6575.09910110171,-0.008076313265872813
6575.100100873634,-0.008080390050316192
6575.1011006455565,-0.008083014497534244
6575.102100417479,-0.008084191162642333
6575.103100189402,-0.00808392500797545
6575.104099961324,-0.008082221398444278
6575.105099733248,-0.00807908609658885
6575.10609950517,-0.00807452525733439
6575.107099277093,-0.008068545422454672
6575.108099049015,-0.00806115351474912
6575.109098820938,-0.008052356831940813
6575.110098592861,-0.008042163040303566
6575.111098364784,-0.008030580168027289
6575.112098136707,-0.00801761659833189
6575.113097908629,-0.008003281062341043
6575.114097680552,-0.007987582631728189
6575.115097452474,-0.007970530711148095
6575.116097224398,-0.007952135030468191
6575.1170969963205,-0.007932405636814605
6575.118096768243,-0.00791135288644845
6575.119096540166,-0.00788898743648846
6575.120096312088,-0.00786532023649645
6575.121096084011,-0.00784036251994246
6575.122095855934,-0.007814125795566769
6575.123095627857,-0.007786621838656145
6575.124095399779,-0.007757862682252006
6575.125095171702,-0.007727860608308211
6575.126094943625,-0.007696628138816404
6575.127094715548,-0.007664178026916797
6575.128094487471,-0.007630523248012224
6575.129094259393,-0.007595676990903084
6575.130094031316,-0.00755965264896043
6575.131093803238,-0.007522463811353939
6575.132093575162,-0.007484124254350911
6575.1330933470845,-0.007444647932701649
6575.134093119007,-0.007404048971125815
6575.13509289093,-0.007362341655913473
6575.136092662852,-0.007319540426653593
6575.137092434776,-0.007275659868101771
6575.138092206698,-0.007230714702197881
6575.139091978621,-0.007184719780243226
6575.140091750543,-0.007137690075245647
6575.141091522466,-0.007089640674439777
6575.142091294389,-0.007040586771988492
6575.143091066312,-0.00699054366187035
6575.144090838235,-0.006939526730956756
6575.145090610157,-0.006887551452281547
6575.14609038208,-0.00683463337850482
6575.147090154002,-0.006780788135572013
6575.148089925926,-0.006726031416568623
6575.1490896978485,-0.0066703789757703025
6575.150089469771,-0.0066138466228876066
6575.151089241694,-0.006556450217504128
6575.152089013616,-0.006498205663706352
6575.15308878554,-0.006439128904903165
6575.154088557462,-0.006379235918832579
6575.155088329385,-0.006318542712753009
6575.156088101307,-0.006257065318816179
6575.15708787323,-0.006194819789618578
6575.158087645153,-0.006131822193928256
6575.159087417076,-0.006068088612583615
6575.160087188999,-0.006003635134560776
6575.161086960921,-0.005938477853206001
6575.162086732844,-0.005872632862629604
6575.163086504766,-0.005806116254257701
6575.16408627669,-0.0057389441135381435
6575.1650860486125,-0.005671132516796931
6575.166085820535,-0.005602697528241422
6575.167085592458,-0.005533655197106648
6575.16808536438,-0.005464021554941108
6575.169085136304,-0.005393812613028466
6575.170084908226,-0.005323044359941633
6575.171084680149,-0.005251732759225841
6575.172084452071,-0.0051798937472073755
6575.173084223994,-0.005107543230924736
6575.174083995917,-0.005034697086179132
6575.17508376784,-0.004961371155701308
6575.176083539763,-0.004887581247431757
6575.177083311685,-0.004813343132911465
6575.178083083608,-0.004738672545780387
6575.17908285553,-0.004663585180380858
6575.180082627454,-0.004588096690463189
6575.1810823993765,-0.004512222687990699
6575.182082171299,-0.004435978742041464
6575.183081943222,-0.0043593803778040835
6575.184081715144,-0.004282443075664823
6575.185081487068,-0.00420518227038352
6575.18608125899,-0.0041276133503556755
6575.187081030913,-0.004049751656958151
6575.188080802835,-0.003971612483975904
6575.189080574758,-0.0038932110771071303
6575.1900803466815,-0.0038145626335441356
6575.191080118604,-0.003735682301627176
6575.192079890527,-0.003656585180568427
6575.193079662449,-0.0035772863202431526
6575.194079434372,-0.0034978007210450693
6575.195079206294,-0.003418143333802835
6575.196078978218,-0.0033383290597545365
6575.1970787501405,-0.00325837275057701
6575.198078522063,-0.0031782892084667985
6575.199078293986,-0.0030980931862695116
6575.200078065908,-0.003017799387654351
6575.201077837832,-0.002937422467330521
6575.202077609754,-0.0028569770313021953
6575.203077381677,-0.0027764776371586334
6575.204077153599,-0.0026959387943959615
6575.205076925522,-0.002615374964767084
6575.206076697445,-0.002534800562656142
6575.207076469368,-0.0024542299554739075
6575.208076241291,-0.0023736774640704815
6575.209076013213,-0.0022931573631616254
6575.210075785136,-0.0022126838817650247
6575.211075557058,-0.0021322712036427626
6575.212075328982,-0.0020519334677462976
6575.2130751009045,-0.0019716847686602765
6575.214074872827,-0.0018915391570415688
6575.21507464475,-0.0018115106400499953
6575.216074416672,-0.0017316131817673426
6575.217074188596,-0.001651860703601359
6575.218073960518,-0.0015722670846715797
6575.219073732441,-0.0014928461621739613
6575.220073504363,-0.0014136117317214304
6575.221073276286,-0.0013345775476575309
6575.2220730482095,-0.0012557573233403978
6575.223072820132,-0.0011771647313943109
6575.224072592055,-0.0010988134039260822
6575.225072363977,-0.0010207169327035492
6575.2260721359,-0.000942888869293464
6575.227071907822,-0.000865342725156105
6575.228071679746,-0.0007880919716940034
6575.2290714516685,-0.0007111500402522384
6575.230071223591,-0.0006345303220678301
6575.231070995514,-0.0005582461681658098
6575.232070767436,-0.0004823108891995845
6575.23307053936,-0.00040673775523322183
6575.234070311282,-0.00033153999546327713
6575.235070083205,-0.00025673079787778125
6575.236069855127,-0.00018232330885001845
6575.23706962705,-0.00010833063266476415
6575.2380693989735,-3.476583097471109e-05
6575.239069170896,3.8358077815118465e-05
6575.240068942819,0.00011102811923710997
6575.241068714741,0.00018323136352702416
6575.242068486664,0.00025495492646823514
6575.243068258587,0.00032618597031625453
6575.24406803051,0.0003969117048055467
6575.2450678024325,0.00046711938824064075
6575.246067574355,0.0005367963286735562
6575.247067346278,0.0006059298851695718
6575.2480671182,0.0006745074691633675
6575.249066890124,0.0007425165459075502
6575.250066662046,0.0008099446360155178
6575.251066433969,0.0008767793171005356
6575.252066205891,0.000943008225512789
6575.253065977814,0.0010086190581760583
6575.2540657497375,0.0010735995745255428
6575.25506552166,0.0011379375985482532
6575.256065293583,0.0012016210209272805
6575.257065065505,0.0012646378012911488
6575.258064837428,0.001326975970569335
6575.25906460935,0.0013886236334548926
6575.260064381274,0.001449568970974945
6575.2610641531965,0.0015098002431696202
6575.262063925119,0.0015693057918798018
6575.263063697042,0.0016280740436438643
6575.264063468964,0.001686093512703367
6575.265063240888,0.0017433528041174951
6575.26606301281,0.0017998406169858793
6575.267062784733,0.0018555457477792722
6575.268062556655,0.0019104570937774528
6575.269062328578,0.0019645636566136197
6575.2700621005015,0.0020178545459244687
6575.271061872424,0.0020703189831050906
6575.272061644347,0.0021219463051677673
6575.273061416269,0.0021727259687037074
6575.274061188192,0.0022226475539467243
6575.275060960115,0.0022717007689378177
6575.276060732038,0.0023198754537895596
6575.2770605039605,0.002367161585049071
6575.278060275883,0.0024135492801582283
6575.279060047806,0.0024590288020095124
6575.280059819728,0.002503590563595581
6575.281059591652,0.002547225132750223
6575.282059363574,0.0025899232369778055
6575.283059135497,0.0026316757683676963
6575.284058907419,0.0026724737885894527
6575.285058679342,0.00271230853396393
6575.2860584512655,0.0027511714206048753
6575.287058223188,0.0027890540496251608
6575.288057995111,0.002825948212401543
6575.289057767033,0.0028618458958917553
6575.290057538956,0.002896739287997759
6575.291057310879,0.0029306207829690625
6575.292057082802,0.002963482986840094
6575.2930568547245,0.002995318722895637
6575.294056626647,0.0030261210371583034
6575.29505639857,0.0030558832038919234
6575.296056170492,0.0030845987311145817
6575.297055942416,0.003112261366114819
6575.298055714338,0.003138865100964219
6575.299055486261,0.0031644041780192747
6575.300055258183,0.003188873095405099
6575.301055030106,0.003212266612473265
6575.3020548020295,0.003234579755225853
6575.303054573952,0.003255807821697665
6575.304054345875,0.0032759463872886
6575.305054117797,0.003294991310038257
6575.30605388972,0.0033129387358350167
6575.307053661643,0.0033297851035521157
6575.308053433566,0.003345527150103464
6575.309053205488,0.003360161915412279
6575.310052977411,0.0033736867472858832
6575.311052749334,0.0033860993061902486
6575.312052521256,0.0033973975699181052
6575.31305229318,0.0034075798381445923
6575.314052065102,0.003416644736864585
6575.315051837025,0.0034245912227059564
6575.316051608947,0.003431418587113193
6575.31705138087,0.0034371264603959405
6575.3180511527935,0.0034417148156372594
6575.319050924716,0.0034451839724565945
6575.320050696639,0.0034475346006226813
6575.321050468561,0.003448767723511849
6575.322050240484,0.003448884721407409
6575.323050012407,0.0034478873346360326
6575.32404978433,0.00344577766653724
6575.325049556252,0.0034425581862623225
6575.326049328175,0.0034382317313992297
6575.327049100098,0.0034328015104201064
6575.328048872021,0.003426271104948321
6575.329048643944,0.0034186444718419585
6575.330048415866,0.003409925945090871
6575.331048187789,0.0034001202375245096
6575.332047959711,0.003389232442327898
6575.333047731634,0.003377268034363231
6575.3340475035575,0.003364232871294727
6575.33504727548,0.003350133194514499
6575.336047047403,0.0033349756298673362
6575.337046819325,0.0033187671881724245
6575.338046591248,0.003301515265540178
6575.339046363171,0.0032832276434824796
6575.340046135094,0.003263912488814795
6575.341045907016,0.0032435783533487765
6575.342045678939,0.0032222341733741276
6575.343045450862,0.0031998892689286645
6575.344045222784,0.003176553342855667
6575.345044994708,0.0031522364796477444
6575.34604476663,0.003126949144076553
6575.347044538553,0.0031007021796078263
6575.348044310475,0.0030735068066012777
6575.349044082398,0.003045374620295052
6575.3500438543215,0.003016317588574533
6575.351043626244,0.0029863480495255046
6575.352043398167,0.0029554787087718083
6575.353043170089,0.0029237226365978392
6575.354042942012,0.0028910932648563955
6575.355042713935,0.002857604383662557
6575.356042485858,0.0028232701378744503
6575.35704225778,0.002788105023361902
6575.358042029703,0.0027521238830641543
6575.359041801626,0.002715341902837965
6575.360041573549,0.002677774607097585
6575.361041345472,0.0026394378542482235
6575.362041117394,0.002600347831914783
6575.363040889317,0.0025605210519677713
6575.364040661239,0.0025199743453484555
6575.365040433162,0.002478724856695457
6575.3660402050855,0.002436790038775136
6575.367039977008,0.002394187646718225
6575.368039748931,0.002350935732065249
6575.369039520853,0.0023070526366233335
6575.370039292776,0.00226255698613703
6575.371039064699,0.002217467683775836
6575.372038836622,0.0021718039034411387
6575.373038608544,0.002125585082895379
6575.374038380467,0.002078830916716366
6575.37503815239,0.0020315613490797645
6575.376037924313,0.00198379656637295
6575.377037696236,0.0019355569896435411
6575.378037468158,0.001886863266886091
6575.379037240081,0.0018377362651705827
6575.380037012003,0.0017881970626165411
6575.381036783926,0.0017382669402167678
6575.3820365558495,0.0016879673735148736
6575.383036327772,0.0016373200241409495
6575.384036099695,0.0015863467312098633
6575.385035871617,0.001535069502586809
6575.38603564354,0.0014835105060248487
6575.387035415463,0.0014316920601793075
6575.388035187386,0.0013796366255039967
6575.389034959308,0.0013273667950343543
6575.390034731231,0.0012749052850626792
6575.391034503154,0.0012222749257107155
6575.392034275077,0.0011694986514048575
6575.393034047,0.0011165994912592638
6575.394033818922,0.001063600559372173
6575.395033590845,0.0010105250450407116
6575.396033362767,0.000957396202899505
6575.39703313469,0.0009042373429884322
6575.3980329066135,0.0008510718207549106
6575.399032678536,0.0007979230269961688
6575.400032450459,0.0007448143777470527
6575.401032222381,0.0006917693041190208
6575.402031994304,0.0006388112420961001
6575.403031766227,0.0005859636222936904
6575.40403153815,0.0005332498596862323
6575.405031310072,0.00048069334330986976
6575.406031081995,0.00042831742594635143
6575.407030853918,0.000376145413794513
6575.408030625841,0.00032420055613576853
6575.409030397764,0.00027250603500010226
6575.410030169686,0.0002210849548390933
6575.411029941609,0.00016996033221252307
6575.412029713531,0.0001191550854951075
6575.413029485455,6.869202460986166e-05
6575.4140292573775,1.8593840794548845e-05
6575.4150290293,-3.111690359240574e-05
6575.416028801223,-8.041778522023067e-05
6575.417028573145,-0.00012928652988211098
6575.418028345068,-0.00017770102253327911
6575.419028116991,-0.0002256393172647157
6575.420027888914,-0.00027307964720628153
6575.421027660836,-0.00032000043435309003
6575.422027432759,-0.00036638029930891405
6575.423027204682,-0.00041219807094041523
6575.424026976605,-0.0004574327959359947
6575.425026748528,-0.000502063748263106
6575.42602652045,-0.0005460704385179473
6575.427026292373,-0.0005894326231615727
6575.428026064295,-0.0006321303136366253
6575.429025836219,-0.0006741437853590924
6575.4300256081415,-0.0007154535865796986
6575.431025380064,-0.0007560405471097775
6575.432025151987,-0.0007958857869066878
6575.433024923909,-0.0008349707245140624
6575.434024695832,-0.000873277085352416
6575.435024467755,-0.0009107869098558553
6575.436024239678,-0.0009474825614508599
6575.4370240116,-0.000983346734373311
6575.438023783523,-0.0010183624613201272
6575.439023555446,-0.0010525131209320332
6575.440023327369,-0.0010857824451041306
6575.441023099292,-0.0011181545261210548
6575.442022871214,-0.0011496138236136112
6575.443022643137,-0.0011801451713338604
6575.444022415059,-0.0012097337837456957
6575.445022186983,-0.001238365262428001
6575.4460219589055,-0.001266025602287529
6575.447021730828,-0.001292701197578682
6575.448021502751,-0.0013183788477274167
6575.449021274673,-0.0013430457629565258
6575.450021046596,-0.001366689569709591
6575.451020818519,-0.0013892983158709559
6575.452020590442,-0.0014108604757791417
6575.453020362364,-0.0014313649550312456
6575.454020134287,-0.001450801095075981
6575.45501990621,-0.0014691586775931543
6575.456019678133,-0.0014864279286575203
6575.457019450056,-0.0015025995226850984
6575.458019221978,-0.001517664586160176
6575.459018993901,-0.0015316147011413912
6575.460018765823,-0.001544441908545426
6575.461018537747,-0.0015561387112070157
6575.4620183096695,-0.0015666980767141223
6575.463018081592,-0.0015761134400172777
6575.464017853515,-0.0015843787058122357
6575.465017625437,-0.0015914882506952077
6575.466017397361,-0.001597436925090076
6575.467017169283,-0.001602220054947096
6575.468016941206,-0.0016058334432127188
6575.469016713128,-0.0016082733710702799
6575.470016485051,-0.001609536598951424
6575.471016256974,-0.0016096203673182632
6575.472016028897,-0.0016085223972164182
6575.47301580082,-0.0016062408905992648
6575.474015572742,-0.0016027745304239107
6575.475015344665,-0.0015981224805196655
6575.476015116587,-0.0015922843852300096
6575.477014888511,-0.0015852603688293226
6575.4780146604335,-0.0015770510347158817
6575.479014432356,-0.0015676574643828628
6575.480014204279,-0.0015570812161692547
6575.481013976201,-0.001545324323792736
6575.482013748124,-0.0015323892946666308
6575.483013520047,-0.0015182791080031077
6575.48401329197,-0.001502997212704788
6575.485013063892,-0.0014865475250469566
6575.486012835815,-0.0014689344261526014
6575.487012607738,-0.0014501627592625704
6575.488012379661,-0.0014302378268031973
6575.489012151584,-0.0014091653872538338
6575.490011923506,-0.0013869516518168052
6575.491011695429,-0.001363603280892382
6575.492011467351,-0.0013391273803614542
6575.493011239275,-0.0013135314976786925
6575.4940110111975,-0.0012868236177790893
6575.49501078312,-0.0012590121588008799
6575.496010555043,-0.001230105967627956
6575.497010326965,-0.0012001143152549898
6575.498010098889,-0.0011690468919785825
6575.499009870811,-0.0011369138024178427
6575.500009642734,-0.001103725560367883
6575.501009414656,-0.0010694930834898116
6575.502009186579,-0.001034227687840873
6575.503008958502,-0.0009979410822484756
6575.504008730425,-0.0009606453625319145
6575.505008502348,-0.000922353005575651
6575.50600827427,-0.0008830768632580383
6575.507008046193,-0.0008428301562393888
6575.508007818115,-0.0008016264676132838
6575.509007590039,-0.0007594797364250272
6575.5100073619615,-0.0007164042510611525
6575.511007133884,-0.0006724146425139148
6575.512006905807,-0.0006275258775247118
6575.513006677729,-0.0005817532516104142
6575.514006449653,-0.0005351123819766197
6575.515006221575,-0.0004876192003219108
6575.516005993498,-0.00043928994553728
6575.51700576542,-0.000390141156305015
6575.518005537343,-0.0003401896636014885
6575.519005309266,-0.00028945258310848223
6575.520005081189,-0.00023794730753787005
6575.521004853112,-0.0001856914988746975
6575.522004625034,-0.00013270308054389625
6575.523004396957,-7.900022950605948e-05
6575.524004168879,-2.460136828784955e-05
6575.525003940803,3.047484304730727e-05
6575.5260037127255,8.62095149825709e-05
6575.527003484648,0.00014258353667947012
6575.528003256571,0.00019957758415261456
6575.529003028493,0.0002571721284819725
6575.530002800417,0.0003153474440575041
6575.531002572339,0.00037408361685109444
6575.532002344262,0.0004333605527108876
6575.533002116184,0.000493157985673275
6575.534001888107,0.0005534554862879343
6575.53500166003,0.0006142324699514444
6575.536001431953,0.0006754682052451104
6575.537001203876,0.0007371418222727158
6575.538000975798,0.0007992323209939896
6575.539000747721,0.0008617185795496323
6575.540000519643,0.000924579362573799
6575.541000291567,0.0009877933294900022
6575.5420000634895,0.0010513390427864635
6575.542999835412,0.0011151949762670359
6575.543999607335,0.0011793395232739207
6575.544999379257,0.0012437510048785363
6575.545999151181,0.001308407678037046
6575.546998923103,0.001373287743707223
6575.547998695026,0.001438369354923509
6575.548998466948,0.0015036306248272916
6575.549998238871,0.0015690496346495953
6575.5509980107945,0.001634604441643534
6575.551997782717,0.001700273086964023
6575.55299755464,0.0017660336034923806
6575.553997326562,0.0018318640236035344
6575.554997098485,0.001897742386873591
6575.555996870407,0.0019636467477254925
6575.556996642331,0.002029555183010365
6575.5579964142535,0.002095445799522006
6575.558996186176,0.0021612967414417527
6575.559995958099,0.0022270861977107927
6575.560995730021,0.002292792409326869
6575.561995501945,0.002358393676562281
6575.562995273867,0.0024238683661001324
6575.56399504579,0.002489194918085896
6575.564994817712,0.0025543518530915343
6575.565994589635,0.0026193177789896028
6575.566994361558,0.0026840713977349597
6575.567994133481,0.0027485915120518786
6575.568993905404,0.0028128570320245043
6575.569993677326,0.0028768469815887085
6575.570993449249,0.0029405405049234973
6575.571993221171,0.003003916872740187
6575.572992993095,0.00306695548846765
6575.5739927650175,0.0031296358943320077
6575.57499253694,0.00319193777732929
6575.575992308863,0.0032538409750897017
6575.576992080785,0.0033153254816323295
6575.577991852709,0.003376371453009328
6575.578991624631,0.0034369592128388076
6575.579991396554,0.0034970692577258626
6575.580991168476,0.0035566822625713794
6575.581990940399,0.003615779085768476
6575.5829907123225,0.0036743407742866096
6575.583990484245,0.0037323485686435935
6575.584990256168,0.00378978390776596
6575.58599002809,0.0038466284337382597
6575.586989800013,0.003902863996442018
6575.587989571935,0.003958472658085159
6575.588989343859,0.004013436697622716
6575.5899891157815,0.004067738615069675
6575.590988887704,0.004121361135706713
6575.591988659627,0.004174287214179594
6575.592988431549,0.004226500038492921
6575.593988203473,0.004277983033898924
6575.594987975395,0.0043287198666819866
6575.595987747318,0.004378694447839603
6575.59698751924,0.004427890936660553
6575.597987291163,0.004476293744201063
6575.598987063087,0.004523887536659814
6575.599986835009,0.004570657238652729
6575.600986606932,0.004616588036388502
6575.601986378854,0.004661665380745912
6575.602986150777,0.004705874990254025
6575.6039859227,0.004749202853976427
6575.604985694623,0.004791635234300687
6575.6059854665455,0.004833158669634305
6575.606985238468,0.00487375997700842
6575.607985010391,0.004913426254590639
6575.608984782313,0.004952144884108319
6575.609984554237,0.004989903533183719
6575.610984326159,0.005026690157582386
6575.611984098082,0.005062493003376167
6575.612983870004,0.005097300609022208
6575.613983641927,0.00513110180735926
6575.6149834138505,0.00516388572752261
6575.615983185773,0.005195641796778894
6575.616982957696,0.0052263597422820595
6575.617982729618,0.0052560295927517155
6575.618982501541,0.005284641680075081
6575.619982273463,0.005312186640833772
6575.620982045387,0.005338655417756673
6575.6219818173095,0.005364039261100153
6575.622981589232,0.005388329729956917
6575.623981361155,0.005411518693494832
6575.624981133077,0.0054335983321270745
6575.625980905001,0.005454561138615009
6575.626980676923,0.005474399919105153
6575.627980448846,0.005493107794101657
6575.628980220768,0.0055106781993756624
6575.629979992691,0.005527104886812838
6575.630979764615,0.005542381925200413
6575.631979536537,0.005556503700954926
6575.63297930846,0.005569464918791922
6575.633979080382,0.005581260602338793
6575.634978852305,0.005591886094691919
6575.635978624228,0.005601337058919303
6575.636978396151,0.005609609478509787
6575.6379781680735,0.005616699657769986
6575.638977939996,0.005622604222170001
6575.639977711919,0.005627320118638939
6575.640977483841,0.0056308446158112365
6575.641977255765,0.005633175304224759
6575.642977027687,0.005634310096471623
6575.64397679961,0.005634247227302726
6575.644976571532,0.005632985253686957
6575.645976343455,0.005630523054826048
6575.6469761153785,0.005626859832126069
6575.647975887301,0.005621995109126534
6575.648975659224,0.005615928731388053
6575.649975431146,0.005608660866339472
6575.650975203069,0.005600192003085369
6575.651974974992,0.005590522952174777
6575.652974746915,0.005579654845331982
6575.6539745188375,0.005567589135150186
6575.65497429076,0.005554327594748792
6575.655974062683,0.005539872317395028
6575.656973834605,0.0055242257160905165
6575.657973606529,0.005507390523123326
6575.658973378451,0.005489369789585935
6575.659973150374,0.005470166884859432
6575.660972922296,0.005449785496064149
6575.661972694219,0.005428229627476844
6575.662972466143,0.0054055035999143785
6575.663972238065,0.005381612050083799
6575.664972009988,0.005356559929898569
6575.66597178191,0.0053303525057606825
6575.666971553833,0.005302995357808286
6575.667971325756,0.005274494379128409
6575.668971097679,0.005244855774934316
6575.6699708696015,0.005214086061706971
6575.670970641524,0.005182192066300033
6575.671970413447,0.00514918092500781
6575.672970185369,0.005115060082595532
6575.673969957293,0.005079837291291312
6575.674969729215,0.005043520609739102
6575.675969501138,0.005006118401911986
6575.67696927306,0.0049676393359850525
6575.677969044983,0.004928092383167156
6575.6789688169065,0.00488748681649076
6575.679968588829,0.004845832209559087
6575.680968360752,0.004803138435249743
6575.681968132674,0.0047594156643739486
6575.682967904597,0.0047146743642904115
6575.68396767652,0.0046689252974728025
6575.684967448443,0.004622179520029631
6575.6859672203655,0.004574448380175143
6575.686966992288,0.0045257435166496055
6575.687966764211,0.004476076857087124
6575.688966536134,0.004425460616328869
6575.689966308057,0.004373907294679336
6575.690966079979,0.004321429676103057
6575.691965851902,0.004268040826358998
6575.692965623824,0.004213754091069765
6575.693965395747,0.004158583093722672
6575.694965167671,0.004102541733599678
6575.695964939593,0.004045644183633198
6575.696964711516,0.003987904888184843
6575.697964483438,0.003929338560744109
