Time,Filtered_EMG_Bicep,Filtered_EMG_Tricep
6836.677427426359,0.0028015334665888575,0.00222396202890555
6836.6784271982815,0.0028531325822329593,0.002243651525348576
6836.679426970204,0.0029052933379056147,0.002262406506057789
6836.680426742128,0.0029576323856414116,0.0022800004081192705
6836.68142651405,0.0030097540162101664,0.0022962161974876744
6836.682426285973,0.0030612550056128398,0.0023108509650934445
6836.683426057895,0.0031117294717491364,0.0023237205312013473
6836.684425829818,0.003160773602073858,0.0023346639212594067
6836.685425601741,0.003207990143931927,0.0023435475626158117
6836.686425373664,0.0032529926016212738,0.002350269047741372
6836.6874251455865,0.003295409151748934,0.002354760317887454
6836.688424917509,0.0033348863460761218,0.0023569901525433245
6836.689424689432,0.003371092694310867,0.002356965904104294
6836.690424461354,0.003403722207042314,0.002354734462907668
6836.691424233278,0.003432497947673469,0.002350382443173614
6836.6924240052,0.0034571756070807804,0.002344035557198496
6836.693423777123,0.0034775470870837244,0.0023358571417250507
6836.6944235490455,0.0034934440657387643,0.002326045844526292
6836.695423320968,0.0035047415095124596,0.002314832545170933
6836.696423092892,0.003511361070037271,0.0023024766265054555
6836.697422864814,0.003513274244137418,0.0022892617190483563
6836.698422636737,0.003510505105816642,0.002275491029038181
6836.699422408659,0.0035031323798253725,0.002261482349747244
6836.700422180582,0.0034912906438915934,0.0022475628429989595
6836.701421952505,0.0034751705028361717,0.0022340636576307035
6836.702421724428,0.0034550176333968444,0.002221314427845604
6836.703421496351,0.0034311306375512064,0.0022096376770308008
6836.704421268273,0.003403857673029054,0.0021993431535880462
6836.705421040196,0.0033735918576344127,0.002190722154842776
6836.706420812119,0.0033407654674401377,0.002184041948143054
6836.707420584042,0.0033058429734076104,0.0021795404504167002
6836.708420355964,0.0032693130002910556,0.002177421354659718
6836.709420127887,0.003231679356661657,0.0021778498915265496
6836.7104198998095,0.0031934513663598257,0.0021809494021391585
6836.711419671732,0.0031551337992121683,0.002186798883042469
6836.712419443656,0.003117216730554219,0.002195431634614882
6836.713419215578,0.00308016565978681,0.002206835089989332
6836.714418987501,0.0030444121968281478,0.0022209518331048504
6836.715418759423,0.0030103455826633427,0.0022376817501486065
6836.716418531346,0.0029783052603609274,0.0022568852055213015
6836.717418303269,0.002948574682977007,0.002278387091490436
6836.718418075192,0.002921376540150014,0.002301981573519203
6836.7194178471145,0.0028968695823751623,0.0023274373445803186
6836.720417619037,0.00287514719996286,0.002354503207106337
6836.72141739096,0.0028562378707971325,0.0023829138109084714
6836.722417162882,0.0028401075302376933,0.0024123953849356423
6836.723416934806,0.002826663834499978,0.0024426713167204346
6836.724416706728,0.0028157621848581378,0.002473467464682128
6836.725416478651,0.0028072132691828945,0.0025045171277556302
6836.7264162505735,0.002800791790402266,0.0025355656196958563
6836.727416022496,0.002796246014338131,0.0025663743870737847
6836.72841579442,0.0027933077766980926,0.002596724581984148
6836.729415566342,0.0027917026072779897,0.002626419975673477
6836.730415338265,0.002791159634277195,0.00265528909459464
6836.731415110187,0.002791420930585858,0.002683186483470542
6836.73241488211,0.002792249976805629,0.0027099930470777826
6836.733414654033,0.00279343894875199,0.0027356154840308673
6836.734414425956,0.002794814586123277,0.0027599848971934073
6836.735414197879,0.0027962424668007283,0.002783054736859239
6836.736413969801,0.0027976296042982476,0.0028047982756121814
6836.737413741724,0.0027989253943428156,0.002825205800654088
6836.738413513647,0.0028001210346202446,0.0028442816498165904
6836.73941328557,0.0028012476103423042,0.0028620411531773567
6836.740413057492,0.002802373074163459,0.0028785075090127983
6836.741412829415,0.0028035983521701204,0.002893708624990638
6836.7424126013375,0.002805052779409812,0.0029076739723693343
6836.74341237326,0.002806889023755402,0.0029204315121975593
6836.744412145184,0.0028092776215034886,0.0029320047575005274
6836.745411917106,0.002812401238743344,0.0029424100488778843
6836.746411689029,0.0028164487865324083,0.0029516541535108748
6836.747411460951,0.0028216095359035304,0.002959732343647976
6836.748411232874,0.0028280673781377764,0.002966627147804131
6836.749411004797,0.00283599534880212,0.0029723079683136836
6836.75041077672,0.00284555049275212,0.002976731710585609
6836.7514105486425,0.0028568691149385476,0.002979844487862297
6836.752410320565,0.0028700624563016944,0.002981584379939168
6836.753410092488,0.002885212847809296,0.0029818851541304116
6836.754409864411,0.0029023704025676763,0.0029806807970231626
6836.755409636334,0.002921550295411628,0.002977910637547759
6836.756409408256,0.0029427306681908934,0.0029735247584020473
6836.757409180179,0.0029658512050648876,0.0029674893145195734
6836.7584089521015,0.0029908124428091208,0.002959791342301751
6836.759408724025,0.003017475898605653,0.0029504426793231084
6836.760408495948,0.0030456650970336154,0.002939482717430367
6836.76140826787,0.0030751675554260625,0.002926979851969125
6836.762408039793,0.003105737743022847,0.0029130316258849866
6836.763407811715,0.003137100963155958,0.0028977636642121807
6836.764407583638,0.003168958024718186,0.0028813275412702686
6836.765407355561,0.003200990489070833,0.0028638977433098887
6836.766407127484,0.003232866224857892,0.0028456679121659774
6836.767406899407,0.003264244989530175,0.002826846580139958
6836.768406671329,0.0032947837837642405,0.0028076526110940025
6836.769406443252,0.003324141787416201,0.0027883105355156553
6836.770406215175,0.003351984776790725,0.002769045917523267
6836.771405987098,0.003377989032253337,0.0027500808391443645
6836.77240575902,0.003401844844933835,0.0027316295479026535
6836.773405530943,0.003423259783846014,0.002713894298437757
6836.7744053028655,0.003441961873916537,0.002697061432521864
6836.775405074788,0.003457702778262003,0.0026812977743401636
6836.776404846712,0.003470261001529304,0.002666747443574588
6836.777404618634,0.0034794450507019416,0.0026535291885553597
6836.778404390557,0.0034850964140744297,0.0026417343191859144
6836.779404162479,0.00348709216140918,0.0026314252865695417
6836.780403934402,0.0034853469465401317,0.002622634918477691
6836.781403706325,0.0034798142246657447,0.0026153662859340373
6836.782403478248,0.0034704865857886056,0.002609593164189829
6836.7834032501705,0.0034573952287535498,0.002605261064390551
6836.784403022093,0.003440608703143812,0.0026022888242663226
6836.785402794016,0.003420231086851681,0.002600570731787507
6836.786402565939,0.003396399752391285,0.0025999791248966734
6836.787402337862,0.0033692828414367514,0.0026003673925470605
6836.788402109784,0.0033390765356552583,0.002601573303551433
6836.789401881707,0.0033060021821234645,0.0026034225887108056
6836.7904016536295,0.0032703033060479973,0.002605732682223916
6836.791401425553,0.003232242530540023,0.002608316500948189
6836.792401197476,0.0031920984195070567,0.0026109861315150155
6836.793400969398,0.003150162254909864,0.002613556323448227
6836.794400741321,0.0031067347580517146,0.0026158477426996792
6836.795400513243,0.0030621227790826465,0.0026176899938840075
6836.796400285166,0.003016636002266801,0.0026189244428668147
6836.797400057089,0.0029705837235202244,0.0026194068625972644
6836.798399829012,0.002924271746430484,0.0026190099075286007
6836.799399600935,0.0028779994326666365,0.0026176254156390927
6836.800399372857,0.002832056946634266,0.0026151665363953695
6836.80139914478,0.0027867227449813775,0.002611569669103308
6836.802398916703,0.002742261360857631,0.0026067961646108638
6836.803398688626,0.002698921510464816,0.0026008337085795066
6836.804398460548,0.002656934514210019,0.0025936972823566917
6836.805398232471,0.0026165129983865224,0.002585429598241821
6836.8063980043935,0.002577849840949325,0.00257610093737923
6836.807397776317,0.0025411173436076222,0.0025658083791440865
6836.80839754824,0.0025064666372732794,0.002554674480862657
6836.809397320162,0.002474027344819873,0.002542845513421035
6836.810397092085,0.0024439075297486438,0.002530489358704008
6836.811396864007,0.002416193956774218,0.002517793136750224
6836.812396635931,0.0023909526836552114,0.0025049605842928824
6836.813396407853,0.0023682299889952454,0.002492209171376899
6836.814396179776,0.002348053619523355,0.002479766918202523
6836.8153959516985,0.0023304343252241073,0.0024678688630087983
6836.816395723621,0.0023153676493038637,0.0024567531454357692
6836.817395495544,0.0023028359397521997,0.0024466567060538254
6836.818395267467,0.0022928105326598227,0.00243781064496637
6836.81939503939,0.002285254028083241,0.002430435325272086
6836.820394811312,0.0022801225566073838,0.0024247353556845304
6836.821394583235,0.002277367928382613,0.002420894632848426
6836.8223943551575,0.0022769395601253068,0.002419071649933951
6836.823394127081,0.002278786082078983,0.0024193952744859365
6836.824393899004,0.002282856536716417,0.0024219611660375854
6836.825393670926,0.002289101095683007,0.002426828950004767
6836.826393442849,0.0022974712350304475,0.0024340202015926894
6836.827393214771,0.00230791931842164,0.002443517232288917
6836.828392986694,0.0023203975615177894,0.002455262619880887
6836.829392758617,0.0023348564067132284,0.002469159397443758
6836.83039253054,0.002351242408896792,0.0024850718337774413
6836.831392302463,0.0023694957797382285,0.0025028267849862536
6836.832392074385,0.002389547741589573,0.002522215637115633
6836.833391846308,0.0024113178191392357,0.0025429968717057146
6836.834391618231,0.0024347111779806493,0.002564899277979736
6836.835391390154,0.002459616124832014,0.0025876258177716526
6836.836391162076,0.002485901911544906,0.002610858121887754
6836.837390933999,0.0025134170157701395,0.00263426156062993
6836.8383907059215,0.0025419880912734994,0.0026574907940935615
6836.839390477845,0.00257141978266604,0.002680195675524577
6836.840390249768,0.0026014955721373315,0.0027020273562014265
6836.84139002169,0.0026319797643685654,0.0027226444252120663
6836.842389793613,0.002662620628336772,0.002741718911720425
6836.843389565535,0.002693154615028469,0.0027589419776253943
6836.844389337459,0.0027233114735241413,0.0027740291346508095
6836.845389109381,0.0027528200130034247,0.0027867248367711263
6836.846388881304,0.002781414219145721,0.0027968063313534358
6836.8473886532265,0.0028088394303340085,0.0028040866976642665
6836.848388425149,0.0028348582974078306,0.0028084170500270247
6836.849388197072,0.002859256271878499,0.002809687933569161
6836.850387968995,0.0028818463889248207,0.0028078300005459148
6836.851387740918,0.0029024731515887177,0.0028028141150897466
6836.85238751284,0.00292101539535277,0.0027946510615657846
6836.853387284763,0.0029373881052549046,0.0027833910045337727
6836.8543870566855,0.0029515432426071063,0.002769122776967954
6836.855386828609,0.002963469690859669,0.0027519729866712613
6836.856386600532,0.0029731924381286175,0.002732104856687567
6836.857386372454,0.0029807710845589732,0.002709716674276097
6836.858386144377,0.002986297722197158,0.0026850397232425437
6836.859385916299,0.0029898942061744073,0.002658335607577726
6836.860385688222,0.0029917088183626325,0.002629892920139397
6836.861385460145,0.002991912308277903,0.0026000232556078876
6836.862385232068,0.002990693287034357,0.002569056614227075
6836.863385003991,0.002988252971954709,0.0025373362919662505
6836.864384775913,0.0029847993479397606,0.002505213390887925
6836.865384547836,0.0029805409117572004,0.0024730410977717755
6836.866384319759,0.0029756802577685843,0.002441168867090416
6836.867384091682,0.002970407817819444,0.002409936613741146
6836.868383863604,0.0029648960789534023,0.002379668991571448
6836.869383635527,0.002959294575468478,0.002350669832552886
6836.8703834074495,0.002953725889301319,0.0023232168552847618
6836.871383179373,0.0029482828015416356,0.002297556793443353
6836.872382951296,0.0029430266343937494,0.002273901110621826
6836.873382723218,0.002937986729992039,0.0022524224487940996
6836.874382495141,0.0029331609544662463,0.002233251920245176
6836.875382267063,0.0029285171048089565,0.002216477319715391
6836.876382038987,0.002923995118355552,0.0022021423148473117
6836.877381810909,0.002919510010397123,0.002190246658926766
6836.878381582832,0.0029149554775106394,0.0021807474419926576
6836.8793813547545,0.0029102081056610963,0.002173561349583406
6836.880381126677,0.0029051321178691788,0.00216856784660768
6836.8813808986,0.002899584582274369,0.002165613167813676
6836.882380670523,0.002893420973463884,0.0021645149866603218
6836.883380442446,0.0028865009387691906,0.002165067639459156
6836.884380214368,0.002878694071955214,0.002167047779091692
6836.885379986291,0.002869885455038338,0.0021702203162677802
6836.8863797582135,0.0028599807207535795,0.0021743444902889222
6836.887379530137,0.0028489104286117174,0.0021791799106117833
6836.88837930206,0.0028366336221863357,0.0021844924270407826
6836.889379073982,0.0028231405085195694,0.0021900597048399783
6836.890378845905,0.0028084542436326247,0.002195676377147255
6836.891378617827,0.0027926318194159395,0.002201158613571175
6836.892378389751,0.002775764044451237,0.002206347909424088
6836.893378161673,0.0027579746128848955,0.0022111139105298267
6836.894377933596,0.0027394182727672294,0.0022153561638320867
6836.895377705519,0.002720278140625161,0.002219004796090638
6836.896377477441,0.0027007622511220275,0.0022220202199455885
6836.897377249365,0.00268109946041091,0.002224392015455978
6836.898377021287,0.0026615348310449873,0.0022261371387354827
6836.89937679321,0.0026423246248268575,0.002227297593867735
6836.900376565132,0.0026237310274381254,0.002227937699645379
6836.901376337055,0.002606016720743813,0.002228141101692591
6836.9023761089775,0.0025894393994768125,0.0022280077047155695
6836.903375880901,0.002574246306756797,0.0022276506932031315
6836.904375652824,0.0025606688561881116,0.0022271937580290455
6836.905375424746,0.002548917428597363,0.002226768576396538
6836.906375196669,0.0025391764681569587,0.0022265125392300685
6836.907374968591,0.0025316000288688237,0.0022265666937947444
6836.908374740515,0.002526307919079358,0.0022270738539849166
6836.909374512437,0.00252338256553837,0.0022281768105097527
6836.91037428436,0.002522866695207705,0.0022300165523120937
6836.9113740562825,0.002524761926889711,0.0022327304074542904
6836.912373828205,0.0025290283617671904,0.0022364500336511024
6836.913373600128,0.0025355852438046903,0.0022412992182004226
6836.914373372051,0.0025443127282489568,0.002247391465602644
6836.915373143974,0.0025550547567989483,0.002254827365548116
6836.916372915896,0.002567622994573608,0.002263691760558558
6836.917372687819,0.0025818017414122405,0.0022740507682236302
6836.9183724597415,0.0025973536902547537,0.002285948743799994
6836.919372231665,0.002614026361303755,0.0022994052905869456
6836.920372003588,0.00263155899055649,0.002314412437617045
6836.92137177551,0.002649689609768204,0.0023309321085738396
6836.922371547433,0.002668162037439253,0.0023488940163815023
6836.923371319355,0.002686732506328509,0.0023681941425127257
6836.924371091279,0.0027051756729494347,0.0023886939765565495
6836.925370863201,0.0027232897844870724,0.0024102206705277937
6836.926370635124,0.00274090081937167,0.0024325682031766634
6836.927370407047,0.0027578654688214977,0.0024554995769180527
6836.928370178969,0.002774072884268507,0.0024787500110075183
6836.929369950893,0.002789445173506001,0.0025020310633538834
6836.930369722815,0.0028039366812145166,0.0025250356013292235
6836.931369494738,0.002817532136916574,0.002547443525269609
6836.93236926666,0.002830243802214507,0.002568928113115624
6836.933369038583,0.0028421078047236254,0.0025891628103219587
6836.9343688105055,0.0028531798940474753,0.0026078282597056415
6836.935368582429,0.0028635308658113744,0.0026246193676195857
6836.936368354352,0.0028732418652867315,0.0026392522249483875
6836.937368126274,0.0028823997316877095,0.0026514707178826864
6836.938367898197,0.0028910925089764266,0.0026610526658170067
6836.939367670119,0.0028994052312644597,0.0026678153242449395
6836.940367442043,0.002907416079466866,0.0026716200996002248
6836.941367213965,0.0029151929993395252,0.0026723763444749613
6836.942366985888,0.002922790870963245,0.0026700441369311234
6836.9433667578105,0.0029302493199164377,0.00266463598727945
6836.944366529733,0.0029375912530551114,0.0026562174420159037
6836.945366301656,0.0029448221796025457,0.002644906565131477
6836.946366073579,0.0029519303334192425,0.002630872293116394
6836.947365845502,0.0029588875515801443,0.0026143317006104842
6836.948365617424,0.0029656508127246057,0.0025955462690015574
6836.949365389347,0.0029721643116910374,0.0025748172933967597
6836.95036516127,0.002978361934247467,0.0025524805822167763
6836.951364933193,0.0029841699860638647,0.0025289006088075336
6836.952364705116,0.0029895100346969176,0.002504464277249424
6836.953364477038,0.002994301755557898,0.002479574460681066
6836.954364248961,0.002998465721276074,0.002454643452176671
6836.955364020883,0.003001926114211805,0.00243008644205017
6836.956363792807,0.003004613358001552,0.002406315115117981
6836.957363564729,0.0030064666474005357,0.002383731448064418
6836.958363336652,0.0030074363095371594,0.0023627217690902597
6836.959363108575,0.0030074858841548056,0.0023436511152158434
6836.960362880497,0.003006593807116876,0.0023268578986731614
6836.961362652421,0.0030047546296110557,0.002312648885344239
6836.962362424343,0.0030019797672707284,0.0023012944977025503
6836.963362196266,0.0029982978032069172,0.002293024483907754
6836.964361968188,0.0029937543629937804,0.0022880240456621516
6836.965361740111,0.00298841157456381,0.002286430574714384
6836.9663615120335,0.002982347144937983,0.002288331179092212
6836.967361283957,0.002975653107324571,0.0022937611669598852
6836.96836105588,0.0029684342871022992,0.002302703613090321
6836.969360827802,0.0029608065106249293,0.0023150900897743756
6836.970360599725,0.002952894563735452,0.002330802614515442
6836.971360371647,0.0029448299063671132,0.0023496768390255073
6836.972360143571,0.0029367481605938367,0.0023715064559233904
6836.973359915493,0.0029287864117718346,0.0023960487233780164
6836.974359687416,0.0029210803921984703,0.0024230309191708662
6836.9753594593385,0.002913761642615788,0.002452157461117879
6836.976359231261,0.002906954767783626,0.0024831173860442404
6836.977359003185,0.0029007749249808762,0.0025155918563590524
6836.978358775107,0.002895325700945196,0.0025492613458318134
6836.97935854703,0.0028906975247692075,0.002583812150476614
6836.980358318952,0.0028869667236983637,0.002618941908625571
6836.981358090875,0.0028841952624498422,0.0026543639195209267
6836.982357862798,0.0028824311282678716,0.0026898101979835154
6836.983357634721,0.0028817092484889634,0.0027250333311798452
6836.984357406644,0.0028820527667863475,0.0027598072656596258
6836.985357178566,0.0028834744696876937,0.0027939271549953966
6836.986356950489,0.0028859781626762314,0.002827208378842674
6836.987356722411,0.002889559853380952,0.0028594848366270366
6836.988356494335,0.002894208684907397,0.0028906066390374167
6836.989356266257,0.0028999076289105883,0.0029204373609382638
6836.99035603818,0.002906633967290086,0.0029488510531904804
6836.991355810103,0.002914359577224857,0.002975729217322227
6836.992355582025,0.002923051020471915,0.0030009579289956498
6836.993355353949,0.002932669440441682,0.003024425264394451
6836.994355125871,0.0029431702801361753,0.0030460191421924905
6836.995354897794,0.0029545028410669855,0.0030656256519664533
6836.996354669716,0.0029666097154850673,0.0030831279153543906
6836.997354441639,0.002979426150460847,0.003098405521943883
6836.9983542135615,0.0029928794295440765,0.0031113345769048315
6836.999353985485,0.003006888360656095,0.003121788373692833
6837.000353757408,0.0030213629327193884,0.0031296386690138327
6837.00135352933,0.0030362041730831826,0.0031347575056916606
6837.002353301253,0.0030513042290582913,0.0031370195128994846
6837.003353073175,0.0030665467097001054,0.003136304618613471
6837.004352845099,0.003081807337337844,0.0031325011354288628
6837.005352617021,0.0030969549543841328,0.0031255092102571934
6837.006352388944,0.0031118529094293188,0.003115244634138388
6837.0073521608665,0.003126360819031147,0.0031016429770760593
6837.008351932789,0.0031403366760474065,0.0030846639516883133
6837.009351704713,0.0031536392527930913,0.0030642958389549336
6837.010351476635,0.0031661307292478614,0.0030405597557875193
6837.011351248558,0.0031776794655936913,0.0030135135267914787
6837.01235102048,0.0031881628334653653,0.002983254937764677
6837.013350792403,0.0031974700175091,0.0029499241758694224
6837.014350564326,0.0032055046930381257,0.0029137052902066802
6837.015350336249,0.0032121874737211266,0.002874826547070741
6837.016350108172,0.0032174580115565286,0.0028335596221357273
6837.017349880094,0.003221276632798732,0.002790217666513248
6837.018349652017,0.0032236254133134997,0.0027451523796274005
6837.019349423939,0.003224508628288478,0.002698750279489265
6837.020349195863,0.003223952549384207,0.002651428354393953
6837.021348967785,0.003222004612710575,0.002603629221000481
6837.022348739708,0.0032187320455510826,0.0025558158413165398
6837.023348511631,0.0032142201047006894,0.00250846579989036
6837.024348283553,0.0032085701258844183,0.0024620651262183954
6837.025348055477,0.003201897600906503,0.0024171016659822885
6837.026347827399,0.0031943304778686813,0.0023740580549899914
6837.027347599322,0.003186007811519653,0.002333404420675595
6837.028347371244,0.0031770787823495734,0.002295590996646187
6837.029347143167,0.0031677019834529087,0.002261040849477723
6837.03034691509,0.0031580447820865414,0.0022301428809762473
6837.031346687013,0.003148282526943957,0.002203245220303705
6837.032346458936,0.0031385973981973977,0.002180649095412986
6837.033346230858,0.003129176768070562,0.0021626032788302618
6837.034346002781,0.003120211026127864,0.0021492992222871816
6837.035345774704,0.0031118908988244077,0.0021408670074353096
6837.036345546627,0.003104404340928006,0.002137372235348523
6837.037345318549,0.003097933092921484,0.002138813960711596
6837.038345090472,0.0030926489902168516,0.00214512375843237
6837.0393448623945,0.003088710096049831,0.002156165990245065
6837.040344634317,0.0030862567368523794,0.002171739304990762
6837.041344406241,0.003085407557551476,0.002191579355568393
6837.042344178163,0.0030862557607814595,0.0022153626626378615
6837.043343950086,0.00308886571400009,0.002242711521141236
6837.044343722008,0.0030932700966608082,0.002273199841333211
6837.045343493931,0.0030994677348962557,0.0023063598313817625
6837.046343265854,0.0031074222431266927,0.0023416894385915646
6837.047343037777,0.003117061553719527,0.0023786604497693454
6837.0483428097,0.00312827836333976,0.0024167271073551417
6837.049342581622,0.0031409314672073228,0.002455335046762063
6837.050342353545,0.0031548479034391114,0.002493930329630534
6837.051342125467,0.003169825793924291,0.0025319683562289082
6837.052341897391,0.0031856377426956383,0.002568922484626275
6837.053341669313,0.0032020346376101347,0.002604292235455166
6837.054341441236,0.0032187497034005365,0.002637610982794798
6837.055341213159,0.0032355026777090173,0.0026684530115908566
6837.056340985081,0.0032520040197057897,0.0026964397834455867
6837.057340757005,0.003267959100634279,0.002721245235813807
6837.058340528927,0.0032830723558687535,0.002742599967257144
6837.05934030085,0.003297051390406752,0.0027602942148795056
6837.060340072772,0.003309611020830267,0.002774179571399179
6837.061339844695,0.0033204772167397143,0.002784169411238937
6837.062339616618,0.0033293908935626104,0.0027902380234181095
6837.063339388541,0.003336111515278073,0.0027924184943590247
6837.064339160464,0.0033404204816849512,0.00279079942681722
6837.065338932386,0.0033421242914974114,0.0027855206082038706
6837.066338704309,0.003341057485149579,0.0027767677608896224
6837.067338476232,0.003337085373238543,0.0027647665318817124
6837.068338248155,0.003330106545910731,0.0027497759126376762
6837.069338020077,0.003320055143247157,0.002732081311214883
6837.070337792,0.0033069028521871785,0.0027119875085093535
6837.0713375639225,0.003290660573484341,0.0026898117046754186
6837.072337335845,0.0032713796679048526,0.002665876808097564
6837.073337107769,0.0032491526649821227,0.002640505060284716
6837.074336879691,0.0032241133295091897,0.0026140120520753104
6837.075336651614,0.0031964360285473953,0.002586701189763001
6837.076336423536,0.0031663343836254485,0.002558858712631404
6837.077336195459,0.0031340591902754133,0.002530749412878314
6837.078335967382,0.003099895550750237,0.002502613222075845
6837.079335739305,0.0030641591486991688,0.0024746627892378186
6837.080335511228,0.003027191638679474,0.0024470821045830286
6837.08133528315,0.002989355223738558,0.0024200261525639402
6837.082335055073,0.002951026609854156,0.0023936215274443207
6837.083334826995,0.002912590609672693,0.0023679679180048903
6837.084334598919,0.0028744336889190546,0.002343140357311379
6837.085334370841,0.002836937705096408,0.002319192125135669
6837.086334142764,0.0028004740099092764,0.0022961581748279294
6837.087333914687,0.002765398016432476,0.0022740589348695674
6837.088333686609,0.0027320442864121374,0.002252904315029493
6837.089333458533,0.0027007221562275674,0.002232697734738564
6837.090333230455,0.002671711877655935,0.0022134399940448167
6837.091333002378,0.0026452612141818444,0.0021951328317438073
6837.0923327743,0.0026215824244179126,0.002177782063035815
6837.093332546223,0.0026008495776054207,0.002161400248866635
6837.094332318146,0.0025831961662748475,0.0021460088931416093
6837.095332090069,0.0025687130095710707,0.002131640170321831
6837.096331861992,0.0025574464886287357,0.0021183381626036714
6837.097331633914,0.0025493972138742674,0.002106159563628931
6837.098331405837,0.002544519267210621,0.00209517381170931
6837.09933117776,0.0025427201711073696,0.002085462655015377
6837.100330949683,0.002543861711383363,0.002077119203859038
6837.101330721605,0.00254776169586802,0.002070246561404039
6837.102330493528,0.002554196684617726,0.0020649561280211646
6837.1033302654505,0.0025629056831246127,0.002061365651604489
6837.104330037373,0.002573594741453349,0.002059597064457841
6837.105329809297,0.0025859423493154064,0.0020597741253824023
6837.106329581219,0.0025996054684640046,0.002062019883364981
6837.107329353142,0.0026142260068065535,0.0020664539942022255
6837.108329125064,0.0026294375209113007,0.002073189940289903
6837.109328896987,0.0026448719467779005,0.0020823322108945623
6837.11032866891,0.002660166200510845,0.00209397348915999
6837.111328440833,0.002674968530969684,0.0021081918711682167
6837.112328212756,0.002688944516365708,0.0021250481255493266
6837.113327984678,0.002701782585554791,0.0021445829967753184
6837.114327756601,0.0027131989499084097,0.002166814560727356
6837.115327528524,0.002722941871470964,0.0021917356528032925
6837.116327300447,0.0027307952457400132,0.002219311397805387
6837.117327072369,0.0027365815089008374,0.0022494768691814692
6837.118326844292,0.0027401638797720914,0.0022821349000488635
6837.119326616215,0.0027414479299708756,0.0023171540808836475
6837.120326388138,0.002740382458568161,0.0023543670204291397
6837.121326160061,0.002736959644034795,0.0023935690040007836
6837.122325931983,0.002731214466514096,0.0024345172313450197
6837.123325703906,0.0027232234290065173,0.0024769308373473785
6837.124325475828,0.0027131026349475496,0.002520491888333038
6837.125325247751,0.0027010052919182732,0.002564847506341387
6837.126325019674,0.0026871187143285543,0.002609613212876657
6837.127324791597,0.002671660901214918,0.0026543775185232325
6837.12832456352,0.0026548767695320154,0.0026987077257045636
6837.129324335442,0.0026370341200240106,0.002742156851197025
6837.130324107365,0.0026184193961512605,0.002784271500293323
6837.131323879288,0.0025993332799448764,0.002824600442603258
6837.132323651211,0.002580086175741549,0.002862703575339234
6837.133323423133,0.002560993668628517,0.002898160932863853
6837.134323195056,0.0025423720891326325,0.0029305814098744562
6837.1353229669785,0.0025245343422649804,0.0029596108916386146
6837.136322738901,0.0025077861470980583,0.0029849395121346388
6837.137322510825,0.002492422779581068,0.003006307794223648
6837.138322282747,0.0024787263399567504,0.0030235114833831837
6837.13932205467,0.002466963510964666,0.0030364049744238666
6837.140321826592,0.0024573837469824547,0.0030449033301376454
6837.141321598515,0.0024502178254231094,0.003048982973502602
6837.142321370438,0.0024456766856726635,0.0030486811869460135
6837.143321142361,0.002443950472113034,0.003044094573948143
6837.144320914284,0.0024452076855270245,0.00303537663181982
6837.145320686206,0.002449594336905065,0.0030227345570599503
6837.146320458129,0.0024572330025967944,0.003006425374092273
6837.147320230052,0.0024682217057179004,0.0029867514564252823
6837.148320001975,0.0024826325811524944,0.002964055493901176
6837.149319773897,0.0025005103018640026,0.002938714949990689
6837.15031954582,0.0025218702569715177,0.002911136057049807
6837.151319317743,0.002546696498395224,0.0028817474153282775
6837.152319089666,0.0025749395173649417,0.002850993281130516
6837.153318861589,0.002606513953553033,0.0028193266424019984
6837.154318633511,0.002641296358554349,0.0027872021856696692
6837.155318405434,0.0026791231356560366,0.002755069256116825
6837.156318177356,0.002719788781346105,0.0027233649050961775
6837.157317949279,0.0027630445808700965,0.002692507114187989
6837.158317721202,0.002808597953533622,0.0026628882836435557
6837.159317493125,0.0028561126661918305,0.0026348690723351823
6837.160317265048,0.002905210104082166,0.002608772681068759
6837.16131703697,0.0029554717160338996,0.0025848796856854897
6837.162316808893,0.003006442672254045,0.0025634235362436875
6837.163316580816,0.0030576367092115483,0.0025445868244336088
6837.164316352739,0.0031085420800058628,0.0025284983865622723
6837.165316124661,0.0031586284650529928,0.0025152312773446626
6837.166315896584,0.0032073546289553287,0.002504801640304995
6837.1673156685065,0.0032541765531090864,0.0024971685116557687
6837.16831544043,0.003298555748857467,0.002492234601997312
6837.169315212353,0.0033399674738587254,0.002489848086481177
6837.170314984275,0.0033779086325296036,0.002489805413042411
6837.171314756198,0.0034119052184387296,0.00249185513223636
6837.17231452812,0.0034415192262169277,0.0024957027550687933
6837.173314300044,0.0034663550171950435,0.002501016634149185
6837.174314071966,0.0034860651685823044,0.002507434832165964
6837.175313843889,0.003500355851972226,0.0025145728971656756
6837.176313615812,0.003508991757663161,0.0025220324081914815
6837.177313387734,0.0035118005322980197,0.0025294100892090444
6837.178313159657,0.0035086766667661636,0.0025363072273998683
6837.17931293158,0.0034995847560268583,0.0025423390917520597
6837.180312703503,0.003484562021709156,0.0025471440333221253
6837.181312475425,0.0034637199376912646,0.00255039194732219
6837.182312247348,0.003437244757660513,0.0025517917852168137
6837.183312019271,0.0034053967382328847,0.0025510978384664894
6837.184311791194,0.00336850788637091,0.0025481145850168654
6837.185311563117,0.003326978129931672,0.0025426999806554573
6837.186311335039,0.003281269908604069,0.0025347671662142406
6837.187311106962,0.003231901295389839,0.002524284633659307
6837.188310878884,0.003179437860783029,0.0025112749477002494
6837.189310650807,0.0031244835591185166,0.002495812164077928
6837.19031042273,0.0030676709407520307,0.0024780181301211463
6837.191310194653,0.0030096509818206057,0.002458057892836705
6837.192309966576,0.0029510827919125866,0.0024361344620785104
6837.193309738498,0.0028926234239107494,0.002412483175689544
6837.194309510421,0.0028349179723049255,0.0023873658938626963
6837.195309282344,0.0027785901053019235,0.0023610652175693045
6837.196309054267,0.0027242331405241903,0.0023338788845342663
6837.197308826189,0.002672401756176848,0.0023061144484644272
6837.198308598112,0.002623604430280066,0.002278084301274592
6837.1993083700345,0.002578296707330169,0.002250101068587658
6837.200308141958,0.0025368753921435052,0.002222473401194643
6837.201307913881,0.002499673765114074,0.0021955021821677295
6837.202307685803,0.0024669579097414333,0.0021694771467898905
6837.203307457726,0.0024389242434401646,0.002144673871699431
6837.204307229648,0.0024156983355461924,0.0021213510627021218
6837.205307001572,0.002397335068172701,0.0020997480826122922
6837.206306773494,0.0023838201476628633,0.0020800826958470697
6837.207306545417,0.0023750729290776804,0.0020625490323224515
6837.20830631734,0.002370950493201644,0.0020473157823260413
6837.209306089262,0.0023712529084385895,0.002034524642382132
6837.210305861185,0.0023757295948745633,0.002024289047337642
6837.211305633108,0.0023840866738384847,0.0020166932373380953
6837.212305405031,0.0023959951467731,0.0020117917092903814
6837.213305176953,0.0024110997155202766,0.002009609089969128
6837.214304948876,0.0024290280238284494,0.0020101404502628458
6837.215304720799,0.002449400055317751,0.0020133520651883616
6837.216304492722,0.0024718373790945393,0.002019182614844163
6837.217304264645,0.0024959719152542856,0.00202754481411378
6837.218304036567,0.0025214539055297197,0.0020383274458220095
6837.21930380849,0.0025479588112929047,0.002051397750213468
6837.220303580412,0.0025751929159995262,0.0020666041049442496
6837.221303352335,0.0026028974763803044,0.002083778930028276
6837.222303124258,0.002630851340411376,0.002102741766326326
6837.223302896181,0.0026588720316137694,0.002123302477759971
6837.224302668104,0.0026868153842531336,0.002145264501076929
6837.225302440026,0.002714573878395837,0.0021684280335206893
6837.226302211949,0.0027420738465489983,0.0021925930475607007
6837.227301983872,0.0027692717129612324,0.0022175620671106527
6837.228301755795,0.0027961494056481305,0.0022431427005901185
6837.229301527717,0.0028227090672719776,0.002269149954328146
6837.23030129964,0.002848967196792799,0.002295408325931239
6837.2313010715625,0.0028749483845717573,0.0023217536321044874
6837.232300843486,0.002900678852968096,0.002348034511797564
6837.233300615409,0.00292618007178343,0.0023741135863339625
6837.234300387331,0.0029514627676992663,0.0023998683254829096
6837.235300159254,0.0029765216662180098,0.002425191713878829
6837.236299931176,0.003001331280966439,0.002449992811609334
6837.2372997031,0.00302584300755457,0.0024741972713835506
6837.238299475022,0.0030499837008519386,0.002497747844105859
6837.239299246945,0.0030736558205203576,0.0025206048915160464
6837.240299018868,0.0030967391259509995,0.0025427469237746725
6837.24129879079,0.0031190937993225013,0.00256417117669821
6837.242298562713,0.0031405647815848465,0.002584894220257636
6837.243298334636,0.0031609870279377564,0.0026049525347414597
6837.244298106559,0.0031801913426162676,0.00262440291420393
6837.245297878481,0.0031980104485858462,0.0026433224934634034
6837.246297650404,0.00321428497430002,0.002661808172310789
6837.247297422327,0.0032288690737803673,0.002679975222399238
6837.24829719425,0.003241635431296764,0.0026979548939527953
6837.249296966173,0.0032524794506966492,0.0027158909038549903
6837.250296738095,0.0032613224950459913,0.00273393480312273
6837.251296510018,0.003268114104367586,0.0027522403690536067
6837.25229628194,0.0032728331630804274,0.002770957289864966
6837.253296053864,0.0032754880230484494,0.002790224473982615
6837.254295825786,0.0032761156203875825,0.0028101633389674805
6837.255295597709,0.0032747796498006597,0.002830871443882936
6837.256295369632,0.0032715678858745356,0.002852416817981859
6837.257295141554,0.0032665887804381446,0.0028748332832814532
6837.258294913478,0.003259967509324167,0.0028981169643428374
6837.2592946854,0.003251841665221724,0.002922224050044435
6837.260294457323,0.003242356785920031,0.002947069759019066
6837.261294229245,0.0032316618758830955,0.0029725284002948527
6837.262294001168,0.003219905035991227,0.0029984344272627832
6837.2632937730905,0.003207229280465333,0.0030245844324648776
6837.264293545014,0.0031937686073355187,0.0030507400781611045
6837.265293316937,0.0031796443990212996,0.003076631970951821
6837.266293088859,0.0031649622553838424,0.0031019644616055485
6837.267292860782,0.0031498093964981277,0.003126421295992228
6837.268292632704,0.0031342528002373826,0.0031496719834634757
6837.269292404628,0.0031183382360515854,0.0031713787095351683
6837.27029217655,0.003102090310595259,0.003191203605719336
6837.271291948473,0.003085513565665515,0.003208816184206458
6837.272291720396,0.0030685945852727274,0.0032239007341476134
6837.273291492318,0.0030513049979436855,0.003236163464558209
6837.274291264241,0.003033605220848334,0.003245339178934845
6837.275291036164,0.0030154487820966123,0.0032511972814671104
6837.276290808087,0.002996787055892912,0.0032535469415293002
6837.277290580009,0.0029775742439543916,0.0032522412827349395
6837.278290351932,0.002957772442699607,0.003247180515221027
6837.279290123855,0.0029373566425872043,0.0032383139892729457
6837.280289895778,0.0029163194973231815,0.003225641203389251
6837.281289667701,0.0028946756815043813,0.003209211830820333
6837.282289439623,0.002872465651412092,0.003189124819091114
6837.283289211546,0.002849758649325679,0.0031655265796095805
6837.284288983468,0.0028266548302913223,0.003138608257989777
6837.285288755392,0.002803286412782268,0.00310860208521192
6837.286288527314,0.0027798177574344875,0.0030757768464307485
6837.287288299237,0.002756444288956665,0.0030404325508754174
6837.28828807116,0.002733390214925665,0.0030028944372413476
6837.289287843082,0.002710905045024976,0.002963506498501473
6837.290287615006,0.0026892589510042605,0.0029226247483402656
6837.291287386928,0.002668737036181858,0.002880610477165841
6837.292287158851,0.002649632625893829,0.002837823758829665
6837.293286930773,0.002632239749950009,0.002794617455189434
6837.294286702696,0.002616845045116809,0.002751331910840154
6837.2952864746185,0.002603719342476895,0.0027082904508885152
6837.296286246542,0.0025931092192424277,0.0026657957298336695
6837.297286018465,0.0025852287916904894,0.0026241269519493267
6837.298285790387,0.002580252007408193,0.002583537979458979
6837.29928556231,0.0025783056678898475,0.002544256337779069
6837.300285334232,0.002579463392172794,0.0025064831050805626
6837.301285106156,0.002583740723807151,0.0024703936411083582
6837.302284878078,0.002591091570757707,0.0024361390792231852
6837.303284650001,0.0026014061343595015,0.002403848485068728
6837.304284421924,0.00261451043353451,0.0023736315729902574
6837.305284193846,0.002630167481328049,0.0023455818536585755
6837.306283965769,0.002648080132822522,0.0023197800521966585
6837.307283737692,0.0026678955912634913,0.0022962975920150083
6837.308283509615,0.0026892115180649993,0.002275199907145053
6837.309283281537,0.002711583634668445,0.0022565493439131836
6837.31028305346,0.002734534641623716,0.0022404074441981477
6837.311282825383,0.0027575642360730037,0.002226836457668117
6837.312282597306,0.0027801599941841616,0.002215899999424803
6837.313282369229,0.002801808884685386,0.0022076628496908537
6837.314282141151,0.00282200916728956,0.002202189981213379
6837.315281913074,0.0028402823945325307,0.0021995449805013115
6837.316281684996,0.002856185187999678,0.0021997880709356044
6837.31728145692,0.002869320420734957,0.002202973933960835
6837.318281228842,0.0028793474233591316,0.0022091494758960995
6837.319281000765,0.0028859908447815765,0.002218351635053932
6837.320280772688,0.002889047831954095,0.0022306052868945854
6837.32128054461,0.0028883932423452567,0.002245921285866311
6837.322280316534,0.0028839826706261733,0.0022642946798143533
6837.323280088456,0.0028758531629872177,0.0022857031430389115
6837.324279860379,0.0028641216081357304,0.0023101056825799915
6837.325279632301,0.0028489809163216437,0.002337441662108616
6837.326279404224,0.002830694197033695,0.002367630156876804
6837.3272791761465,0.0028095872048688156,0.0024005696129371355
6837.32827894807,0.0027860393536257525,0.002436137749702306
6837.3292787199925,0.00276047363086113,0.0024741916302618754
6837.330278491915,0.0027333457961325894,0.002514567833243894
6837.331278263838,0.0027051332989416186,0.00255708269082814
6837.33227803576,0.002676324369229304,0.002601532604965435
6837.333277807684,0.0026474076913670253,0.0026476945044894536
6837.334277579606,0.00261886298098462,0.0026953265398481896
6837.335277351529,0.002591152669740112,0.002744169119195451
6837.336277123452,0.002564714790148768,0.0027939463681099855
6837.337276895374,0.002539957055213727,0.002844368043523662
6837.338276667298,0.0025172520574482304,0.0028951318557490454
6837.33927643922,0.002496933478865378,0.0029459260716696704
6837.340276211143,0.0024792932068202554,0.002996432215724213
6837.341275983065,0.002464579273483696,0.003046327674424244
6837.342275754988,0.002452994551453338,0.0030952880467489626
6837.343275526911,0.0024446961232860334,0.0031429891486695646
6837.344275298834,0.0024397952068581966,0.003189108653858087
6837.3452750707565,0.0024383574944502307,0.00323332742541687
6837.346274842679,0.0024404037694616136,0.0032753306587120622
6837.347274614602,0.0024459106856957527,0.0033148089946722237
6837.348274386524,0.0024548116136578714,0.003351459761437668
6837.349274158448,0.002466997484171733,0.003384988470325067
6837.35027393037,0.0024823176056962574,0.0034151106525411364
6837.351273702293,0.0025005804938781975,0.0034415540902085363
6837.352273474216,0.0025215548123448004,0.003464061480435517
6837.353273246138,0.0025449705675510944,0.003482393583280701
6837.354273018062,0.0025705207220140473,0.0034963329248663302
6837.355272789984,0.002597863387850926,0.0035056881100784102
6837.356272561907,0.002626624734378749,0.0035102987181100404
6837.357272333829,0.0026564026937507903,0.00351004062832453
6837.358272105752,0.0026867714923698672,0.0035048314995316
6837.3592718776745,0.002717286988821427,0.003494636040964828
6837.360271649598,0.0027474927621554753,0.003479470681106438
6837.3612714215205,0.0027769268587470976,0.0034594072512768395
6837.362271193443,0.002805129072301517,0.003434575339773614
6837.363270965366,0.0028316486080267014,0.0034051630372052737
6837.364270737288,0.002856051963136397,0.0033714158995273953
6837.365270509212,0.002877930820878519,0.0033336341156419676
6837.366270281134,0.0028969096986853327,0.0032921680535709357
6837.367270053057,0.0029126530475171134,0.0032474125002868617
6837.36826982498,0.002924871519314731,0.0031997999520664224
6837.369269596902,0.002933327213377131,0.003149793269433539
6837.370269368826,0.0029378378337673043,0.0030978779353176074
6837.371269140748,0.0029382797745794655,0.0030445540932127002
6837.372268912671,0.002934590168780096,0.002990328523121489
6837.373268684593,0.002926767912216183,0.0029357067345083866
6837.374268456516,0.00291487365064308,0.0028811853777194908
6837.375268228439,0.002899028711939837,0.0028272451611827797
6837.376268000362,0.0028794129712084227,0.0027743444161624753
6837.3772677722845,0.0028562616570978264,0.002722913405510079
6837.378267544207,0.0028298611533775077,0.002673349445564746
6837.37926731613,0.0028005439048631752,0.002626012892691545
6837.380267088052,0.0027686825730463376,0.002581224022471177
6837.381266859976,0.0027346836001832537,0.002539260799636379
6837.382266631898,0.002698980347978436,0.002500357510769872
6837.383266403821,0.002662025988968333,0.0024647042109862075
6837.384266175744,0.002624286342708403,0.0024324469166470742
6837.385265947666,0.002586232856149456,0.0024036884671968456
6837.38626571959,0.00254833591819662,0.0023784899887246817
6837.387265491512,0.002511058666390106,0.00235687290590856
6837.388265263435,0.0024748513919364517,0.0023388214476249124
6837.389265035357,0.002440146590959905,0.00232428557992455
6837.39026480728,0.002407354663077037,0.0023131843016880355
6837.391264579203,0.002376860233814616,0.002305409258121422
6837.392264351126,0.0023490190666233374,0.0023008286410908093
6837.3932641230485,0.0023241555168263413,0.0022992913287697113
6837.394263894971,0.002302560461922133,0.0023006311713903893
6837.395263666894,0.002284489631035407,0.002304671276341406
6837.396263438817,0.002270162255105907,0.0023112281083949916
6837.39726321074,0.002259759965241019,0.002320115217111916
6837.398262982662,0.0022534258778684787,0.0023311464399180214
6837.399262754585,0.0022512638186976013,0.0023441384954156173
6837.400262526508,0.002253337644901767,0.00235891295457419
6837.40126229843,0.00225967062255466,0.002375297640280751
6837.402262070354,0.002270244816781764,0.0023931275535599996
6837.403261842276,0.002285000481837769,0.0024122454554715337
6837.404261614199,0.0023038355097735434,0.002432502241884661
6837.405261386121,0.0023266050810113598,0.0024537572322981724
6837.406261158044,0.002353121708159791,0.0024758784623110787
6837.407260929967,0.0023831558511695355,0.0024987430368132242
6837.40826070189,0.0024164372194417716,0.0025222375736652924
6837.4092604738125,0.0024526567901174646,0.0025462587378088297
6837.410260245735,0.002491469489315976,0.0025707138291294765
6837.411260017658,0.002532497435292212,0.002595521358439122
6837.41225978958,0.0025753336458988214,0.0026206115389118
6837.413259561504,0.0026195461523689525,0.002645926624264562
6837.414259333426,0.002664682507066415,0.002671421017981657
6837.415259105349,0.0027102747073864484,0.0026970610607143955
6837.416258877272,0.0027558445755840742,0.002722824400950398
6837.417258649194,0.002800909625243568,0.0027486988856850136
6837.418258421118,0.002844989404478298,0.002774680963679748
6837.41925819304,0.002887612246001014,0.0028007736485349396
6837.420257964963,0.002928322291282395,0.0028269841254145215
6837.421257736885,0.0029666865973497947,0.002853321102143758
6837.422257508808,0.0030023020873230343,0.002879792005828857
6837.423257280731,0.0030348020843276643,0.002906400115090853
6837.424257052654,0.003063862186576768,0.0029331417060662573
6837.4252568245765,0.0030892052987840654,0.002960003286454303
6837.426256596499,0.0031106057146281685,0.002986958993465771
6837.427256368422,0.003127892222021629,0.0030139682331451543
6837.428256140345,0.0031409502562663658,0.003040973644322002
6837.429255912268,0.003149723143726498,0.0030678994832599622
6837.43025568419,0.003154212462227293,0.003094650532475084
6837.431255456113,0.0031544775121467084,0.0031211116271300837
6837.432255228036,0.003150633867705744,0.0031471478758255873
6837.433254999958,0.003142850975205699,0.003172605651063725
6837.434254771882,0.003131348786877472,0.0031973144370294683
6837.435254543804,0.0031163934611759827,0.003221089619103656
6837.436254315727,0.0030982922083837303,0.003243736254432413
6837.437254087649,0.0030773873979828732,0.0032650537809558655
6837.438253859572,0.0030540500702643863,0.0032848415306856405
6837.439253631495,0.003028673018494478,0.0033029048325720406
6837.440253403418,0.003001663630206862,0.0033190614268094575
6837.4412531753405,0.002973436685941808,0.0033331478688540727
6837.442252947263,0.002944407299351458,0.0033450255831393148
6837.443252719186,0.0029149841429415096,0.003354586239035116
6837.444252491108,0.0028855630570951414,0.003361756174793843
6837.445252263032,0.0028565211118243175,0.003366499695893442
6837.446252034954,0.0028282111833980842,0.0033688212027016516
6837.447251806877,0.002800957100963163,0.003368766212194117
6837.4482515788,0.002775049407293867,0.0033664213914999614
6837.449251350722,0.002750741787257841,0.0033619137128121724
6837.450251122646,0.0027282482543898733,0.003355408787242201
6837.451250894568,0.002707741212522286,0.003347108365606446
6837.452250666491,0.002689350488267267,0.003337246944443646
6837.453250438413,0.0026731633703231373,0.0033260874227151855
6837.454250210336,0.0026592256299895704,0.0033139158242974473
6837.455249982259,0.002647543457889693,0.003301035200011055
6837.456249754182,0.002638086237852814,0.003287758905066541
6837.4572495261045,0.0026307900795780816,0.003274403487011167
6837.458249298027,0.0026255620242420065,0.0032612814194541476
6837.45924906995,0.0026222848036056546,0.003248693902342136
6837.460248841873,0.00262082198657461,0.0032369239388070747
6837.461248613796,0.0026210233244047545,0.0032262298870880377
6837.462248385718,0.002622730125077677,0.0032168396635916334
6837.463248157641,0.0026257805256274308,0.003208945744081843
6837.464247929564,0.0026300145498254855,0.0032027010808834515
6837.465247701486,0.0026352788232685076,0.00319821602277516
6837.46624747341,0.002641430789353963,0.0031955562909848586
6837.467247245332,0.0026483422634041446,0.003194742034582684
6837.468247017255,0.0026559021956872432,0.0031957479668245684
6837.469246789177,0.002664018569410004,0.0031985045736417687
6837.4702465611,0.0026726194031772062,0.0032029003776358456
6837.471246333023,0.002681652845452586,0.003208785218123109
6837.472246104946,0.002691086361967925,0.003215974469866285
6837.4732458768685,0.0027009050581574185,0.003224254089181302
6837.474245648791,0.002711109252282165,0.003233386354715804
6837.475245420714,0.0027217114846437847,0.0032431161512123854
6837.476245192637,0.002732733169524189,0.0032531776200129853
6837.47724496456,0.002744201059402586,0.003263300974399294
6837.478244736482,0.002756143626478908,0.003273219258015247
6837.479244508405,0.0027685874164026947,0.0032826748135668673
6837.480244280328,0.0027815534154337525,0.003291425228567757
6837.481244052251,0.002795053487540783,0.003299248534473088
6837.482243824174,0.0028090869615364014,0.003305947454208608
6837.483243596096,0.0028236374703160087,0.003311352530205511
6837.484243368019,0.0028386701621026167,0.003315324033978955
6837.485243139941,0.00285412940816413,0.003317752655330398
6837.486242911864,0.0028699371205739314,0.003318559070623756
6837.487242683787,0.002885991781028181,0.0033176925656025866
6837.48824245571,0.0029021682720448637,0.0033151289214053054
6837.4892422276325,0.002918318579967709,0.0033108677747024024
6837.490241999555,0.002934273395561044,0.0033049296625614934
6837.491241771478,0.002949844581258025,0.0032973529639808673
6837.492241543401,0.002964828416438266,0.0032881909290893214
6837.493241315324,0.0029790094798859356,0.003277508934389306
6837.494241087246,0.0029921649919059895,0.0032653820419568575
6837.495240859169,0.003004069436383821,0.003251892896916839
6837.496240631092,0.003014499324565931,0.003237129967980206
6837.497240403014,0.0030232380259744623,0.003221186107476132
6837.498240174938,0.0030300806373251303,0.003204157384656237
6837.49923994686,0.0030348388639471224,0.003186142140113145
6837.500239718783,0.0030373458578729726,0.003167240215644663
6837.501239490705,0.0030374609137334262,0.003147552322535013
6837.502239262628,0.0030350738855267415,0.0031271795187572896
6837.503239034551,0.003030109170712469,0.003106222771000433
6837.504238806474,0.003022529124342694,0.003084782585110491
6837.5052385783965,0.0030123368054395423,0.0030629587095813314
6837.506238350319,0.002999577995481395,0.003040849945317004
6837.507238122242,0.0029843424510859547,0.003018554100062491
6837.508237894165,0.002966764366587278,0.002996168086386766
6837.509237666088,0.002947022039832851,0.002973788096351845
6837.51023743801,0.0029253367591154664,0.002951509739393552
6837.511237209933,0.0029019709475082327,0.0029294280388716502
6837.512236981856,0.002877225593227894,0.0029076372448533
6837.513236753779,0.002851436958512477,0.002886230494937663
6837.514236525702,0.0028249725202281616,0.0028652994002841344
6837.515236297624,0.0027982260841054487,0.0028449336437077035
6837.516236069547,0.002771612040322585,0.0028252206642408392
6837.517235841469,0.0027455587823141336,0.002806245470960141
6837.518235613392,0.0027205013836167006,0.002788090573239153
6837.519235385315,0.0026968737035044446,0.0027708359493612005
6837.520235157238,0.0026751001438914033,0.0027545589415276434
6837.5212349291605,0.0026555872911272144,0.0027393339907006093
6837.522234701083,0.00263871565846373,0.0027252321828771186
6837.523234473006,0.002624831722828251,0.002712320616805949
6837.524234244929,0.0026142404359368373,0.002700661607647937
6837.525234016852,0.0026071983770205942,0.0026903117394513143
6837.526233788774,0.002603907691397485,0.0026813207943467816
6837.527233560697,0.002604510934802515,0.0026737306140418907
6837.52823333262,0.0026090869392938363,0.002667573972945519
6837.529233104543,0.0026176478342535884,0.0026628735493837755
6837.530232876466,0.0026301373685094355,0.002659641067757208
6837.531232648388,0.0026464306579968206,0.002657876652694735
6837.532232420311,0.002666335421961414,0.002657568393763477
6837.533232192233,0.0026895946880492985,0.00265869208067389
6837.534231964157,0.002715890873025435,0.0026612110556354157
6837.535231736079,0.002744851105074555,0.002665076154114215
6837.536231508002,0.0027760536422114755,0.0026702257514490254
6837.5372312799245,0.0028090352317299795,0.002676585964610015
6837.538231051847,0.0028432992318565007,0.0026840710552015644
6837.53923082377,0.0028783242893966094,0.0026925840533367647
6837.540230595693,0.002913573345097961,0.002702017595885686
6837.541230367616,0.002948502717269776,0.002712254956140116
6837.542230139538,0.0029825710011201116,0.00272317123103197
6837.543229911461,0.0030152475403199797,0.0027346346428247124
6837.544229683384,0.0030460202871017313,0.002746507902031095
6837.545229455307,0.003074402940266834,0.0027586495684556456
6837.54622922723,0.003099941296710836,0.002770915352493438
6837.547228999152,0.003122218761449109,0.002783159330365703
6837.548228771075,0.0031408609649189847,0.0027952350833300456
6837.549228542997,0.00315553947020079,0.0028069967775804965
6837.55022831492,0.003165974614632239,0.002818300179108289
6837.551228086843,0.0031719375835228434,0.0028290035795524634
6837.552227858766,0.0031732518276054392,0.002838968617535661
6837.5532276306885,0.0031697939149263423,0.0028480610097636203
6837.554227402611,0.003161493884503062,0.0028561512384406135
6837.555227174534,0.0031483351700412176,0.0028631152588635828
6837.556226946457,0.0031303541800127956,0.0028688352882045303
6837.55722671838,0.003107639621025834,0.0028732007229715266
6837.558226490302,0.003080331609357225,0.0028761092205226244
6837.559226262225,0.0030486205424094777,0.002877467975690789
6837.560226034148,0.0030127456375750876,0.002877195230637568
6837.561225806071,0.002972993023543505,0.0028752220695893453
6837.562225577994,0.002929693289817425,0.0028714945487424834
6837.563225349916,0.0028832184424820483,0.0028659761755341516
6837.564225121839,0.0028339782587577314,0.0028586506883393455
6837.565224893761,0.0027824160716180386,0.002849525022999032
6837.566224665685,0.0027290040437021696,0.002838632299032904
6837.567224437607,0.0026742380044736695,0.002826034610721165
6837.56822420953,0.002618631932465689,0.00281182536559949
6837.5692239814525,0.002562712170244845,0.002796130893027588
6837.570223753375,0.0025070114555340497,0.002779111071125438
6837.571223525298,0.002452062834437795,0.002760958793254755
6837.572223297221,0.0023983935115856844,0.0027418981888250866
6837.573223069144,0.0023465187083837797,0.002722181594034194
6837.574222841066,0.002296935633103021,0.0027020853229113447
6837.575222612989,0.0022501176821568985,0.0026819043303886177
6837.576222384912,0.0022065089759428576,0.0026619459071477755
6837.577222156835,0.0021665192987807363,0.0026425226073025143
6837.578221928758,0.0021305194809500194,0.0026239446741526643
6837.57922170068,0.0020988372420865263,0.0026065122779961153
6837.580221472603,0.0020717535081186777,0.0025905078976006957
6837.581221244525,0.0020494992088028415,0.0025761891598024187
6837.582221016448,0.002032252550328114,0.002563782409420875
6837.583220788371,0.002020136743701242,0.002553477225869798
6837.584220560294,0.002013218181216414,0.0025454220408957077
6837.5852203322165,0.002011505109397921,0.002539720951863361
6837.586220104139,0.0020149469252829623,0.0025364317736293923
6837.587219876062,0.0020234342731925963,0.0025355653277545627
6837.588219647985,0.0020368001098997933,0.002537085927426141
6837.589219419908,0.002054821845982191,0.0025409129846659436
6837.59021919183,0.0020772245891621023,0.0025469236467363563
6837.591218963753,0.002103685438969618,0.002554956351367944
6837.592218735676,0.002133838729590097,0.0025648151630747393
6837.593218507599,0.0021672820953565603,0.002576274720266762
6837.594218279522,0.0022035832343731197,0.0025890856046843808
6837.595218051444,0.0022422872592097773,0.002602979952340365
6837.596217823367,0.0022829245403608225,0.002617677151256821
6837.597217595289,0.002325018957049581,0.002632889500410047
6837.598217367213,0.002368096457651521,0.0026483277240384627
6837.599217139135,0.0024116937938881452,0.0026637062401880652
6837.600216911058,0.0024553672399225657,0.0026787480772512084
6837.6012166829805,0.002498701060065086,0.0026931893296237744
6837.602216454903,0.0025413154648182765,0.0027067830504654915
6837.603216226826,0.002582873795865365,0.0027193024946714156
6837.604215998749,0.002623088689032838,0.0027305436481318297
6837.605215770672,0.0026617269664199346,0.0027403270165338675
6837.606215542594,0.0026986130180005853,0.0027484987048355717
6837.607215314517,0.0027336304786559555,0.0027549308887110766
6837.60821508644,0.002766722098929297,0.002759521836394124
6837.609214858363,0.0027978878213067806,0.0027621956606440528
6837.610214630286,0.002827181169285169,0.0027629019602845796
6837.611214402208,0.002854704114031199,0.0027616154567592917
6837.612214174131,0.0028806006180661964,0.0027583356615715404
6837.613213946053,0.0029050491017537897,0.002753086550479568
6837.614213717977,0.002928254148045573,0.0027459161859502575
6837.615213489899,0.002950437819501649,0.0027368962171876094
6837.616213261822,0.002971830964779412,0.0027261211863114348
6837.6172130337445,0.0029926648340541876,0.002713707575343736
6837.618212805667,0.0030131632382121836,0.002699792543436941
6837.619212577591,0.0030335354172541253,0.002684532333823077
6837.620212349513,0.003053969750354018,0.0026681003770366806
6837.621212121436,0.003074628429949205,0.002650685162352391
6837.622211893358,0.0030956432033436296,0.002632487965271133
6837.623211665281,0.0031171122412544656,0.0026137205021371066
6837.624211437204,0.003139098133114295,0.0025946025584823685
6837.625211209127,0.003161626953998402,0.0025753596234082154
6837.62621098105,0.003184688312112584,0.0025562205489744146
6837.627210752972,0.0032082362668765267,0.0025374152289197615
6837.628210524895,0.0032321909915305628,0.00251917226864932
6837.629210296817,0.0032564410378445137,0.0025017166218069837
6837.630210068741,0.003280846064416609,0.002485267194288722
6837.631209840663,0.0033052399312121727,0.0024700344387782814
6837.632209612586,0.0033294341228861106,0.0024562179714261237
6837.6332093845085,0.0033532215041349217,0.0024440042445694767
6837.634209156431,0.0033763804165625536,0.0024335643062906305
6837.635208928354,0.003398679109563718,0.002425051666714972
6837.636208700277,0.003419880468638348,0.002418600281861971
6837.6372084722,0.00343974697130726,0.0024143226672793555
6837.638208244122,0.0034580457781291773,0.0024123081574053645
6837.639208016045,0.0034745538603812836,0.002412621320767285
6837.640207787968,0.0034890630621081226,0.002415300529866375
6837.641207559891,0.0035013849788188725,0.0024203566836778242
6837.642207331814,0.003511355515108481,0.002427772097916179
6837.643207103736,0.0035188389760793166,0.0024374996056853253
6837.644206875659,0.0035237315609046027,0.0024494619329707723
6837.645206647581,0.0035259641528210877,0.002463551415338744
6837.646206419505,0.003525504321405843,0.0024796301024599915
6837.647206191427,0.0035223574639145824,0.00249753027127185
6837.64820596335,0.003516567025710428,0.0025170553531125555
6837.6492057352725,0.0035082137710917365,0.0025379812750055703
6837.650205507195,0.0034974141231108938,0.0025600582108829453
6837.651205279119,0.0034843176391987497,0.0025830127319675785
6837.652205051041,0.003469103728348726,0.0026065503445600996
6837.653204822964,0.003451977743078393,0.002630358415965913
6837.654204594886,0.0034331665945051886,0.0026541095115730946
6837.655204366809,0.003412914041953883,0.0026774651862560774
6837.656204138732,0.003391475804697106,0.0027000802793912173
6837.657203910655,0.0033691146403258343,0.002721607742172391
6837.658203682578,0.0033460955346995475,0.0027417039718127274
6837.6592034545,0.0033226811468165304,0.0027600345527078857
6837.660203226423,0.003299127636343826,0.0027762802353261686
6837.661202998345,0.0032756809639312504,0.0027901429375552724
6837.662202770269,0.0032525737077946783,0.002801351538764113
6837.663202542191,0.00323002241619411,0.0028096672557935297
6837.664202314114,0.0032082255281211227,0.00281488843285876
6837.6652020860365,0.0031873619148252135,0.0028168546283733826
6837.666201857959,0.0031675900838089364,0.0028154499333851745
6837.667201629882,0.003149048041248305,0.0028106055081592845
6837.668201401805,0.003131853755165812,0.0028023013705743105
6837.669201173728,0.003116106121155708,0.0027905674986596555
6837.67020094565,0.00310188630764217,0.0027754843077730986
6837.671200717573,0.003089259346925711,0.0027571825377364786
6837.672200489496,0.0030782758479019953,0.002735842559457026
6837.673200261419,0.00306897373734255,0.002711693096059711
6837.674200033342,0.003061379965618455,0.00268500934228144
6837.675199805264,0.0030555121125930215,0.0026561104502065653
6837.676199577187,0.0030513798100681414,0.0026253563377142512
6837.677199349109,0.0030489858955139774,0.002593143782492575
6837.678199121033,0.003048327238718813,0.0025599017891240927
6837.679198892955,0.0030493952092343255,0.002526086243690038
6837.680198664878,0.0030521757529014685,0.0024921738899348752
6837.6811984368005,0.003056649034715505,0.002458655680128753
6837.682198208723,0.0030627886174714463,0.0024260295768229762
6837.683197980647,0.0030705601947923137,0.00239479290367383
6837.684197752569,0.0030799199642047906,0.002365434367346499
6837.685197524492,0.0030908127807854338,0.002338425905259516
6837.686197296414,0.0031031702589238677,0.0023142145458568764
6837.687197068337,0.003116908992435213,0.0022932144830001724
6837.68819684026,0.0031319290501236286,0.0022757995642183424
6837.689196612183,0.0031481128755943724,0.0022622963847426657
6837.690196384106,0.0031653246738899132,0.002252978171145551
6837.691196156028,0.003183410314099263,0.0022480596274978234
6837.692195927951,0.0032021977410996365,0.002247692892983613
6837.693195699873,0.003221497883497026,0.002251964710494722
6837.694195471797,0.003241106053389656,0.002260894830959113
6837.695195243719,0.003260803833587075,0.002274435596644729
6837.696195015642,0.003280361431168536,0.002292472584998212
6837.6971947875645,0.0032995404456489367,0.002314826172361528
6837.698194559487,0.003318096958419357,0.002341253896182344
6837.699194331411,0.0033357848040162967,0.0023714535369138605
6837.700194103333,0.0033523588488825087,0.002405066880631074
6837.701193875256,0.0033675781009414375,0.002441684145471528
6837.702193647178,0.003381208517935491,0.002480849058319436
6837.703193419101,0.003393025463103757,0.0025220645558446365
6837.704193191024,0.0034028158404466736,0.002564799062372848
6837.705192962947,0.0034103800066127097,0.002608493276309849
6837.70619273487,0.0034155336015254754,0.0026525673821623623
6837.707192506792,0.0034181094605732058,0.0026964285942994025
6837.708192278715,0.003417959753676367,0.002739478929790091
6837.709192050637,0.0034149584378837788,0.002781123102352252
6837.710191822561,0.003409004023371118,0.002820776428545797
6837.711191594483,0.003400022559122308,0.0028578726399773394
6837.712191366406,0.003387970670793272,0.002891871501848717
6837.7131911383285,0.003372838449686069,0.0029222661546426305
6837.714190910251,0.0033546519927979313,0.002948590129231041
6837.715190682175,0.003333475405294402,0.002970424030309901
6837.716190454097,0.0033094120903525994,0.002987401916892894
6837.71719022602,0.003282605183933232,0.0029992174132959545
6837.718189997942,0.003253237055243423,0.003005629559691798
6837.719189769865,0.0032215278763059398,0.0030064683641249416
6837.720189541788,0.003187733345122334,0.0030016399494043403
6837.721189313711,0.0031521417066147505,0.00299113110995721
6837.7221890856335,0.0031150702390283797,0.0029750130313830683
6837.723188857556,0.0030768613588048263,0.002953443894174022
6837.724188629479,0.003037878456757166,0.0029266700781383297
6837.725188401401,0.002998501531427996,0.0028950257032419897
6837.726188173325,0.0029591226457408486,0.002858930292241309
6837.727187945247,0.0029201412008999414,0.002818884420197924
6837.72818771717,0.0028819589922548807,0.002775463318081773
6837.7291874890925,0.0028449749980065113,0.0027293085135897247
6837.730187261015,0.002809579878376814,0.002681117707545531
6837.731187032939,0.0027761502342901604,0.0026316331806993756
6837.732186804861,0.0027450427620409126,0.0025816290919097704
6837.733186576784,0.002716588506128147,0.002531898056411541
6837.734186348706,0.0026910874321427027,0.0024832373742947585
6837.735186120629,0.0026688035121042062,0.0024364352220439508
6837.736185892552,0.0026499604564523627,0.0023922570539246066
6837.737185664475,0.002634738172560564,0.0023514324158398583
6837.7381854363975,0.0026232699964333565,0.0023146423588494614
6837.73918520832,0.0026156407235229644,0.0022825076369616918
6837.740184980243,0.0026118854411915993,0.002255577869591672
6837.741184752165,0.0026119891383354164,0.0022343218457757134
6837.742184524089,0.002615887052477995,0.002219119149990374
6837.743184296011,0.002623465726978855,0.002210253287224048
6837.744184067934,0.002634564783851519,0.0022079064606336106
6837.7451838398565,0.0026489794407770217,0.0022121561085083896
6837.746183611779,0.002666463789088268,0.002222973256392906
6837.747183383703,0.002686734803051383,0.0022402227013449574
6837.748183155625,0.0027094769918238845,0.002263665018050731
6837.749182927548,0.002734347563646779,0.0022929603492285906
6837.75018269947,0.0027609819642254963,0.002327673909870467
6837.751182471393,0.002788999670461777,0.002367283102819945
6837.752182243316,0.002818010145545712,0.002411186117536562
6837.753182015239,0.002847618876925037,0.0024587118617444073
6837.7541817871615,0.0028774334224207993,0.0025091310542317085
6837.755181559084,0.0029070693809866593,0.002561668289982079
6837.756181331007,0.0029361561769932383,0.002615514880754135
6837.75718110293,0.002964342504399617,0.002669842271957964
6837.758180874853,0.002991301249680309,0.002723815829022044
6837.759180646775,0.003016733732836294,0.002776608767750835
6837.760180418698,0.0030403731691118724,0.0028274159804561687
6837.7611801906205,0.003061987318664119,0.0028754674891893215
6837.762179962543,0.003081380321953362,0.0029200412341938804
6837.763179734467,0.0030983937110674255,0.0029604748763146648
6837.764179506389,0.0031129065646497674,0.0029961762726795184
6837.765179278312,0.0031248347732110043,0.003026632303813634
6837.766179050234,0.0031341294265743226,0.0030514157988223507
6837.767178822157,0.0031407744143790136,0.0030701904069517704
6837.76817859408,0.003144783410658132,0.0030827133752826265
6837.769178366003,0.0031461964703478973,0.003088836299565828
6837.7701781379255,0.003145076488594768,0.003088504008537491
6837.771177909848,0.0031415057599525347,0.003081751813766549
6837.772177681771,0.003135582832181592,0.003068701405492309
6837.773177453693,0.0031274197905469168,0.0030495556947408987
6837.774177225617,0.0031171400362741417,0.0030245928790837147
6837.775176997539,0.003104876537637047,0.0029941599415527387
6837.776176769462,0.0030907704496891055,0.002958665705084679
6837.7771765413845,0.0030749699518047486,0.002918573494317631
6837.778176313307,0.0030576291640304265,0.0028743934229849125
6837.779176085231,0.003038907056346366,0.0028266743287608115
6837.780175857153,0.0030189663160276542,0.002775995409299923
6837.781175629076,0.0029979721638266625,0.0027229576618615103
6837.782175400998,0.002976091118522802,0.0026681752781579776
6837.783175172921,0.0029534897171915164,0.0026122671739621695
6837.784174944844,0.0029303332083120085,0.0025558488186223707
6837.785174716767,0.0029067842422439835,0.0024995244723890523
6837.7861744886895,0.002883001589216129,0.002443879874437413
6837.787174260612,0.0028591389203772733,0.002389475397779355
6837.788174032535,0.002835343687523894,0.0023368397071058685
6837.789173804458,0.0028117561292484976,0.002286463988404182
6837.790173576381,0.0027885084221865187,0.0022387968364008504
6837.791173348303,0.0027657239895970886,0.002194239886143335
6837.792173120226,0.0027435169702459817,0.002153144262068481
6837.7931728921485,0.0027219918360862176,0.0021158078929995844
6837.794172664071,0.0027012431357018025,0.0020824737164939215
6837.795172435995,0.0026813553392401996,0.0020533287821808597
6837.796172207917,0.002662402763958539,0.002028504255572972
6837.79717197984,0.0026444495553016823,0.0020080763115607942
6837.798171751762,0.0026275496852853895,0.0019920678874689184
6837.799171523685,0.0026117469222516998,0.0019804512338779333
6837.800171295608,0.0025970747385202515,0.0019731511557161984
6837.801171067531,0.002583556154862417,0.001970048798136697
6837.8021708394535,0.0025712035610694064,0.0019709858347497938
6837.803170611376,0.0025600185879159783,0.0019757689637540676
6837.804170383299,0.002549992129267124,0.0019841746735788954
6837.805170155221,0.002541104618709222,0.0019959542627970284
6837.806169927145,0.0025333266501590236,0.0020108390770387985
6837.807169699067,0.0025266199986461466,0.0020285458754329484
6837.80816947099,0.0025209390564941156,0.0020487821937255507
6837.8091692429125,0.0025162326639989662,0.0020712515582132973
6837.810169014835,0.00251244628495183,0.002095658422956041
6837.811168786759,0.002509524447974721,0.002121712730717763
6837.812168558681,0.002507413336600113,0.002149134023878349
6837.813168330604,0.0025060633669579256,0.002177655057203478
6837.814168102526,0.002505431557283469,0.002207024886215727
6837.815167874449,0.002505483485176537,0.0022370114124538624
6837.816167646372,0.002506194652702677,0.002267403354477331
6837.817167418295,0.002507551132433834,0.0022980115797957275
6837.8181671902175,0.002509549441689618,0.002328669684816643
6837.81916696214,0.002512195674926511,0.0023592336779088433
6837.820166734063,0.00251550399901562,0.0023895806493568063
6837.821166505986,0.0025194946693915194,0.0024196064163704116
6837.822166277909,0.0025241917510243055,0.0024492222719985327
6837.823166049831,0.002529620732370735,0.002478351083045101
6837.824165821754,0.0025358062142195287,0.002506923044719756
6837.8251655936765,0.002542769839228938,0.002534871416861019
6837.826165365599,0.002550528589293667,0.002562128547194989
6837.827165137523,0.0025590935110557083,0.0025886224277266046
6837.828164909445,0.0025684688483883097,0.0026142739379834837
6837.829164681368,0.00257865149058176,0.002638994832402329
6837.83016445329,0.0025896306156062785,0.00266268645996364
6837.831164225213,0.00260138743249195,0.002685239175459786
6837.832163997136,0.0026138949799333904,0.002706532409153702
6837.833163769059,0.00262711797516067,0.0027264353917121334
6837.8341635409815,0.0026410127145950605,0.00274480856549368
6837.835163312904,0.0026555270289458804,0.0027615057318590348
6837.836163084827,0.0026706003083601672,0.0027763769727299215
6837.83716285675,0.0026861636315321114,0.0027892723356450475
6837.838162628673,0.0027021400427779457,0.0028000461855692553
6837.839162400595,0.0027184450177198394,0.002808562018370998
6837.840162172518,0.0027349871429414763,0.0028146974338072984
6837.8411619444405,0.0027516690151502617,0.002818348924234348
6837.842161716364,0.0027683883533508973,0.0028194361764432596
6837.843161488287,0.0027850393154342764,0.0028179056912777303
6837.844161260209,0.002801514000731599,0.002813733647250837
6837.845161032132,0.0028177040875781534,0.0028069280239997906
6837.846160804054,0.0028335025138405104,0.0027975300422052618
6837.847160575977,0.0028488050904884456,0.0027856149739003315
6837.8481603479,0.002863511958774501,0.0027712923492963265
6837.849160119823,0.002877528842209301,0.0027547055614069583
6837.8501598917455,0.002890768070763566,0.0027360308714223557
6837.851159663668,0.0029031493506785785,0.0027154758433322
6837.852159435591,0.0029146002379236077,0.0026932772579955533
6837.853159207514,0.0029250562772618303,0.0026696985558713883
6837.854158979437,0.0029344608033742272,0.002645026848147481
6837.855158751359,0.002942764456638373,0.0026195695446681704
6837.856158523282,0.002949924526266906,0.002593650678338468
6837.8571582952045,0.0029559042741175226,0.0025676070387276435
6837.858158067127,0.0029606723948951167,0.002541784240490389
6837.859157839051,0.002964202733009064,0.002516532838256225
6837.860157610973,0.0029664743165840057,0.0024922045639558586
6837.861157382896,0.002967471699695696,0.00246914871678809
6837.862157154818,0.002967185543376947,0.002447708695781135
6837.863156926741,0.0029656133344292393,0.0024282186398758604
6837.864156698664,0.0029627601445468346,0.00241100012664101
6837.865156470587,0.0029586393632613063,0.0023963588709776822
6837.8661562425095,0.0029532733850674508,0.002384581364748359
6837.867156014432,0.00294669427050101,0.0023759314201300804
6837.868155786355,0.0029389444067528486,0.0023706466260074647
6837.869155558278,0.002930077167215687,0.0023689347837199653
6837.870155330201,0.002920157537769045,0.0023709704348226328
6837.871155102123,0.002909262662347166,0.0023768916134735917
6837.872154874046,0.0028974822677112033,0.0023867969476935496
6837.8731546459685,0.0028849189507503706,0.0024007432073222803
6837.874154417892,0.0028716883345302506,0.0024187433640167275
6837.875154189815,0.002857919104360028,0.00244076519725727
6837.876153961737,0.0028437529149716576,0.0024667304550315136
6837.87715373366,0.0028293441266349652,0.0024965145664266725
6837.878153505582,0.0028148593092003167,0.002529946912227061
6837.879153277505,0.0028004764632596833,0.0025668116795691323
6837.880153049428,0.002786383932704505,0.0026068493333089833
6837.881152821351,0.0027727790022451467,0.002649758718397256
6837.8821525932735,0.002759866179632129,0.0026951997828931116
6837.883152365196,0.002747855154595922,0.002742796904165135
6837.884152137119,0.0027369584082871895,0.0027921428080191937
6837.885151909042,0.002727388434438231,0.00284280306986871
6837.886151680965,0.002719354543277638,0.0028943211713157806
6837.887151452887,0.00271305924622466,0.002946224069087818
6837.88815122481,0.002708694248329666,0.0029980282277061896
6837.8891509967325,0.0027064361115940187,0.0030492460677282833
6837.890150768656,0.0027064417136007353,0.0030993927775065356
6837.891150540579,0.0027088437055635046,0.003147993418125607
6837.892150312501,0.0027137462371736,0.0031945902065481637
6837.893150084424,0.002721221235729578,0.003238749789319478
6837.894149856346,0.002731305503894768,0.0032800702397231037
6837.89514962827,0.00274399884394553,0.0033181874548218948
6837.896149400192,0.002759263333926291,0.003352780614986218
6837.897149172115,0.0027770237855135175,0.003383576410620071
6837.8981489440375,0.0027971693241113996,0.0034103518423373586
6837.89914871596,0.002819555961793158,0.0034329355329499717
6837.900148487883,0.0028440099866145173,0.003451207603086875
6837.901148259806,0.0028703319713692978,0.003465098236874143
6837.902148031729,0.00289830121296582,0.0034745851144774107
6837.903147803651,0.002927680437114206,0.0034796899199722535
6837.904147575574,0.0029582206209273387,0.0034804741365553836
6837.9051473474965,0.002989665793744723,0.003477034327143312
6837.90614711942,0.003021757686320134,0.0034694970935595904
6837.907146891343,0.003054240116379744,0.0034580139174782603
6837.908146663265,0.003086863017832371,0.003442756094439742
6837.909146435188,0.0031193860373716544,0.0034239099676237595
6837.91014620711,0.0031515816363332522,0.003401672652108903
6837.911145979033,0.0031832376432299994,0.003376248412765637
6837.912145750956,0.003214159202816431,0.003347845811802181
6837.913145522879,0.003244170077212728,0.003316675670378579
6837.9141452948015,0.003273113291251029,0.003282949804193325
6837.915145066724,0.0033008511707283087,0.0032468804188453965
6837.916144838647,0.0033272648698825973,0.003208680001793772
6837.91714461057,0.0033522534998920743,0.003168561523269212
6837.918144382493,0.0033757329536945892,0.0031267387533350987
6837.919144154415,0.0033976344897671137,0.0030834265154403026
6837.920143926338,0.0034179031012432867,0.0030388407352458023
6837.9211436982605,0.0034364956609372844,0.0029931982156559504
6837.922143470184,0.0034533788053343986,0.00294671616406189
6837.923143242107,0.003468526521735803,0.0028996115799215195
6837.924143014029,0.003481917452373559,0.0028521006453770875
6837.925142785952,0.0034935320231256296,0.002804398243393738
6837.926142557874,0.003503349607008295,0.0027567176771165934
6837.927142329798,0.0035113459965704624,0.002709270601011521
6837.92814210172,0.0035174914567001536,0.002662267111007414
6837.929141873643,0.0035217495702778616,0.002615915896533925
6837.9301416455655,0.0035240770077370163,0.002570424354975762
6837.931141417488,0.0035244242739797425,0.0025259986051722515
6837.932141189411,0.003522737419898003,0.002482843377771494
6837.933140961334,0.0035189606552293836,0.002441161779238309
6837.934140733257,0.0035130397695700894,0.0024011549211660848
6837.935140505179,0.003504926251100419,0.002363021386099938
6837.936140277102,0.0034945819678203266,0.0023269564773911273
6837.9371400490245,0.0034819842320178247,0.002293151190627992
6837.938139820948,0.003467131012267186,0.0022617908576543374
6837.939139592871,0.00345004600479217,0.0022330534452455835
6837.940139364793,0.003430783241882081,0.002207107527470976
6837.941139136716,0.003409430910715211,0.0021841099834596445
6837.942138908638,0.003386114093497407,0.0021642034924913866
6837.943138680561,0.0033609962245640035,0.0021475139040513873
6837.944138452484,0.0033342791741938034,0.0021341475599211466
6837.945138224407,0.0033062019742614566,0.0021241886537529033
6837.9461379963295,0.0032770382685139705,0.0021176967397305503
6837.947137768252,0.0032470925995478064,0.00211470453295232
6837.948137540175,0.00321669565328644,0.002115216152232249
6837.949137312098,0.003186198589191342,0.00211920592559978
6837.950137084021,0.003155966600096173,0.0021266178210220445
6837.951136855943,0.003126371864307395,0.00213736550712215
6837.952136627866,0.003097786065571525,0.002151333013927636
6837.9531363997885,0.003070572666293609,0.002168375952447371
6837.954136171712,0.0030450791350524055,0.0021883232410580696
6837.955135943635,0.003021629350763335,0.002210979255406098
6837.956135715557,0.0030005164208197336,0.0022361262774397064
6837.95713548748,0.0029819961457693894,0.0022635271029182824
6837.958135259402,0.0029662813363655876,0.002292927691891912
6837.959135031326,0.0029535371530782545,0.002324059793843482
6837.960134803248,0.0029438776057439052,0.002356643524424754
6837.961134575171,0.002937363315403037,0.00239038990796418
6837.9621343470935,0.002934000586856415,0.002425003424072208
6837.963134119016,0.0029337417744327906,0.002460184596518293
6837.964133890939,0.00293648687000083,0.0024956326414996228
6837.965133662862,0.0029420862169801114,0.002531048172964419
6837.966133434785,0.002950344248965252,0.00256613596321412
6837.967133206707,0.0029610241489336302,0.0026006077730169872
6837.96813297863,0.0029738533113473466,0.002634185273471373
6837.9691327505525,0.002988529457721679,0.00266660306174602
6837.970132522476,0.0030047272135154926,0.0026976117297169817
6837.971132294399,0.003022104926024446,0.002726980905983856
6837.972132066321,0.0030403115101543,0.002754502180850772
6837.973131838244,0.003058993141950032,0.0027799918390794126
6837.974131610166,0.0030777996489234024,0.0028032933428911457
6837.97513138209,0.00309639045235971,0.002824279500976062
6837.976131154012,0.0031144399066816756,0.0028428542262928535
6837.977130925935,0.003131641879795386,0.002858953758786771
6837.9781306978575,0.003147713446192712,0.0028725472460953434
6837.97913046978,0.0031623976192978985,0.0028836366430412745
6837.980130241704,0.0031754651164153888,0.002892255981706275
6837.981130013626,0.0031867152148267806,0.0028984701348309105
6837.982129785549,0.0031959758058171446,0.002902373216945355
6837.983129557471,0.003203102775374768,0.0029040867469892627
6837.984129329394,0.0032079788464578077,0.0029037576627761377
6837.9851291013165,0.0032105120244165022,0.0029015562471030477
6837.98612887324,0.0032106337943665604,0.0028976739916203235
6837.987128645163,0.0032082972148222144,0.002892321390627511
6837.988128417085,0.003203475027829673,0.002885725645300117
6837.989128189008,0.0031961578649273925,0.0028781282765273824
6837.99012796093,0.003186352582203265,0.0028697826645491726
6837.991127732854,0.00317408072255563,0.0028609515298853336
6837.992127504776,0.0031593770904523766,0.0028519043475369464
6837.993127276699,0.0031422884350012924,0.002842914667288017
6837.9941270486215,0.0031228722669282903,0.0028342573132201735
6837.995126820544,0.0031011958765088674,0.0028262054557468244
6837.996126592467,0.0030773356516557737,0.0028190275759483394
6837.99712636439,0.003051376791133479,0.00281298435866256
6837.998126136313,0.0030234134599583344,0.0028083255502693904
6837.999125908235,0.002993549361732843,0.0028052868013992167
6838.000125680158,0.0029618986350818588,0.0028040864932859844
6838.0011254520805,0.002928586939793364,0.0028049225352396764
6838.002125224004,0.002893752585862196,0.0028079691348983915
6838.003124995927,0.0028575475653135475,0.0028133735811128303
6838.004124767849,0.0028201383649956767,0.002821253117070957
6838.005124539772,0.0027817064685895132,0.002831691992850849
6838.006124311694,0.002742448496933057,0.0028447387738472604
6838.007124083618,0.0027025759770745953,0.002860403966810165
6838.00812385554,0.002662314753994944,0.0028786580201294034
6838.009123627463,0.0026219040518296677,0.0028994297553963117
6838.0101233993855,0.0025815951585967437,0.0029226052935199007
6838.011123171308,0.0025416496713684743,0.002948027558195498
6838.012122943232,0.002502337225783005,0.0029754964667587
6838.013122715154,0.0024639326655087604,0.0030047699256342845
6838.014122487077,0.00242671268004952,0.003035565707575741
6838.015122258999,0.002390952021343905,0.0030675642105651353
6838.016122030922,0.0023569194635078053,0.003100412034684891
6838.0171218028445,0.0023248736839422686,0.003133726310396508
6838.018121574768,0.0022950592352000967,0.003167099763295832
6838.019121346691,0.002267702762407291,0.0032001065513216935
6838.020121118613,0.0022430095979758305,0.0032323089083680476
6838.021120890536,0.0022211608268355417,0.003263264568523698
6838.022120662458,0.002202310868566746,0.003292534866316672
6838.023120434382,0.0021865855835496305,0.0033196933488673975
6838.024120206304,0.0021740808884563325,0.0033443346971932164
6838.025119978227,0.002164861861483357,0.0033660837114570536
6838.0261197501495,0.0021589623230097556,0.0033846040629476014
6838.027119522072,0.002156384882567057,0.0033996064808382255
6838.028119293995,0.002157101437224005,0.003410856043398718
6838.029119065918,0.002161054088999604,0.0034181782615074346
6838.030118837841,0.002168156431140967,0.0034214636476567195
6838.031118609763,0.00217829514354932,0.003420670466646297
6838.032118381686,0.002191331835205155,0.003415825415946395
6838.033118153609,0.0022071050726299017,0.003407022121861475
6838.034117925532,0.002225432536013924,0.0033944175362718397
6838.035117697455,0.0022461132515846586,0.003378226500836607
6838.036117469377,0.0022689298689886547,0.00335871484600814
6838.0371172413,0.002293650985379733,0.003336191406202918
6838.038117013222,0.0023200335456492705,0.0033109993072452043
6838.039116785146,0.0023478253552739374,0.003283506868907851
6838.040116557068,0.002376767732207263,0.003254098477446344
6838.041116328991,0.002406598309219617,0.0032231657948216075
6838.0421161009135,0.002437053981262285,0.0031910996499437106
6838.043115872836,0.0024678739674815916,0.003158282892075786
6838.04411564476,0.002498802922689125,0.003125084393574756
6838.045115416682,0.002529594001729996,0.0030918542952892997
6838.046115188605,0.0025600117711430588,0.0030589205102181994
6838.047114960527,0.002589834877690762,0.0030265864369282878
6838.04811473245,0.0026188584043665354,0.0029951297721832085
6838.0491145043725,0.0026468958582221403,0.0029648022521900365
6838.050114276296,0.0026737807488477513,0.0029358301094705224
6838.051114048219,0.002699367744490338,0.002908415021742578
6838.052113820141,0.002723533435491477,0.00288273535118778
6838.053113592064,0.00274617678168154,0.002858947517431034
6838.054113363986,0.0027672193522782856,0.002837187398574958
6838.05511313591,0.002786605462545235,0.002817571694044614
6838.056112907832,0.0028043022671912833,0.00280019920068971
6838.057112679755,0.0028202998050489603,0.0027851519453965384
6838.0581124516775,0.00283461092523049,0.002772496090384268
6838.0591122236,0.0028472709752593956,0.0027622825107058474
6838.060111995524,0.0028583371084505717,0.002754546966020412
6838.061111767446,0.0028678870805815587,0.0027493098409224347
6838.062111539369,0.002876017447681136,0.0027465754739583715
6838.063111311291,0.0028828411267634133,0.002746331116923922
6838.064111083214,0.002888484328282435,0.002748545573439313
6838.065110855137,0.0028930829186191577,0.00275316757624299
6838.06611062706,0.0028967783278791457,0.002760123986517344
6838.067110398983,0.0028997131752585,0.002769317934001411
6838.068110170905,0.002902026826398325,0.002780627049099334
6838.069109942828,0.0029038511096976115,0.0027939019549648894
6838.07010971475,0.002905306397648881,0.0028089651853033344
6838.071109486674,0.002906498221391406,0.002825610669185634
6838.072109258596,0.002907514555810589,0.0028436038794183607
6838.073109030519,0.0029084238929398647,0.0028626826951025984
6838.0741088024415,0.0029092741935881775,0.0028825590040937946
6838.075108574364,0.002910092756002341,0.002902921070774417
6838.076108346288,0.0029108869782206405,0.002923436706192449
6838.07710811821,0.0029116459405150123,0.002943757284488803
6838.078107890133,0.002912342697599337,0.002963522634503451
6838.079107662055,0.0029129371298543946,0.0029823667839682516
6838.080107433978,0.0029133791559146733,0.0029999244461508074
6838.0811072059005,0.002913612080782609,0.0030158380390305044
6838.082106977824,0.002913575873816071,0.0030297649488580237
6838.083106749747,0.0029132102420227654,0.003041384714627303
6838.084106521669,0.002912457452148265,0.0030504058220010523
6838.085106293592,0.002911264913804588,0.0030565718495391666
6838.086106065514,0.0029095875424185666,0.0030596667913903542
6838.087105837438,0.0029073898863533013,0.003059519463034346
6838.08810560936,0.002904647959344829,0.0030560069565786787
6838.089105381283,0.002901350699405051,0.003049057141372245
6838.0901051532055,0.0028975009854533395,0.003038650212569443
6838.091104925128,0.0028931161602658143,0.003024819289902221
6838.092104697052,0.002888228012750464,0.00300765006992346
6838.093104468974,0.002882882174747364,0.00298727953567266
6838.094104240897,0.002877136913762949,0.002963893727765446
6838.095104012819,0.0028710613610758383,0.0029377245883330473
6838.096103784742,0.0028647332826974227,0.002909045908391794
6838.097103556665,0.002858236547909183,0.0028781684332492025
6838.098103328588,0.002851658465513842,0.0028454342025980455
6838.099103100511,0.0028450871551088603,0.0028112102219522497
6838.100102872433,0.002838609115679046,0.002775881583328545
6838.101102644356,0.002832307146092038,0.0027398441854769107
6838.102102416278,0.0028262587473204003,0.002703497260059898
6838.103102188202,0.0028205350847311916,0.0026672359792762625
6838.104101960124,0.0028152005225818844,0.0026314444591474875
6838.105101732047,0.0028103126864311334,0.0025964894432804163
6838.1061015039695,0.002805922969039476,0.002562714864157671
6838.107101275892,0.00280207735554777,0.0025304373808799447
6838.108101047816,0.0027988173971080954,0.0024999429240433885
6838.109100819738,0.0027961811287681997,0.0024714842421789825
6838.110100591661,0.00279420373750805,0.0024452794160183928
6838.111100363583,0.0027929178510740604,0.002421511271534644
6838.112100135506,0.002792353415139807,0.0024003275860390587
6838.113099907429,0.0027925372134860733,0.002381841954097985
6838.114099679352,0.0027934921326472676,0.00236613516731485
6838.115099451275,0.002795236274642966,0.0023532569677338646
6838.116099223197,0.00279778199408954,0.0023432280530469294
6838.11709899512,0.0028011349000099596,0.002336042224747878
6838.118098767043,0.002805292835797612,0.002331668570282238
6838.119098538966,0.0028102448426132413,0.0023300535747528862
6838.120098310888,0.002815970120894797,0.002331123084704547
6838.121098082811,0.002822437023435419,0.002334784091093227
6838.1220978547335,0.00282960213116377,0.002340926347178338
6838.123097626656,0.0028374094694184073,0.0023494238795313594
6838.12409739858,0.0028457899166817718,0.002360136469359402
6838.125097170502,0.002854660847353065,0.002372911159468325
6838.126096942425,0.0028639260364543037,0.0023875837890115106
6838.127096714347,0.0028734758279986734,0.0024039805092793583
6838.12809648627,0.0028831875319290327,0.0024219192196398
6838.129096258193,0.002892925990983261,0.0024412108879054775
6838.130096030116,0.002902544271906488,0.0024616607609268966
6838.131095802039,0.002911884480001566,0.002483069491662393
6838.132095573961,0.002920778746460288,0.0025052341895240005
6838.133095345884,0.0029290504773336608,0.002527949365592783
6838.134095117806,0.002936515976716457,0.0025510077377418113
6838.13509488973,0.0029429865585121413,0.0025742009012470076
6838.136094661652,0.0029482712382064,0.0025973199349283754
6838.137094433575,0.002952180058439341,0.00262015606034933
6838.1380942054975,0.0029545280609545796,0.0026425014759474262
6838.13909397742,0.0029551398710032555,0.0026641504542434255
6838.140093749344,0.002953854802181107,0.002684900747992486
6838.141093521266,0.002950532323813139,0.0027045553257025825
6838.142093293189,0.0029450576692291184,0.0027229244429779137
6838.143093065111,0.0029373473090280634,0.0027398280278207367
6838.144092837034,0.002927353980723063,0.002755098305978795
6838.145092608957,0.0029150709685422057,0.0027685825372247203
6838.14609238088,0.0029005353590889193,0.0027801457034870355
6838.1470921528025,0.002883830042481605,0.002789672996753819
6838.148091924725,0.002865084285057807,0.002797071988167526
6838.149091696648,0.0028444727797581676,0.0028022743977150683
6838.150091468571,0.0028222131739746646,0.0028052374091529506
6838.151091240494,0.0027985621608587474,0.0028059444827905856
6838.152091012416,0.002773810298457743,0.002804405614985599
6838.153090784339,0.002748275804026516,0.00280065699332486
6838.1540905562615,0.002722297650437368,0.002794760024679837
6838.155090328184,0.0026962283362404107,0.0027867997763754908
6838.156090100108,0.0026704266866976766,0.0027768829331470267
6838.15708987203,0.0026452509782547654,0.0027651353894315453
6838.158089643953,0.0026210525946097954,0.0027516995717660193
6838.159089415875,0.0025981703447233934,0.002736731565721659
6838.160089187798,0.0025769255091904982,0.0027203981285692336
6838.161088959721,0.002557617629609869,0.002702873673683073
6838.162088731644,0.002540521015740017,0.002684337281246383
6838.163088503567,0.002525881919481536,0.002664969735351602
6838.164088275489,0.002513916314413364,0.0026449505573216832
6838.165088047412,0.002504808222212773,0.0026244550251481786
6838.166087819334,0.0024987085351868155,0.0026036512256855542
6838.167087591258,0.0024957342876968215,0.0025826972524600794
6838.16808736318,0.0024959683236968674,0.002561738714812902
6838.169087135103,0.0024994592962467536,0.0025409067435646676
6838.1700869070255,0.0025062219228798835,0.002520316652880913
6838.171086678948,0.0025162374099693624,0.0025000673540100716
6838.172086450872,0.002529453952353504,0.002480241534291932
6838.173086222794,0.0025457872186851363,0.0024609065338209203
6838.174085994717,0.002565120760443909,0.0024421157841485876
6838.175085766639,0.0025873063443908315,0.0024239106307025
6838.176085538562,0.0026121642930334037,0.0024063223572551562
6838.177085310485,0.002639483984475288,0.00238937426221114
6838.178085082408,0.0026690246819088465,0.0023730836757061115
6838.1790848543305,0.0027005168509258537,0.002357463834880971
6838.180084626253,0.0027336641124743105,0.0023425255571461936
6838.181084398176,0.002768145967871136,0.002328278676058023
6838.182084170099,0.00280362138812773,0.002314733228772336
6838.183083942022,0.0028397332702178387,0.0023019004022561507
6838.184083713944,0.0028761136538053337,0.0022897932551255366
6838.185083485867,0.0029123895033779878,0.0022784272292421495
6838.1860832577895,0.002948188817168438,0.002267820448761048
6838.187083029712,0.002983146828615454,0.002257993788337617
6838.188082801636,0.003016912105924063,0.002248970699701643
6838.189082573558,0.0030491524067092564,0.002240776823706299
6838.190082345481,0.0030795601824284403,0.0022334394630673117
6838.191082117403,0.0031078576377734867,0.0022269870175730144
6838.192081889326,0.00313380123486465,0.002221448470330885
6838.193081661249,0.0031571855067761205,0.0022168529669169264
6838.194081433172,0.0031778460357061653,0.002213229470545995
6838.195081205095,0.0031956614739722215,0.002210606425633776
6838.196080977017,0.0032105545337102366,0.0022090113272358316
6838.19708074894,0.003222491930873838,0.0022084700751244008
6838.198080520863,0.0032314833351583176,0.0022090059987901296
6838.199080292786,0.003237579436893624,0.0022106384922874677
6838.200080064708,0.003240869273010787,0.00221338129303576
6838.201079836631,0.003241476951532793,0.0022172405393620738
6838.2020796085535,0.0032395578983003535,0.002222212806589181
6838.203079380477,0.0032352947429596214,0.0022282833363466313
6838.2040791524,0.003228892964386464,0.0022354246454524855
6838.205078924322,0.0032205764162679647,0.002243595641558083
6838.206078696245,0.003210582847370102,0.0022527413005926184
6838.207078468167,0.0031991595262982437,0.00226279289709639
6838.20807824009,0.0031865590848535216,0.0022736687320360025
6838.209078012013,0.0031730357026299896,0.0022852752702824863
6838.210077783936,0.003158841748502473,0.002297508583618819
6838.2110775558585,0.003144224948695705,0.0023102560021745263
6838.212077327781,0.0031294260658872365,0.0023233979012064958
6838.213077099704,0.0031146769864528272,0.0023368095719767707
6838.214076871627,0.0031001990706575784,0.002350363134357913
6838.21507664355,0.0030862016372930983,0.0023639294493028105
6838.216076415472,0.003072880505179024,0.0023773799879095317
6838.217076187395,0.0030604165679039884,0.0023905886111137697
6838.2180759593175,0.003048974419561871,0.002403433209505775
6838.21907573124,0.0030387010687694806,0.002415797147628834
6838.220075503164,0.0030297247641402907,0.0024275704567904986
6838.221075275086,0.003022153910383471,0.002438650734946353
6838.222075047009,0.003016076018191971,0.002448943743301655
6838.223074818931,0.003011556650775051,0.002458363723885257
6838.224074590854,0.003008638409338962,0.0024668334920481313
6838.225074362777,0.003007340087368494,0.0024742843897388985
6838.2260741347,0.0030076561653105825,0.0024806562209004086
6838.227073906623,0.0030095568045419804,0.002485897310133531
6838.228073678545,0.003012988454023477,0.002489964810544118
6838.229073450468,0.0030178751214605106,0.002492825339993376
6838.230073222391,0.003024120289463001,0.00249445596298929
6838.231072994314,0.0030316093850371933,0.002494845465009351
6838.232072766236,0.0030402126554491325,0.002493995788774196
6838.233072538159,0.003049788284023673,0.0024919234332053874
6838.2340723100815,0.003060185597578231,0.002488660579885597
6838.235072082005,0.0030712482514147254,0.0024842557198755883
6838.236071853928,0.003082817304876384,0.0024787736010281197
6838.23707162585,0.0030947341161482074,0.0024722943951160526
6838.238071397773,0.003106842995553871,0.002464912084451281
6838.239071169695,0.003118993564472534,0.002456732169836306
6838.240070941618,0.003131042776185515,0.002447868883795041
6838.241070713541,0.003142856574312632,0.002438442139008683
6838.242070485464,0.003154311192227998,0.0024285744475689174
6838.2430702573865,0.0031652941191657787,0.0024183880212308656
6838.244070029309,0.0031757047721907286,0.002408002220004816
6838.245069801232,0.003185454927477479,0.00239753146705678
6838.246069573155,0.003194468979012715,0.002387083701369259
6838.247069345078,0.003202684095738544,0.002376759401384388
6838.248069117,0.0032100503381970887,0.0023666511778062133
6838.249068888923,0.0032165307830192866,0.002356843891318651
6838.2500686608455,0.003222101687138643,0.0023474152025666616
6838.251068432769,0.0032267526922916076,0.0023384364263941125
6838.252068204692,0.003230487027706401,0.0023299735572098676
6838.253067976614,0.003233321639661563,0.00232208835278493
6838.254067748537,0.00323528718409804,0.002314839389660329
6838.255067520459,0.003236427861239672,0.0023082830212751097
6838.256067292383,0.0032368011224939413,0.0023024741836341783
6838.257067064305,0.0032364773049490428,0.002297467012370312
6838.258066836228,0.0032355392266693248,0.0022933152588056355
6838.259066608151,0.0032340817170729186,0.002290072511256724
6838.260066380073,0.003232210996753582,0.0022877922334857896
6838.261066151996,0.0032300437910829567,0.0022865276239807503
6838.262065923919,0.003227706069080377,0.002286331285429091
6838.263065695842,0.0032253313362107833,0.002287254687729988
6838.264065467764,0.003223058465677253,0.002289347418784567
6838.265065239687,0.0032210291120836816,0.0022926562395637617
6838.2660650116095,0.0032193847964750296,0.0022972239812138993
6838.267064783533,0.0032182637715949076,0.0023030883323542036
6838.268064555456,0.003217797776687041,0.0023102805599346924
6838.269064327378,0.0032181087871633756,0.0023188241915609543
6838.270064099301,0.0032193058550840496,0.002328733674865064
6838.271063871223,0.0032214821094874784,0.002340013032217256
6838.272063643146,0.003224711950964436,0.0023526545418955267
6838.273063415069,0.0032290484669466983,0.002366637482423821
6838.274063186992,0.0032345211319121593,0.002381926969616458
6838.2750629589145,0.0032411339140701054,0.0023984729107833697
6838.276062730837,0.003248863940592521,0.00241620910910809
6838.27706250276,0.003257660859299961,0.002435052560294431
6838.278062274683,0.0032674469935530265,0.0024549029711120893
6838.279062046606,0.003278118338609394,0.002475642498617664
6838.280061818528,0.0032895463967694038,0.002497135692070274
6838.281061590451,0.0033015807925504564,0.002519229642360239
6838.2820613623735,0.0033140525460827793,0.0025417543940863636
6838.283061134297,0.003326777820831199,0.0025645237171714216
6838.28406090622,0.0033395619197300447,0.0025873363430633177
6838.285060678142,0.0033522033003532117,0.002609977745725971
6838.286060450065,0.003364497423626117,0.0026322225051843852
6838.287060221987,0.003376240333426731,0.002653837247125929
6838.288059993911,0.0033872319521180876,0.00267458411651212
6838.289059765833,0.003397279127806609,0.0026942247204534684
6838.290059537756,0.0034061984692007143,0.0027125244630151193
6838.291059309679,0.00341381896902949,0.0027292571877267804
6838.292059081601,0.003419984366510231,0.002744210040283184
6838.293058853524,0.00342455515577943,0.0027571884565924807
6838.294058625447,0.0034274101449423135,0.0027680211550423824
6838.29505839737,0.0034284475271367885,0.002776564964863461
6838.296058169292,0.003427585508797465,0.0027827092814049557
6838.297057941215,0.003424762596694047,0.002786379939707367
6838.2980577131375,0.003419937650483373,0.0027875423461173237
6838.299057485061,0.0034130897716878614,0.002786203768681196
6838.300057256984,0.003404218043018915,0.0027824147210294583
6838.301057028906,0.003393341082645222,0.0027762693754516303
6838.302056800829,0.003380496370250409,0.00276790492623396
6838.303056572751,0.0033657393472306067,0.0027574998113110657
6838.304056344674,0.0033491423688471675,0.0027452707118060453
6838.305056116597,0.0033307936477935253,0.0027314683094787854
6838.30605588852,0.003310796337868296,0.0027163718799919005
6838.3070556604425,0.0032892678550044702,0.002700282885119725
6838.308055432365,0.0032663394481077944,0.002683517769100264
6838.309055204288,0.0032421559564072555,0.0026664001859542878
6838.310054976211,0.0032168756538793813,0.002649252921845847
6838.311054748134,0.003190670085566496,0.0026323898305842413
6838.312054520056,0.0031637238185911873,0.002616108138552904
6838.313054291979,0.0031362340337480555,0.0026006814665273134
6838.3140540639015,0.0031084098651046393,0.002586353858744942
6838.315053835825,0.003080471372618688,0.0025733350291128674
6838.316053607748,0.003052648035690516,0.002561796954039194
6838.31705337967,0.0030251767007495093,0.0025518718659704666
6838.318053151593,0.0029982989843747,0.0025436516279902
6838.319052923515,0.0029722581846195204,0.002537188402135701
6838.320052695439,0.002947295770293197,0.002532496472170038
6838.321052467361,0.002923647520745259,0.002529555049693659
6838.322052239284,0.002901539400129284,0.0025283118780344504
6838.323052011207,0.0028811832705674723,0.002528687445415252
6838.324051783129,0.0028627725681804636,0.002530579620465716
6838.325051555052,0.002846478081274667,0.0025338685244481927
6838.326051326975,0.0028324439804434027,0.002538421455069076
6838.327051098898,0.0028207842538010264,0.0025440976788229444
6838.32805087082,0.0028115796983400124,0.0025507529168280877
6838.329050642743,0.0028048756117619467,0.002558243367980809
6838.3300504146655,0.0028006803120254214,0.002566429145629903
6838.331050186589,0.0027989645756428742,0.0025751770481608127
6838.332049958512,0.002799662029339167,0.0025843626325838536
6838.333049730434,0.0028026704630401806,0.002593871601977475
6838.334049502357,0.0028078539700443538,0.00260360054488828
6838.335049274279,0.0028150457706096355,0.00261345708455558
6838.336049046203,0.002824051536597513,0.002623359525369078
6838.337048818125,0.0028346530059105723,0.0026332361270070947
6838.338048590048,0.002846611664030132,0.0026430241730458163
6838.3390483619705,0.00285967229282225,0.002652669008272544
6838.340048133893,0.0028735662564359863,0.002662123195340645
6838.341047905817,0.002888014498199819,0.002671345901422997
6838.342047677739,0.002902730323072415,0.002680302582742092
6838.343047449662,0.002917422103768709,0.0026889649888072733
6838.344047221584,0.0029317960703275276,0.0026973114534193324
6838.345046993507,0.0029455593382179536,0.0027053273847865143
6838.3460467654295,0.0029584233123086494,0.0027130058284478577
6838.347046537353,0.0029701075720047036,0.002720347958355909
6838.348046309276,0.0029803442868078394,0.002727363355090966
6838.349046081198,0.0029888831290532216,0.0027340699681039624
6838.350045853121,0.0029954965547751696,0.00274049373771258
6838.351045625043,0.002999985238558996,0.0027466679537066943
6838.352045396967,0.003002183397820443,0.0027526325114595783
6838.353045168889,0.003001963735158958,0.002758433255722489
6838.354044940812,0.0029992417524565503,0.002764121565174874
6838.355044712735,0.0029939792288990533,0.00276975424593488
6838.356044484657,0.0029861866977819373,0.0027753937013263374
6838.35704425658,0.002975924803036422,0.00278110825600528
6838.358044028503,0.0029633044613673796,0.0027869724531901932
6838.359043800426,0.002948485786483786,0.002793067127030746
6838.360043572348,0.002931675745332014,0.0027994790839720868
6838.361043344271,0.002913124536100751,0.0028063002908931397
6838.3620431161935,0.002893120728311811,0.002813626530730999
6838.363042888117,0.002871985280470328,0.0028215555327525217
6838.36404266004,0.0028500646267787823,0.0028301846229813535
6838.365042431962,0.0028277230869975132,0.002839607975761772
6838.366042203885,0.002805334898992488,0.002849913577376771
6838.367041975807,0.0027832761968589114,0.002861180037603479
6838.368041747731,0.0027619172502229296,0.0028734734002781475
6838.369041519653,0.002741615236961738,0.002886844094804448
6838.370041291576,0.0027227077486128696,0.002901324129814997
6838.3710410634985,0.0027055071498525967,0.0029169245675418824
6838.372040835421,0.0026902958603197474,0.0029336332550239223
6838.373040607345,0.0026773226033173967,0.002951412756066655
6838.374040379267,0.0026667996471167786,0.002970198449461571
6838.37504015119,0.002658901029514005,0.002989896829780588
6838.376039923112,0.0026537617068459543,0.0030103841344435297
6838.377039695035,0.002651477518690943,0.003031505486145688
6838.3780394669575,0.002652105822553581,0.0030530747547342064
6838.379039238881,0.00265566664024394,0.0030748752970042857
6838.380039010804,0.002662144172784926,0.0030966616456463295
6838.381038782726,0.0026714885733607387,0.0031181621368314544
6838.382038554649,0.0026836179025659674,0.0031390824312246155
6838.383038326571,0.0026984202189347176,0.0031591098894677683
6838.384038098495,0.002715755779222202,0.0031779187622100837
6838.385037870417,0.0027354593371611293,0.0031951761112652003
6838.38603764234,0.0027573425381860134,0.003210548305883769
6838.387037414263,0.002781196411466742,0.003223707878319876
6838.388037186185,0.0028067939533409024,0.0032343405039752665
6838.389036958108,0.0028338927729239273,0.003242151884658535
6838.390036730031,0.0028622377393105274,0.003246874325061763
6838.391036501954,0.002891563546304678,0.003248272784062447
6838.392036273876,0.0029215971072434122,0.003246150178111218
6838.393036045799,0.0029520597163840345,0.003240351752765005
6838.394035817722,0.002982668966389785,0.0032307684200856214
6838.395035589645,0.0030131404819800645,0.0032173390379052146
6838.396035361568,0.0030431895895113473,0.003200051644081256
6838.39703513349,0.003072533060613347,0.003178943666988222
6838.398034905413,0.003100891035320473,0.0031541011479710853
6838.399034677335,0.003127989167711973,0.0031256570408456546
6838.400034449259,0.0031535609815093297,0.0030937886768220594
6838.401034221181,0.003177350396222079,0.0030587144891082
6838.402033993104,0.003199114377373741,0.0030206900964501056
6838.4030337650265,0.0032186256533374307,0.002980003865908918
6838.404033536949,0.003235675420374834,0.0029369721046162284
6838.405033308873,0.003250075947643817,0.00289193404849895
6838.406033080795,0.0032616630129661643,0.0028452468088741995
6838.407032852718,0.003270298133169191,0.002797280398593588
6838.40803262464,0.0032758705680098464,0.0027484128946856884
6838.409032396563,0.0032782990609834172,0.0026990257296536915
6838.4100321684855,0.0032775332466928302,0.0026494990710047447
6838.411031940409,0.003273554626437709,0.0026002072659035013
6838.412031712332,0.0032663770088763493,0.002551514380268742
6838.413031484254,0.003256046329802998,0.002503769905126722
6838.414031256177,0.0032426397930702734,0.0024573047035077594
6838.415031028099,0.0032262643161324977,0.0024124272439477274
6838.416030800023,0.003207054328561535,0.002369420158611097
6838.417030571945,0.0031851690472762427,0.002328537195568773
6838.418030343868,0.003160789402604718,0.0022900006787927177
6838.419030115791,0.0031341147919629123,0.002253999607752158
6838.420029887713,0.0031053598080681404,0.002220688507972192
6838.421029659637,0.003074751063353723,0.002190187096180502
6838.422029431559,0.0030425242299000005,0.002162580769638937
6838.423029203482,0.003008921415684433,0.0021379218868803735
6838.424028975404,0.002974188971295153,0.0021162317794045397
6838.425028747327,0.0029385757549249564,0.0020975034084841524
6838.42602851925,0.0029023317946496514,0.0020817045476022714
6838.427028291173,0.0028657072095224123,0.002068781333339801
6838.428028063096,0.002828951215897605,0.0020586619981358754
6838.429027835018,0.0027923110618779784,0.0020512605864082814
6838.430027606941,0.0027560307836291967,0.002046480465109632
6838.431027378863,0.002720349731836381,0.0020442174737011405
6838.432027150787,0.002685500850843932,0.002044362614182118
6838.433026922709,0.002651708705171914,0.002046804245492119
6838.434026694632,0.0026191872531379917,0.0020514298030120696
6838.4350264665545,0.0025881373741943703,0.002058127105743054
6838.436026238477,0.002558744162905109,0.0020667853346614134
6838.437026010401,0.0025311740146686606,0.00207729575888156
6838.438025782323,0.0025055715643974063,0.0020895522581556684
6838.439025554246,0.0024820565994450976,0.0021034516636785437
6838.440025326168,0.002460721120747509,0.0021188939313910374
6838.441025098091,0.002441626741884304,0.0021357821626786355
6838.4420248700135,0.0024248025993920588,0.0021540224725801575
6838.443024641937,0.0024102439225351297,0.0021735236768152936
6838.44402441386,0.002397911387664764,0.002194196758941195
6838.445024185782,0.0023877313572487004,0.00221595411210607
6838.446023957705,0.0023795970703198036,0.0022387086128333295
6838.447023729627,0.00237337080783537,0.002262372640023937
6838.448023501551,0.0023688870101050675,0.00228685716967707
6838.449023273473,0.0023659562854438515,0.0023120710452962873
6838.450023045396,0.0023643702230052325,0.0023379204594952737
6838.451022817319,0.0023639068984147283,0.0023643086136716884
6838.452022589241,0.002364336926323176,0.0023911354816685717
6838.453022361165,0.002365429871928503,0.002418297605595437
6838.454022133087,0.0023669608006281974,0.002445687884646744
6838.45502190501,0.002368716734910928,0.002473195356700323
6838.456021676932,0.0023705028019937566,0.0025007050120400063
6838.457021448855,0.0023721478867630985,0.002528097727069743
6838.458021220778,0.0023735096365628877,0.0025552504547228768
6838.459020992701,0.0023744786810039904,0.0025820368269808464
6838.460020764624,0.002374981929105248,0.0026083282906118454
6838.461020536546,0.0023749848035295867,0.0026339958181165074
6838.462020308469,0.002374492288616113,0.0026589121443348924
6838.463020080391,0.0023735487178142395,0.00268295440943504
6838.464019852315,0.0023722363049859347,0.0027060070610232206
6838.465019624237,0.0023706725138926974,0.0027279648777073155
6838.46601939616,0.0023690064310612586,0.002748735993883124
6838.4670191680825,0.0023674143421778438,0.002768244798889889
6838.468018940005,0.0023660947216221145,0.0027864345495169814
6838.469018711929,0.0023652628433487046,0.002803269496066438
6838.470018483851,0.002365145205917727,0.00281873630532678
6838.471018255774,0.002365973932502895,0.002832844591417201
6838.472018027696,0.0023679812739536327,0.0028456264489554865
6838.473017799619,0.0023713943224914586,0.0028571349999103957
6838.474017571542,0.002376430027984027,0.0028674420634183036
6838.475017343465,0.002383290589792728,0.0028766351033958425
6838.476017115388,0.002392159283447085,0.0028848136164358745
6838.47701688731,0.002403196783086272,0.0028920851250623762
6838.478016659233,0.002416538049821467,0.0028985609549546237
6838.479016431156,0.0024322898504206894,0.0029043519978394733
6838.480016203079,0.002450528934296478,0.0029095646844683647
6838.481015975001,0.0024713008378233307,0.002914297396624392
6838.482015746924,0.002494619230946647,0.0029186375160151243
6838.483015518847,0.0025204656964767694,0.002922659239893018
6838.484015290769,0.0025487898429128,0.0029264222066448897
6838.485015062693,0.002579509687798267,0.0029299708969602713
6838.486014834615,0.0026125122970921916,0.002933334727917285
6838.487014606538,0.0026476547091589136,0.002936528734247259
6838.48801437846,0.002684765188297364,0.002939554707061111
6838.489014150383,0.0027236448327917643,0.002942402620285363
6838.490013922306,0.0027640695201753586,0.002945052140445523
6838.491013694229,0.0028057921323405973,0.0029474740266175825
6838.492013466152,0.0028485449819038162,0.002949631299417977
6838.493013238074,0.002892042363412234,0.0029514801564982794
6838.494013009997,0.0029359831735495914,0.002952970680072412
6838.495012781919,0.0029800535702864546,0.00295404739545242
6838.496012553843,0.0030239296598569116,0.002954649724325387
6838.497012325765,0.00306728021403183,0.0029547123652180697
6838.498012097688,0.003109769437009221,0.0029541656324888177
6838.4990118696105,0.003151059817312005,0.00295293579239244
6838.500011641533,0.0031908151005175483,0.0029509454522445356
6838.501011413457,0.003228703398487706,0.0029481140729710332
6838.502011185379,0.0032644004186152794,0.002944358666206411
6838.503010957302,0.003297592764667394,0.002939594713271815
6838.504010729224,0.003327981245537472,0.0029337373332932143
6838.505010501147,0.003355284145992714,0.0029267027346715387
6838.50601027307,0.003379240457714573,0.0029184099781152974
6838.507010044993,0.0033996131047474933,0.0029087830343001745
6838.508009816916,0.003416192195560121,0.002897753044437987
6838.509009588838,0.003428798299953058,0.0028852606326406137
6838.510009360761,0.0034372857124453306,0.0028712581249260784
6838.511009132684,0.0034415456463621073,0.002855711608682325
6838.512008904607,0.003441509300361867,0.002838602864487149
6838.513008676529,0.0034371507298438567,0.0028199312489046884
6838.514008448452,0.003428489428930367,0.0027997155804586776
6838.515008220375,0.003415592498779513,0.002777996021454545
6838.516007992297,0.00339857626370955,0.0027548359114525855
6838.517007764221,0.0033776071997258725,0.002730323510738598
6838.518007536143,0.003352902052431396,0.002704573621825478
6838.519007308066,0.0033247270439273626,0.002677729034201875
6838.520007079988,0.0032933961118992994,0.0026499616764059644
6838.521006851911,0.0032592681896354415,0.002621473288681968
6838.522006623834,0.0032227435986519654,0.0025924953890970833
6838.523006395757,0.0031842596502254035,0.0025632883218185435
6838.52400616768,0.003144285529610372,0.0025341392403624586
6838.525005939602,0.0031033164971564415,0.0025053589615292816
6838.526005711525,0.003061867419741789,0.00247727771013483
6838.527005483447,0.0030204656571395593,0.002450239858768379
6838.528005255371,0.0029796433688313497,0.0024245978406499313
6838.529005027293,0.002939929368376369,0.002400705456572996
6838.530004799216,0.002901840715708014,0.0023789107963737162
6838.5310045711385,0.002865874280075802,0.0023595489629534196
6838.532004343061,0.002832498515805813,0.0023429347604324896
6838.533004114985,0.0028021456744878,0.0023293555208642996
6838.534003886907,0.002775204647779343,0.002319064283647722
6838.53500365883,0.0027520146092091715,0.002312273561380205
6838.536003430752,0.0027328595990487635,0.002309149897234158
6838.537003202675,0.0027179641596435434,0.0023098093562527325
6838.538002974598,0.0027074900738975304,0.0023143140299652174
6838.539002746521,0.0027015342054852133,0.0023226695910779087
6838.540002518444,0.002700127419440235,0.0023348239087088926
6838.541002290366,0.0027032345861883974,0.0023506667110802376
6838.542002062289,0.0027107557057962283,0.0023700302584695986
6838.543001834212,0.002722528187918258,0.0023926909744373054
6838.544001606135,0.002738330280798494,0.002418371987852537
6838.545001378057,0.0027578855887064537,0.0024467465561192384
6838.54600114998,0.002780868578234125,0.0024774423513112737
6838.547000921903,0.002806910953425338,0.0025100465862145887
6838.548000693825,0.002835608764866561,0.002544111947474493
6838.549000465749,0.002866530099457469,0.002579163296580198
6838.550000237671,0.0028992231795924727,0.002614705088454474
6838.551000009594,0.0029332246899929364,0.0026502294334548575
6838.551999781516,0.002968068144715908,0.0026852246938632134
6838.552999553439,0.0030032920956062762,0.002719184468737518
6838.553999325362,0.0030384479660431132,0.0027516167904664485
6838.554999097285,0.0030731072894824053,0.0027820533372912275
6838.555998869208,0.003106868160760207,0.002810058456679198
6838.55699864113,0.003139360764200747,0.0028352377935875884
6838.557998413053,0.003170251905020896,0.002857246327015576
6838.558998184976,0.003199248528207616,0.0028757956317432987
6838.559997956899,0.003226100259684044,0.00289066018447097
6838.560997728821,0.0032506010358187556,0.0029016825191484075
6838.561997500744,0.0032725898794027227,0.0029087770220830506
6838.5629972726665,0.0032919508295072624,0.002911932168729153
6838.56399704459,0.0033086119680634054,0.002911211049042381
6838.564996816513,0.003322543457429167,0.0029067500892879703
6838.565996588435,0.0033337545427185042,0.0028987559378833155
6838.566996360358,0.0033422895655667887,0.002887500552195774
6838.56799613228,0.0033482231374283057,0.002873314615613523
6838.568995904203,0.0033516546972960242,0.0028565795077609892
6838.569995676126,0.0033527027278111125,0.002837718113752049
6838.570995448049,0.0033514989329197623,0.0028171847865187524
6838.571995219972,0.003348182683651293,0.002795454775180078
6838.572994991894,0.0033428960007035433,0.0027730134022263975
6838.573994763817,0.0033357792623645503,0.002750345231171958
6838.57499453574,0.003326967728024131,0.0027279234500430043
6838.575994307663,0.003316588887749368,0.0027061997138277606
6838.576994079585,0.0033047606129040937,0.002685594706040406
6838.577993851508,0.003291590086786115,0.002666489657657383
6838.578993623431,0.0032771735066143533,0.0026492190015931227
6838.579993395353,0.003261596543272668,0.0026340642760841544
6838.580993167277,0.003244935522029566,0.002621249350733059
6838.581992939199,0.003227259252359842,0.0026109370368534546
6838.582992711122,0.003208631389841033,0.0026032271374005597
6838.583992483044,0.003189113172096275,0.0025981559674865006
6838.584992254967,0.0031687663597572764,0.0025956973297263535
6838.58599202689,0.0031476562363960676,0.002595764875747786
6838.586991798813,0.0031258545485384243,0.0025982157477655427
6838.587991570736,0.0031034422696586362,0.002602855380209339
6838.588991342658,0.0030805120568147774,0.0026094433394727072
6838.589991114581,0.003057170261888623,0.002617700076580757
6838.590990886504,0.003033538371360786,0.0026273144637765583
6838.591990658427,0.003009753770174042,0.0026379519839653436
6838.592990430349,0.002985969750367414,0.002649263433206728
6838.593990202272,0.0029623547132664107,0.0026608939746223096
6838.5949899741945,0.002939090543357222,0.0026724923499579613
6838.595989746118,0.0029163701678725056,0.0026837200162592514
6838.596989518041,0.0028943943709340584,0.0026942599384599175
6838.597989289963,0.0028733679989229786,0.002703824755045332
6838.598989061886,0.002853495740662849,0.0027121640604092258
6838.599988833808,0.0028349776663385436,0.0027190706108643657
6838.600988605731,0.002818004679154868,0.002724385344524577
6838.601988377654,0.002802754011750869,0.00272800118801849
6838.602988149577,0.0027893849048483206,0.002729865682704133
6838.6039879215,0.002778034627137079,0.0027299824809259854
6838.604987693422,0.002768815003150125,0.0027284117358017624
6838.605987465345,0.002761809586531842,0.002725269352448008
6838.606987237268,0.00275707155405191,0.0027207250113555435
6838.607987009191,0.0027546223248060115,0.002714998840647275
6838.608986781113,0.002754450852116922,0.0027083566210786203
6838.609986553036,0.0027565135120106435,0.002701103467926077
6838.610986324959,0.002760734532974536,0.002693576044024641
6838.611986096882,0.002767006960633689,0.002686133485654995
6838.612985868805,0.0027751941859375027,0.0026791473216556043
6838.613985640727,0.002785132054597615,0.002672990714463412
6838.61498541265,0.0027966315263509424,0.0026680273640080974
6838.615985184572,0.002809481802451795,0.002664600415189837
6838.616984956496,0.0028234538207046983,0.00266302170477171
6838.617984728418,0.0028383040301992344,0.002663561666947428
6838.618984500341,0.0028537783769026896,0.002666440183993115
6838.619984272264,0.002869616430543358,0.002671818627781731
6838.620984044186,0.0028855555614902763,0.0026797933040622933
6838.621983816109,0.0029013350578331824,0.0026903904887674774
6838.622983588032,0.0029167000804771583,0.00270356322655104
6838.623983359955,0.0029314053852338953,0.00271919003891957
6838.624983131877,0.0029452187761880525,0.0027370756588349443
6838.6259829038,0.002957924280145811,0.002756953863684124
6838.6269826757225,0.0029693250442141906,0.002778492414420628
6838.627982447646,0.0029792459591918194,0.0028013000354965597
6838.628982219569,0.0029875360102406684,0.0028249353060111186
6838.629981991491,0.0029940703698833563,0.0028489172798846787
6838.630981763414,0.0029987522802385914,0.0028727375949964473
6838.631981535336,0.0030015147975145087,0.0028958737582631703
6838.632981307259,0.0030023224616180897,0.0029178032206399157
6838.633981079182,0.0030011729040098772,0.002938017805675958
6838.634980851105,0.0029980983414103473,0.002956038032839121
6838.635980623028,0.0029931668459198036,0.002971426873898563
6838.63698039495,0.0029864832475117206,0.002983802493286768
6838.637980166873,0.0029781895185108237,0.002992849548003203
6838.638979938796,0.002968464501336425,0.0029983286478768006
6838.639979710719,0.002957522850050771,0.0030000836085600107
6838.640979482641,0.002945613064261514,0.002998046204165427
6838.641979254564,0.002933014526440755,0.0029922382622298177
