Time,Filtered_ECG
6740.494056416676,0.01620395615574742
6740.495056188892,0.016176112403451987
6740.496055961106,0.016147389933406604
6740.497055733322,0.01611776259910809
6740.498055505537,0.016087203963970537
6740.499055277753,0.01605568730691648
6740.500055049968,0.016023185628247737
6740.501054822184,0.015989671655801025
6740.502054594398,0.01595511785139359
6740.5030543666135,0.01591949641756399
6740.504054138829,0.01588277930461328
6740.505053911044,0.01584493821795164
6740.50605368326,0.015805944625755616
6740.507053455474,0.015765769766940912
6740.50805322769,0.015724384659455738
6740.509052999905,0.01568176010889971
6740.510052772121,0.015637866717473244
6740.511052544336,0.0155926748932623
6740.512052316552,0.015546154859863394
6740.513052088766,0.015498276666353592
6740.514051860981,0.015449010197610255
6740.515051633197,0.015398325184985174
6740.516051405412,0.015346191217337712
6740.517051177628,0.015292577752431511
6740.518050949842,0.015237454128699155
6740.519050722058,0.015180789577379209
6740.520050494273,0.015122553235029871
6740.521050266489,0.015062714156423395
6740.522050038704,0.015001241327825347
6740.52304981092,0.01493810368066268
6740.524049583134,0.014873270105584537
6740.525049355349,0.014806709466919577
6740.526049127565,0.014738390617533603
6740.52704889978,0.014668282414091106
6740.528048671996,0.014596353732724368
6740.52904844421,0.014522573485113656
6740.530048216426,0.014446910634981927
6740.531047988641,0.014369334215007494
6740.532047760857,0.01428981334415785
6740.533047533072,0.014208317245447862
6740.534047305288,0.014124815264125358
6740.535047077502,0.014039276886286915
6740.536046849717,0.013951671757926387
6740.537046621933,0.013861969704418336
6740.538046394148,0.013770140750437932
6740.539046166364,0.01367615514031822
6740.540045938578,0.013579983358844689
6740.541045710794,0.01348159615248603
6740.542045483009,0.01338096455105864
6740.543045255225,0.013278059889820963
6740.54404502744,0.013172853831992145
6740.545044799655,0.013065318391687794
6740.54604457187,0.012955425957263714
6740.547044344085,0.012843149315056444
6740.548044116301,0.012728461673507252
6740.549043888516,0.012611336687653787
6740.550043660732,0.012491748483971096
6740.551043432946,0.01236967168554086
6740.552043205162,0.012245081437524919
6740.553042977377,0.012117953432916106
6740.554042749593,0.011988263938536397
6740.555042521808,0.011855989821249167
6740.556042294023,0.01172110857434919
6740.557042066238,0.011583598344090847
6740.558041838453,0.011443437956311846
6740.559041610669,0.011300606943106719
6740.560041382884,0.011155085569501412
6740.561041155099,0.011006854860077707
6740.562040927314,0.010855896625493675
6740.56304069953,0.010702193488844191
6740.564040471745,0.010545728911803682
6740.5650402439605,0.010386487220491689
6740.566040016176,0.010224453631000701
6740.567039788391,0.010059614274524875
6740.568039560606,0.009891956222027976
6740.569039332821,0.009721467508389089
6740.570039105037,0.009548137155965392
6740.571038877252,0.009371955197512584
6740.572038649467,0.009192912698405145
6740.573038421682,0.009011001778100554
6740.574038193898,0.008826215630793713
6740.575037966113,0.008638548545210152
6740.5760377383285,0.008447995923489148
6740.577037510544,0.008254554299110676
6740.578037282759,0.008058221353823345
6740.579037054974,0.007858995933533858
6740.580036827189,0.007656878063122317
6740.581036599405,0.007451868960151584
6740.58203637162,0.007243971047443026
6740.583036143835,0.00703318796449504
6740.58403591605,0.006819524577724943
6740.585035688266,0.006602986989518822
6740.586035460481,0.006383582546077858
6740.5870352326965,0.006161319844053468
6740.588035004912,0.005936208735967259
6740.589034777127,0.00570826033441545
6740.590034549342,0.005477487015060939
6740.591034321557,0.005243902418419769
6740.592034093773,0.005007521450452271
6740.593033865988,0.0047683602819726355
6740.594033638203,0.004526436346894033
6740.595033410418,0.004281768339329497
6740.596033182634,0.004034376209571648
6740.597032954849,0.0037842811589768382
6740.5980327270645,0.0035315056337815133
6740.59903249928,0.0032760733178804594
6740.600032271495,0.003018009124598166
6740.60103204371,0.0027573391874857298
6740.602031815925,0.0024940908501766197
6740.603031588141,0.0022282926553352247
6740.604031360356,0.0019599743327325028
6740.605031132571,0.0016891667864832103
6740.606030904786,0.0014159020814792595
6740.607030677002,0.0011402134290536315
6740.608030449217,0.0008621351719090468
6740.6090302214325,0.0005817027683452423
6740.610029993647,0.00029895277581828516
6740.611029765862,1.3922833864889578e-05
6740.612029538078,-0.0002733483535757453
6740.613029310293,-0.0005628210364104932
6740.614029082509,-0.0008544544371795799
6740.615028854724,-0.0011482067703513065
6740.616028626939,-0.0014440352620933568
6740.617028399154,-0.0017418961704902703
6740.61802817137,-0.0020417448061771934
6740.619027943585,-0.0023435355533606003
6740.6200277158005,-0.0026472218911973567
6740.621027488015,-0.0029527564155042113
6740.62202726023,-0.003260090860770541
6740.623027032446,-0.003569176122447924
6740.624026804661,-0.003879962279490825
6740.625026576877,-0.004192398617123364
6740.626026349091,-0.004506433649807798
6740.627026121307,-0.0048220151443909695
6740.628025893522,-0.005139090143405568
6740.629025665738,-0.0054576049885036336
6740.630025437953,-0.0057775053440003174
6740.631025210168,-0.00609873622050647
6740.632024982383,-0.006421241998629227
6740.633024754598,-0.006744966452720309
6740.634024526814,-0.007069852774652352
6740.635024299029,-0.007395843597604148
6740.636024071245,-0.0077228810198361805
6740.637023843459,-0.008050906628438466
6740.638023615675,-0.00837986152303319
6740.63902338789,-0.008709686339415334
6740.640023160106,-0.009040321273115035
6740.641022932321,-0.009371706102866141
6740.642022704536,-0.009703780213966102
6740.643022476751,-0.01003648262151309
6740.644022248966,-0.010369751993507084
6740.645022021182,-0.010703526673802411
6740.646021793397,-0.011037744704900095
6740.647021565613,-0.01137234385056908
6740.648021337827,-0.011707261618286117
6740.649021110043,-0.012042435281484732
6740.650020882258,-0.01237780190160429
6740.6510206544735,-0.012713298349930768
6740.652020426689,-0.01304886132922133
6740.653020198904,-0.013384427395105298
6740.654019971119,-0.013719932977254644
6740.655019743334,-0.014055314400317436
6740.65601951555,-0.01439050790460819
6740.657019287765,-0.0147254496665494
6740.658019059981,-0.015060075818858888
6740.659018832195,-0.015394322470478025
6740.660018604411,-0.01572812572623621
6740.661018376626,-0.01606142170624738
6740.6620181488415,-0.016394146565034694
6740.663017921057,-0.016726236510379897
6740.664017693272,-0.017057627821894183
6740.665017465487,-0.017388256869307797
6740.666017237702,-0.017718060130475808
6740.667017009918,-0.018046974209097913
6740.668016782133,-0.018374935852150248
6740.669016554349,-0.018701881967027476
6740.670016326563,-0.019027749638393588
6740.671016098779,-0.019352476144740047
6740.672015870994,-0.019675998974650062
6740.6730156432095,-0.019998255842767983
6740.674015415425,-0.02031918470547302
6740.67501518764,-0.020638723776256685
6740.676014959855,-0.020956811540803567
6740.67701473207,-0.021273386771775298
6740.678014504286,-0.021588388543297667
6740.679014276501,-0.02190175624515116
6740.680014048717,-0.022213429596665352
6740.681013820931,-0.022523348660317806
6740.682013593147,-0.02283145385503843
6740.683013365362,-0.023137685969220532
6740.6840131375775,-0.023441986173439955
6740.685012909793,-0.023744296032883964
6740.686012682008,-0.024044557519491718
6740.687012454223,-0.02434271302380829
6740.688012226438,-0.024638705366554287
6740.689011998654,-0.024932477809913273
6740.690011770869,-0.02522397406853921
6740.691011543084,-0.025513138320286136
6740.692011315299,-0.02579991521666254
6740.693011087515,-0.02608424989301284
6740.69401085973,-0.026366087978428408
6740.6950106319455,-0.026645375605390584
6740.696010404161,-0.02692205941914801
6740.697010176375,-0.02719608658683074
6740.698009948591,-0.02746740480630337
6740.699009720806,-0.027735962314759492
6740.700009493022,-0.028001707897059892
6740.701009265237,-0.028264590893816836
6740.702009037452,-0.02852456120922699
6740.703008809667,-0.028781569318655623
6740.704008581883,-0.02903556627597486
6740.705008354098,-0.02928650372065901
6740.7060081263135,-0.029534333884640038
6740.707007898529,-0.02977900959892659
6740.708007670743,-0.030020484299990154
6740.709007442959,-0.030258712035921866
6740.710007215174,-0.030493647472363907
6740.71100698739,-0.03072524589821951
6740.712006759605,-0.0309534632311457
6740.71300653182,-0.03117825602283319
6740.714006304035,-0.03139958146407793
6740.715006076251,-0.03161739738964905
6740.716005848466,-0.031831662282957994
6740.717005620681,-0.032042335280533976
6740.718005392897,-0.03224937617631084
6740.719005165111,-0.03245274542573072
6740.720004937327,-0.032652404149670085
6740.721004709542,-0.03284831413819371
6740.722004481758,-0.03304043785414263
6740.723004253973,-0.033228738436561905
6740.724004026188,-0.03341317970397458
6740.725003798403,-0.03359372615750815
6740.726003570619,-0.03377034298387995
6740.727003342834,-0.033942996058248236
6740.728003115049,-0.03411165194693541
6740.729002887265,-0.034276277910030274
6740.730002659479,-0.0344368419038759
6740.731002431695,-0.03459331258344987
6740.73200220391,-0.0347456593046434
6740.733001976126,-0.034893852126445926
6740.734001748341,-0.035037861813041485
6740.735001520556,-0.03517765983582299
6740.736001292771,-0.035313218375330496
6740.7370010649865,-0.03544451032311929
6740.738000837202,-0.03557150928356333
6740.739000609417,-0.03569418957559971
6740.740000381633,-0.035812526234419405
6740.741000153847,-0.03592649501310966
6740.741999926063,-0.03603607238425316
6740.742999698278,-0.03614123554148926
6740.743999470494,-0.03624196240104237
6740.744999242709,-0.03633823160322265
6740.745999014924,-0.03643002251390415
6740.746998787139,-0.03651731522598532
6740.7479985593545,-0.036600090560836934
6740.74899833157,-0.036678330069742165
6740.749998103785,-0.03675201603533367
6740.750997876,-0.036821131473032225
6740.751997648215,-0.03688566013249154
6740.752997420431,-0.036945586499053794
6740.753997192646,-0.037000895795220104
6740.754996964862,-0.03705157398214025
6740.755996737076,-0.037097607761125695
6740.756996509292,-0.037138984575189694
6740.757996281507,-0.037175692610618156
6740.7589960537225,-0.03720772079857484
6740.759995825938,-0.037235058816744104
6740.760995598153,-0.03725769709101477
6740.761995370368,-0.0372756267972082
6740.762995142583,-0.03728883986285395
6740.763994914799,-0.03729732896901628
6740.764994687014,-0.037301087552174726
6740.76599445923,-0.0373001098061619
6740.766994231444,-0.037294390684161655
6740.76799400366,-0.0372839259007707
6740.768993775875,-0.037268711934126696
6740.7699935480905,-0.03724874602810565
6740.770993320306,-0.03722402619459133
6740.771993092521,-0.03719455121581916
6740.772992864736,-0.037160320646796904
6740.773992636951,-0.037121334817804025
6740.774992409167,-0.03707759483697105
6740.775992181382,-0.03702910259294001
6740.776991953598,-0.03697586075760629
6740.777991725812,-0.036917872788941763
6740.778991498028,-0.03685514293389848
6740.779991270243,-0.03678767623139154
6740.7809910424585,-0.03671547851535949
6740.781990814674,-0.036638556417899766
6740.782990586889,-0.036556917372476405
6740.783990359104,-0.036470569617196476
6740.784990131319,-0.036379522198151326
6740.785989903535,-0.03628378497281787
6740.78698967575,-0.03618336861351469
6740.787989447966,-0.036078284610906994
6740.78898922018,-0.03596854527755381
6740.789988992396,-0.0358541637514904
6740.790988764611,-0.03573515399983806
6740.7919885368265,-0.035611530822433284
6740.792988309042,-0.035483309855467646
6740.793988081257,-0.03535050757512955
6740.794987853472,-0.03521314130123859
6740.795987625687,-0.03507122920086314
6740.796987397903,-0.034924790291911506
6740.797987170118,-0.03477384444668696
6740.798986942334,-0.0346184123953969
6740.799986714548,-0.0344585157296062
6740.800986486764,-0.03429417690562524
6740.801986258979,-0.03412541924782254
6740.802986031194,-0.0339522669518525
6740.80398580341,-0.033774745087788494
6740.804985575625,-0.03359287960315158
6740.80598534784,-0.03340669732582507
6740.806985120055,-0.033216225966845196
6740.807984892271,-0.033021494123058166
6740.808984664486,-0.03282253127963358
6740.809984436702,-0.032619367812424395
6740.810984208916,-0.032412034990163464
6740.811983981132,-0.03220056497648661
6740.812983753347,-0.03198499083177222
6740.813983525562,-0.03176534651478725
6740.814983297778,-0.03154166688412954
6740.815983069992,-0.03131398769945633
6740.816982842208,-0.03108234562248881
6740.817982614423,-0.03084677821778299
6740.818982386639,-0.030607323953256778
6740.819982158854,-0.030364022200463844
6740.820981931069,-0.03011691323460493
6740.821981703284,-0.029866038234267627
6740.8229814755,-0.029611439280885984
6740.823981247715,-0.02935315935791178
6740.82498101993,-0.02909124234968945
6740.825980792146,-0.028825733040027137
6740.82698056436,-0.028556677110456632
6740.827980336576,-0.028284121138175137
6740.828980108791,-0.028008112593661882
6740.829979881007,-0.02772869983796289
6740.830979653222,-0.02744593211963734
6740.831979425437,-0.027159859571358934
6740.832979197652,-0.026870533206165757
6740.833978969868,-0.026578004913352337
6740.834978742083,-0.02628232745399735
6740.835978514298,-0.02598355445612073
6740.836978286514,-0.025681740409463746
6740.837978058728,-0.025376940659885706
6740.838977830944,-0.025069211403371178
6740.839977603159,-0.02475860967964166
6740.840977375375,-0.02444519336536591
6740.84197714759,-0.02412902116696349
6740.842976919805,-0.023810152612996256
6740.84397669202,-0.02348864804614307
6740.844976464236,-0.023164568614753158
6740.845976236451,-0.02283797626397395
6740.846976008666,-0.02250893372644948
6740.847975780882,-0.02217750451258577
6740.848975553096,-0.021843752900379848
6740.849975325312,-0.02150774392480941
6740.850975097527,-0.021169543366780345
6740.851974869743,-0.020829217741629692
6740.852974641958,-0.02048683428718185
6740.853974414173,-0.02014246095135624
6740.854974186388,-0.01979616637932486
6740.855973958604,-0.019448019900218473
6740.856973730819,-0.019098091513380534
6740.857973503034,-0.018746451874168405
6740.85897327525,-0.018393172279301814
6740.859973047464,-0.018038324651758978
6740.86097281968,-0.017681981525221446
6740.861972591895,-0.01732421602806914
6740.862972364111,-0.016965101866927686
6740.863972136326,-0.016604713309770605
6740.864971908541,-0.016243125168579443
6740.865971680756,-0.01588041278156528
6740.866971452972,-0.01551665199495561
6740.867971225187,-0.015151919144350903
6740.868970997402,-0.014786291035655631
6740.869970769618,-0.014419844925588862
6740.870970541832,-0.014052658501780006
6740.871970314048,-0.013684809862455672
6740.872970086263,-0.013316377495724003
6740.873969858479,-0.012947440258463191
6740.874969630694,-0.012578077354821431
6740.875969402909,-0.012208368314335787
6740.876969175124,-0.011838392969677959
6740.87796894734,-0.011468231434035274
6740.878968719555,-0.011097964078135644
6740.87996849177,-0.010727671506925655
6740.880968263985,-0.010357434535911243
6740.8819680362,-0.009987334167170852
6740.882967808416,-0.00961745156505129
6740.883967580631,-0.009247868031556722
6740.884967352847,-0.008878664981441605
6740.885967125061,-0.008509923917018504
6740.886966897277,-0.008141726402691996
6740.887966669492,-0.007774154039230038
6740.888966441707,-0.007407288437784433
6740.889966213923,-0.007041211193672246
6740.890965986138,-0.006676003859930252
6740.891965758353,-0.006311747920654861
6740.892965530568,-0.005948524764140234
6740.893965302784,-0.005586415655827682
6740.894965074999,-0.005225501711079783
6740.895964847215,-0.00486586386779302
6740.896964619429,-0.00450758285886306
6740.897964391645,-0.004150739184517109
6740.89896416386,-0.0037954130845281155
6740.899963936075,-0.003441684510325919
6740.900963708291,-0.0030896330970207673
6740.901963480506,-0.0027393381353549755
6740.902963252721,-0.002390878543598819
6740.903963024936,-0.0020443328394070147
6740.904962797152,-0.0016997791116523833
6740.905962569367,-0.0013572949922534367
6740.906962341583,-0.001016957628012739
6740.907962113797,-0.0006788436524829465
6740.908961886013,-0.00034302915787747353
6740.909961658228,-9.589667042727605e-06
6740.910961430443,0.0003213998944911421
6740.911961202659,0.0006498652263640732
6740.912960974874,0.0009757326811276377
6740.913960747089,0.0012989292918575302
6740.914960519304,0.0016193827996203182
6740.91596029152,0.0019370216807778808
6740.916960063735,0.0022517751741130804
6740.917959835951,0.0025635733077603285
6740.918959608165,0.0028723469259248355
6740.9199593803805,0.0031780277153744736
6740.920959152596,0.0034805482316883317
6740.921958924811,0.00377984192524621
6740.922958697027,0.004075843166943493
6740.923958469242,0.004368487273616043
6740.924958241457,0.00465771053316
6740.925958013672,0.004943450229331639
6740.926957785888,0.005225644666212721
6740.927957558103,0.005504233192327144
6740.928957330319,0.005779156224395042
6740.929957102533,0.006050355270710908
6740.9309568747485,0.006317772954132721
6740.931956646964,0.006581353034669534
6740.932956419179,0.006841040431655348
6740.933956191395,0.007096781245497535
6740.93495596361,0.007348522778988413
6740.935955735825,0.007596213558168998
6740.93695550804,0.007839803352734216
6740.937955280256,0.008079243195969298
6740.938955052471,0.0083144854042073
6740.939954824687,0.00854548359579808
6740.940954596901,0.008772192709579294
6740.9419543691165,0.008994569022840185
6740.942954141332,0.009212570168769245
6740.943953913547,0.009426155153377037
6740.944953685763,0.00963528437188572
6740.945953457977,0.0098399196245771
6740.946953230193,0.010040024132091378
6740.947953002408,0.01023556255016903
6740.948952774624,0.010426500983828623
6740.949952546839,0.010612807000973662
6740.950952319054,0.010794449645421858
6740.951952091269,0.010971399449350487
6740.9529518634845,0.011143628445151746
6740.9539516357,0.011311110176692205
6740.954951407915,0.011473819709970785
6740.955951180131,0.011631733643169816
6740.956950952345,0.011784830116093997
6740.957950724561,0.011933088818992228
6740.958950496776,0.012076491000757524
6740.959950268992,0.012215019476500343
6740.960950041207,0.012348658634490887
6740.961949813422,0.012477394442466117
6740.962949585637,0.012601214453297503
6740.9639493578525,0.012720107810015806
6740.964949130068,0.012834065250189507
6740.965948902283,0.012943079109653907
6740.966948674499,0.013047143325588359
6740.967948446713,0.013146253438939567
6740.968948218929,0.013240406596189363
6740.969947991144,0.01332960155046589
6740.97094776336,0.013413838661997676
6740.971947535575,0.013493119897910563
6740.97294730779,0.013567448831367915
6740.973947080005,0.013636830640055034
6740.9749468522205,0.013701272104009106
6740.975946624436,0.013760781602796356
6740.976946396651,0.013815369112038433
6740.977946168867,0.013865046199290257
6740.978945941081,0.013909826019271767
6740.979945713297,0.01394972330845624
6740.980945485512,0.013984754379017918
6740.981945257728,0.014014937112141863
6740.982945029943,0.014040290950699143
6740.983944802158,0.014060836891290509
6740.984944574373,0.01407659747566201
6740.985944346588,0.01408759678149615
6740.986944118804,0.014093860412582536
6740.987943891019,0.014095415488372282
6740.988943663235,0.014092290632920787
6740.989943435449,0.014084515963223935
6740.990943207665,0.014072123076953201
6740.99194297988,0.014055145039595568
6740.992942752096,0.014033616371004632
6740.993942524311,0.014007573031369722
6740.994942296526,0.013977052406610279
6740.995942068741,0.013942093293203128
6740.996941840956,0.013902735882450725
6740.997941613172,0.013859021744198827
6740.998941385387,0.01381099381001234
6740.999941157603,0.013758696355818471
6741.000940929817,0.013702174984026497
6741.001940702033,0.013641476605133797
6741.002940474248,0.013576649418827908
6741.003940246464,0.013507742894594625
6741.004940018679,0.013434807751842269
6741.0059397908935,0.013357895939552451
6741.006939563109,0.01327706061546786
6741.007939335324,0.013192356124827685
6741.00893910754,0.013103837978661643
6741.009938879755,0.01301156283165367
6741.01093865197,0.012915588459586708
6741.011938424185,0.012815973736380111
6741.012938196401,0.012712778610731569
6741.013937968616,0.012606064082375563
6741.014937740832,0.012495892177970704
6741.015937513046,0.012382325926628407
6741.0169372852615,0.012265429335095656
6741.017937057477,0.012145267362604748
6741.018936829692,0.01202190589540315
6741.019936601908,0.011895411720976704
6741.020936374123,0.011765852501979653
6741.021936146338,0.011633296749885185
6741.022935918553,0.011497813798370319
6741.023935690769,0.01135947377644924
6741.024935462984,0.011218347581369335
6741.0259352352,0.011074506851284303
6741.026935007414,0.010928023937718882
6741.0279347796295,0.010778971877839822
6741.028934551845,0.010627424366547749
6741.02993432406,0.01047345572840469
6741.030934096276,0.010317140889411946
6741.031933868491,0.010158555348652981
6741.032933640706,0.009997775149815964
6741.033933412921,0.009834876852610447
6741.034933185137,0.009669937504092634
6741.035932957352,0.009503034609913485
6741.036932729568,0.009334246105503848
6741.037932501782,0.009163650327210582
6741.0389322739975,0.008991325983397525
6741.039932046213,0.008817352125524949
6741.040931818428,0.008641808119221037
6741.041931590644,0.008464773615358715
6741.042931362859,0.008286328521151107
6741.043931135074,0.008106552971278665
6741.044930907289,0.007925527299060873
6741.045930679505,0.007743332007685295
6741.04693045172,0.007560047741506523
6741.047930223936,0.007375755257427505
6741.04892999615,0.00719053539637551
6741.0499297683655,0.007004469054884937
6741.050929540581,0.00681763715679899
6741.051929312796,0.006630120625102115
6741.052929085012,0.0064420003538948915
6741.053928857227,0.006253357180522955
6741.054928629442,0.00606427185787128
6741.055928401657,0.005874825026835022
6741.056928173873,0.005685097188977922
6741.057927946088,0.005495168679389054
6741.058927718304,0.005305119639748577
6741.059927490518,0.005115029991612879
6741.0609272627335,0.004924979409929306
6741.061927034949,0.00473504729679045
6741.062926807164,0.004545312755437696
6741.06392657938,0.004355854564523516
6741.064926351595,0.004166751152641687
6741.06592612381,0.003978080573134386
6741.066925896025,0.0037899204791847986
6741.067925668241,0.0036023480992036735
6741.068925440456,0.0034154402125179443
6741.069925212672,0.0032292731253693464
6741.070924984886,0.003043922647230711
6741.071924757101,0.002859464067447409
6741.072924529317,0.002675972132211194
6741.073924301532,0.002493521021873465
6741.074924073748,0.0023121843286047733
6741.075923845962,0.00213203503440715
6741.076923618178,0.0019531454894856216
6741.077923390393,0.0017755873909850038
6741.078923162609,0.0015994317620977765
6741.079922934824,0.0014247489315485332
6741.080922707039,0.0012516085134601526
6741.081922479254,0.0010800793876065285
6741.082922251469,0.0009102296800563445
6741.083922023685,0.0007421267442120677
6741.0849217959,0.000575837142248017
6741.085921568116,0.0004114266269510672
6741.08692134033,0.0002489601239672617
6741.087921112546,8.850171445733964e-05
6741.088920884761,-6.988538183606136e-05
6741.089920656977,-0.0002261388231069911
6741.090920429192,-0.0003801971615882359
6741.091920201407,-0.0005319998592346955
6741.092919973622,-0.0006814873029861283
6741.093919745837,-0.0008286008196074608
6741.094919518053,-0.000973282690104993
6741.095919290268,-0.0011154761637169532
6741.096919062484,-0.001255125471476962
6741.097918834698,-0.0013921758393490905
6741.098918606914,-0.001526573500933345
6741.099918379129,-0.0016582657097406184
6741.100918151345,-0.0017872007510363916
6741.10191792356,-0.0019133279532527415
6741.102917695775,-0.0020365976989685035
6741.10391746799,-0.002156961435457704
6741.104917240205,-0.002274371684806651
6741.105917012421,-0.0023887820536003346
6741.106916784636,-0.0025001472421790484
6741.107916556852,-0.0026084230534663805
6741.108916329066,-0.0027135664013699405
6741.109916101282,-0.0028155353187563972
6741.110915873497,-0.0029142889650025836
6741.1119156457125,-0.003009787633124629
6741.112915417928,-0.003101992756487265
6741.113915190143,-0.0031908669150956335
6741.114914962358,-0.003276373841472112
6741.115914734573,-0.003358478426120817
6741.116914506789,-0.0034371467225826013
6741.117914279004,-0.0035123459520834946
6741.11891405122,-0.003584044507779681
6741.119913823434,-0.0036522119586023054
6741.12091359565,-0.003716819052705597
6741.121913367865,-0.0037778377205220427
6741.1229131400805,-0.0038352410774285914
6741.123912912296,-0.0038890034260280763
6741.124912684511,-0.003939100258050271
6741.125912456726,-0.003985508255877137
6741.126912228941,-0.004028205293696959
6741.127912001157,-0.004067170438292187
6741.128911773372,-0.004102383949465855
6741.129911545588,-0.0041338272801115395
6741.130911317802,-0.004161483075931867
6741.131911090018,-0.004185335174810632
6741.132910862233,-0.004205368605843628
6741.1339106344485,-0.00422156958803334
6741.134910406664,-0.004233925528652705
6741.135910178879,-0.004242425021283191
6741.136909951094,-0.0042470578435324716
6741.137909723309,-0.004247814954437042
6741.138909495525,-0.00424468849155517
6741.13990926774,-0.004237671767755728
6741.140909039955,-0.004226759267708557
6741.14190881217,-0.0042119466440821455
6741.142908584386,-0.004193230713454627
6741.143908356601,-0.004170609451944179
6741.1449081288165,-0.0041440819905650735
6741.145907901031,-0.004113648610315719
6741.146907673247,-0.004079310737005051
6741.147907445462,-0.0040410709358236615
6741.148907217677,-0.003998932905666011
6741.149906989893,-0.00395290147321
6741.150906762108,-0.003902982586760081
6741.151906534323,-0.0038491833098600256
6741.152906306538,-0.003791511814681317
6741.153906078754,-0.003729977375193071
6741.154905850969,-0.003664590360119234
6741.1559056231845,-0.0035953622256887493
6741.156905395399,-0.0035223055081842103
6741.157905167614,-0.0034454338162944608
6741.15890493983,-0.003364761823276483
6741.159904712045,-0.003280305258931827
6741.160904484261,-0.0031920809014027805
6741.161904256476,-0.003100106568793432
6741.162904028691,-0.0030044011106207524
6741.163903800906,-0.002904984399100771
6741.164903573122,-0.0028018773202748855
6741.165903345337,-0.0026951017649813123
6741.1669031175525,-0.0025846806196766327
6741.167902889767,-0.002470637757112374
6741.168902661982,-0.0023529980268715022
6741.169902434198,-0.002231787245769683
6741.170902206413,-0.0021070321881261392
6741.171901978629,-0.001978760575908913
6741.172901750844,-0.0018470010687593266
6741.173901523059,-0.0017117832539004306
6741.174901295274,-0.001573137635934216
6741.17590106749,-0.0014310956265323378
6741.176900839705,-0.0012856895340250538
6741.17790061192,-0.0011369525528929874
6741.178900384135,-0.000984918753166207
6741.17990015635,-0.0008296230697349641
6741.180899928566,-0.0006711012915762793
6741.181899700781,-0.0005093900509004072
6741.182899472997,-0.00034452681222106325
6741.183899245212,-0.00017654986135315364
6741.184899017427,-5.498294341599943e-06
6741.185898789642,0.00016858799367530682
6741.186898561858,0.00034566831966475206
6741.187898334073,0.0005257012239573404
6741.188898106288,0.0007086444815611952
6741.189897878503,0.0008944551135294376
6741.190897650718,0.0010830893983784305
6741.191897422934,0.001274502883554343
6741.192897195149,0.0014686503969457527
6741.193896967365,0.0016654860584401476
6741.19489673958,0.0018649632915223287
6741.195896511795,0.0020670348349128317
6741.19689628401,0.002271652754244611
6741.1978960562255,0.0024787684537763343
6741.198895828441,0.0026883326881407105
6741.199895600656,0.002900295574126318
6741.200895372871,0.0031146066024914103
6741.201895145086,0.0033312146498081937
6741.202894917302,0.003550067990336063
6741.203894689517,0.0037711143079223264
6741.204894461733,0.0039943007079289985
6741.205894233947,0.004219573729184328
6741.206894006163,0.004446879355957831
6741.207893778378,0.004676163029957698
6741.2088935505935,0.004907369662349629
6741.209893322809,0.0051404436457962175
6741.210893095024,0.005375328866516288
6741.211892867239,0.005611968716363714
6741.212892639454,0.005850306104925519
6741.21389241167,0.006090283471639263
6741.214892183885,0.0063318427979300014
6741.215891956101,0.006574925619367285
6741.216891728315,0.006819473037842963
6741.217891500531,0.00706542573377072
6741.218891272746,0.007312723978308521
6741.2198910449615,0.007561307645605298
6741.220890817177,0.007811116225073351
6741.221890589392,0.008062088833688103
6741.222890361607,0.008314164228316932
6741.223890133822,0.008567280818078971
6741.224889906038,0.00882137667673791
6741.225889678253,0.009076389555129943
6741.226889450469,0.009332256893629183
6741.227889222683,0.009588915834653032
6741.228888994899,0.00984630323521005
6741.229888767114,0.010104355679493034
6741.2308885393295,0.010363009491520017
6741.231888311545,0.010622200747826042
6741.23288808376,0.01088186529020865
6741.233887855975,0.011141938738530158
6741.23488762819,0.011402356503579918
6741.235887400406,0.011663053799999915
6741.236887172621,0.011923965659277204
6741.237886944837,0.012185026942806815
6741.238886717051,0.012446172355028831
6741.239886489267,0.012707336456643459
6741.240886261482,0.012968453677907986
6741.2418860336975,0.013229458332019557
6741.242885805913,0.013490284628587647
6741.243885578127,0.01375086668720023
6741.244885350343,0.01401113855108761
6741.245885122558,0.014271034200888015
6741.246884894774,0.014530487568518984
6741.247884666989,0.014789432551158919
6741.248884439205,0.01504780302534313
6741.249884211419,0.015305532861178982
6741.250883983635,0.015562555936684867
6741.25188375585,0.01581880615225796
6741.2528835280655,0.016074217445275766
6741.253883300281,0.016328723804836593
6741.254883072495,0.016582259286644183
6741.255882844711,0.016834758028041727
6741.256882616926,0.017086154263200513
6741.257882389142,0.017336382338468362
6741.258882161357,0.017585376727883028
6741.259881933573,0.01783307204885558
6741.260881705787,0.01807940307802862
6741.261881478003,0.01832430476731403
6741.262881250218,0.018567712260114916
6741.263881022433,0.018809560907736046
6741.264880794649,0.019049786285987184
6741.265880566863,0.019288324211983402
6741.266880339079,0.019525110761146436
6741.267880111294,0.019760082284411035
6741.26887988351,0.01999317542564015
6741.269879655725,0.020224327139252745
6741.27087942794,0.020453474708067965
6741.271879200155,0.020680555761369356
6741.272878972371,0.020905508293192817
6741.273878744586,0.021128270680841887
6741.274878516801,0.021348781703634037
6741.275878289016,0.02156698056188143
6741.276878061231,0.021782806896109615
6741.277877833447,0.021996200806517593
6741.278877605662,0.022207102872682554
6741.279877377878,0.022415454173512504
6741.280877150093,0.022621196307449798
6741.281876922308,0.022824271412928587
6741.282876694523,0.023024622189088868
6741.283876466739,0.023222191916749638
6741.284876238954,0.02341692447964328
6741.285876011169,0.023608764385912924
6741.286875783384,0.023797656789874184
6741.287875555599,0.02398354751404178
6741.288875327815,0.024166383071421063
6741.28987510003,0.024346110688063378
6741.290874872246,0.02452267832588322
6741.291874644461,0.02469603470573384
6741.292874416676,0.024866129330736616
6741.293874188891,0.025032912509857834
6741.2948739611065,0.025196335381724867
6741.295873733322,0.0253563499386718
6741.296873505537,0.025512909051002355
6741.297873277752,0.025665966491455652
6741.298873049967,0.025815476959857787
6741.299872822183,0.025961396107939398
6741.300872594398,0.02610368056429651
6741.301872366614,0.026242287959468744
6741.302872138829,0.026377176951105766
6741.303871911044,0.026508307249189473
6741.304871683259,0.026635639641276066
6741.3058714554745,0.02675913601771881
6741.30687122769,0.026878759396828978
6741.307870999905,0.02699447394992954
6741.30887077212,0.027106245026253067
6741.309870544335,0.027214039177632845
6741.310870316551,0.027317824182933728
6741.311870088766,0.02741756907216711
6741.312869860982,0.027513244150232666
6741.313869633197,0.027604821020227977
6741.314869405412,0.02769227260626597
6741.315869177627,0.027775573175739393
6741.3168689498425,0.027854698360971344
6741.317868722058,0.027929625180190938
6741.318868494273,0.02800033205777403
6741.319868266488,0.028066798843690025
6741.320868038703,0.028129006832097347
6741.321867810919,0.028186938779032306
6741.322867583134,0.028240578919137862
6741.32386735535,0.028289912981381435
6741.324867127565,0.028334928203713125
6741.32586689978,0.028375613346618568
6741.326866671995,0.028411958705523547
6741.3278664442105,0.028443956122010894
6741.328866216426,0.028471598993813723
6741.329865988641,0.02849488228355307
6741.330865760856,0.02851380252619187
6741.331865533071,0.02852835783518142
6741.332865305287,0.02853854790728049
6741.333865077502,0.02854437402603118
6741.334864849718,0.028545839063879686
6741.335864621932,0.02854294748293363
6741.336864394148,0.028535705334351416
6741.337864166363,0.028524120256362587
6741.3388639385785,0.02850820147092167
6741.339863710794,0.028487959779001426
6741.340863483008,0.028463407554535074
6741.341863255224,0.028434558737020433
6741.342863027439,0.028401428822802485
6741.343862799655,0.028364034855054187
6741.34486257187,0.028322395412478555
6741.345862344086,0.028276530596757735
6741.3468621163,0.02822646201877752
6741.347861888516,0.028172212783658047
6741.348861660731,0.02811380747462341
6741.349861432946,0.028051272135744595
6741.350861205162,0.027984634253591614
6741.351860977376,0.02791392273783179
6741.352860749592,0.02783916790081204
6741.353860521807,0.027760401436163654
6741.354860294023,0.027677656396468502
6741.355860066238,0.027590967170025956
6741.356859838454,0.02750036945675986
6741.357859610668,0.02740590024330492
6741.358859382884,0.027307597777311836
6741.359859155099,0.027205501541010126
6741.360858927314,0.027099652224067267
6741.36185869953,0.026990091695782467
6741.362858471744,0.026876862976652913
6741.36385824396,0.02676001020934978
6741.364858016175,0.026639578629140966
6741.365857788391,0.02651561453379697
6741.366857560606,0.026388165253015912
6741.367857332822,0.026257279117403182
6741.368857105036,0.026123005427040654
6741.369856877252,0.025985394419680046
6741.370856649467,0.0258444972385944
6741.371856421682,0.02570036590012119
6741.372856193898,0.025553053260929923
6741.373855966112,0.025402612985046622
6741.374855738328,0.025249099510666853
6741.375855510543,0.025092568016788584
6741.376855282759,0.024933074389695303
6741.377855054974,0.024770675189319434
6741.37885482719,0.02460542761551529
6741.379854599404,0.024437389474270235
6741.38085437162,0.024266619143882024
6741.381854143835,0.024093175541129636
6741.38285391605,0.02391711808746407
6741.383853688266,0.023738506675244984
6741.38485346048,0.02355740163404822
6741.385853232696,0.023373863697068686
6741.386853004911,0.02318795396764232
6741.387852777127,0.022999733885910204
6741.388852549342,0.022809265195647268
6741.389852321558,0.022616609911277605
6741.390852093772,0.02242183028509755
6741.391851865988,0.022224988774727318
6741.392851638203,0.022026148010811472
6741.393851410418,0.021825370764987903
6741.394851182634,0.021622719918144406
6741.395850954848,0.021418258428981533
6741.396850727064,0.02121204930289977
6741.397850499279,0.021004155561228616
6741.398850271495,0.020794640210814393
6741.39985004371,0.02058356621398304
6741.400849815925,0.020370996458893363
6741.40184958814,0.020156993730295596
6741.402849360356,0.01994162068070934
6741.403849132571,0.019724939802034155
6741.404848904786,0.019507013397605435
6741.405848677001,0.019287903554707442
6741.406848449216,0.019067672117554797
6741.407848221432,0.01884638066075297
6741.408847993647,0.018624090463247842
6741.409847765863,0.018400862482773797
6741.410847538078,0.01817675733080924
6741.411847310293,0.017951835248047984
6741.412847082508,0.017726156080394382
6741.413846854724,0.017499779255489626
6741.414846626939,0.017272763759776277
6741.415846399154,0.017045168116107547
6741.416846171369,0.016817050361907566
6741.417845943584,0.016588468027888416
6741.4188457158,0.01635947811732935
6741.419845488015,0.01613013708592335
6741.420845260231,0.015900500822195737
6741.421845032446,0.015670624628499174
6741.422844804661,0.015440563202589044
6741.423844576876,0.015210370619782792
6741.424844349092,0.014980100315706459
6741.425844121307,0.014749805069631203
6741.426843893522,0.01451953698840225
6741.427843665737,0.014289347490962332
6741.428843437952,0.01405928729347138
6741.429843210168,0.013829406395023924
6741.430842982383,0.013599754063965474
6741.431842754599,0.013370378824808923
6741.432842526814,0.013141328445752005
6741.433842299029,0.012912649926796638
6741.434842071244,0.012684389488470896
6741.43584184346,0.012456592561154186
6741.436841615675,0.012229303775006127
6741.43784138789,0.012002566950499336
6741.438841160105,0.0117764250895561
6741.43984093232,0.011550920367288673
6741.440840704536,0.011326094124342477
6741.441840476751,0.011101986859841186
6741.442840248967,0.010878638224932236
6741.443840021182,0.010656087016930943
6741.444839793397,0.010434371174060956
6741.445839565612,0.010213527770788522
6741.446839337827,0.00999359301374758
6741.447839110043,0.00977460223825252
6741.448838882258,0.009556589905395148
6741.449838654473,0.009339589599722167
6741.450838426688,0.00912363402748935
6741.451838198904,0.008908755015488394
6741.452837971119,0.008694983510442336
6741.453837743335,0.008482349578965306
6741.45483751555,0.008270882408082332
6741.455837287765,0.008060610306304731
6741.45683705998,0.007851560705256564
6741.457836832195,0.0076437601618474195
6741.458836604411,0.0074372343609865575
6741.459836376626,0.007232008118833153
6741.460836148841,0.007028105386577064
6741.461835921056,0.006825549254744154
6741.462835693272,0.006624361958019847
6741.463835465487,0.006424564880584216
6741.464835237703,0.006226178561951512
6741.465835009917,0.006029222703306677
6741.4668347821325,0.00583371617433089
6741.467834554348,0.005639677020507815
6741.468834326563,0.005447122470901679
6741.469834098779,0.005256068946397888
6741.470833870993,0.005066532068396401
6741.471833643209,0.004878526667947692
6741.472833415424,0.004692066795320748
6741.47383318764,0.004507165729992243
6741.474832959855,0.004323835991045776
6741.475832732071,0.004142089347969814
6741.476832504285,0.003961936831842843
6741.4778322765005,0.0037833887468939984
6741.478832048716,0.0036064546824273345
6741.479831820931,0.003431143525097653
6741.480831593147,0.0032574634715256605
6741.481831365361,0.0030854220412400058
6741.482831137577,0.0029150260899335595
6741.483830909792,0.002746281823021096
6741.484830682008,0.002579194809485352
6741.485830454223,0.002413769995998312
6741.486830226439,0.002250011721304446
6741.487829998653,0.0020879237308525688
6741.4888297708685,0.0019275091916629652
6741.489829543084,0.001768770707416411
6741.490829315299,0.0016117103337517282
6741.491829087515,0.0014563295937585377
6741.492828859729,0.0013026294936519204
6741.493828631945,0.0011506105386157406
6741.49482840416,0.0010002727488014577
6741.495828176376,0.0008516156754693181
6741.496827948591,0.0007046384172588957
6741.497827720807,0.0005593396365760166
6741.498827493021,0.0004157175760831614
6741.4998272652365,0.0002737700752804661
6741.500827037452,0.00013349458716443554
6741.501826809667,-5.111805048558333e-06
6741.502826581883,-0.0001420523711469789
6741.503826354097,-0.00027733071711006545
6741.504826126313,-0.00041095076826805387
6741.505825898528,-0.0005429167524496617
6741.506825670744,-0.0006732331831296993
6741.507825442959,-0.0008019048425895015
6741.508825215175,-0.0009289367651026888
6741.509824987389,-0.0010543342201585952
6741.5108247596045,-0.0011781026957355684
6741.51182453182,-0.0013002478816362517
6741.512824304035,-0.0014207756528969028
6741.513824076251,-0.0015396920532827736
6741.514823848465,-0.001657003278881565
6741.515823620681,-0.0017727156618069593
6741.516823392896,-0.001886835654024225
6741.517823165112,-0.001999369811309876
6741.518822937327,-0.002110324777357344
6741.519822709543,-0.002219707268040611
6741.520822481757,-0.0023275240558477167
6741.5218222539725,-0.0024337819544960546
6741.522822026188,-0.00253848780374133
6741.523821798403,-0.0026416484543920074
6741.524821570619,-0.0027432707535410086
6741.525821342833,-0.0028433615300262997
6741.526821115049,-0.0029419275801318623
6741.527820887264,-0.003038975653540332
6741.52882065948,-0.0031345124395483555
6741.529820431695,-0.003228544553555448
6741.53082020391,-0.0033210785238368297
6741.531819976125,-0.003412120778610424
6741.53281974834,-0.003501677633407852
6741.533819520556,-0.003589755278758937
6741.534819292771,-0.003676359768198853
6741.535819064987,-0.003761497006606746
6741.536818837201,-0.0038451727388843183
6741.537818609417,-0.003927392538982629
6741.538818381632,-0.0040081617992850805
6741.539818153848,-0.004087485720354351
6741.540817926063,-0.004165369301050813
6741.541817698278,-0.004241817329029756
6741.542817470493,-0.004316834371624545
6741.543817242708,-0.004390424767122692
6741.544817014924,-0.004462592616441589
6741.545816787139,-0.0045333417752104355
6741.546816559354,-0.004602675846264691
6741.547816331569,-0.004670598172559086
6741.548816103785,-0.004737111830504944
6741.549815876,-0.0048022196237372675
6741.550815648216,-0.004865924077316723
6741.551815420431,-0.0049282274323713205
6741.5528151926455,-0.004989131641182225
6741.553814964861,-0.005048638362717758
6741.554814737076,-0.005106748958619208
6741.555814509292,-0.005163464489641622
6741.556814281507,-0.005218785712552252
6741.557814053722,-0.005272713077488872
6741.558813825937,-0.0053252467257797614
6741.559813598153,-0.005376386488226755
6741.560813370368,-0.005426131883852494
6741.561813142584,-0.005474482119112686
6741.562812914799,-0.005521436087574027
6741.5638126870135,-0.005566992370058133
6741.564812459229,-0.005611149235251715
6741.565812231444,-0.005653904640782983
6741.56681200366,-0.005695256234764043
6741.567811775875,-0.005735201357798784
6741.56881154809,-0.005773737045455405
6741.569811320305,-0.005810860031202415
6741.570811092521,-0.0058465667498064965
6741.571810864736,-0.0058808533411902715
6741.572810636952,-0.005913715654747508
6741.573810409167,-0.005945149254112903
6741.5748101813815,-0.005975149422383071
6741.575809953597,-0.006003711167784893
6741.576809725812,-0.006030829229786901
6741.577809498028,-0.006056498085648923
6741.578809270243,-0.006080711957404779
6741.579809042458,-0.006103464819272401
6741.580808814673,-0.006124750405485364
6741.581808586889,-0.006144562218539405
6741.582808359104,-0.006162893537847182
6741.58380813132,-0.006179737428794115
6741.584807903535,-0.006195086752187812
6741.5858076757495,-0.006208934174093181
6741.586807447965,-0.006221272176045021
6741.58780722018,-0.0062320930656294396
6741.588806992396,-0.0062413889874251265
6741.589806764611,-0.006249151934295132
6741.590806536826,-0.006255373759019394
6741.591806309041,-0.006260046186257885
6741.592806081257,-0.006263160824833868
6741.593805853472,-0.006264709180326365
6741.594805625688,-0.006264682667960611
6741.595805397902,-0.0062630726257849306
6741.5968051701175,-0.006259870328122203
6741.597804942333,-0.006255066999283842
6741.598804714548,-0.006248653827534033
6741.599804486764,-0.006240621979291804
6741.600804258979,-0.006230962613558393
6741.601804031194,-0.006219666896557324
6741.602803803409,-0.0062067260165745135
6741.603803575625,-0.006192131198985757
6741.60480334784,-0.006175873721458888
6741.605803120056,-0.006157944929317914
6741.60680289227,-0.0061383362510563765
6741.6078026644855,-0.006117039213987215
6741.608802436701,-0.006094045460016262
6741.609802208916,-0.0060693467615265785
6741.610801981132,-0.0060429350373607405
6741.611801753346,-0.00601480236888821
6741.612801525562,-0.005984941016144995
6741.613801297777,-0.00595334343403283
6741.614801069993,-0.005920002288565291
6741.615800842208,-0.005884910473148379
6741.616800614424,-0.005848061124883306
6741.617800386638,-0.005809447640879391
6741.618800158853,-0.005769063694565178
6741.619799931069,-0.005726903251986074
6741.620799703284,-0.005682960588077052
6741.6217994755,-0.005637230302899232
6741.622799247714,-0.005589707337829423
6741.62379901993,-0.005540386991692108
6741.624798792145,-0.005489264936823635
6741.625798564361,-0.005436337235058727
6741.626798336576,-0.00538160035362972
6741.627798108792,-0.005325051180969099
6741.628797881006,-0.005266687042406133
6741.629797653221,-0.00520650571574846
6741.630797425437,-0.005144505446739615
6741.631797197652,-0.0050806849643835975
6741.632796969868,-0.005015043496127644
6741.633796742082,-0.0049475807828944845
6741.634796514298,-0.004878297093955495
6741.635796286513,-0.00480719324163621
6741.636796058729,-0.004734270595845822
6741.637795830944,-0.004659531098422336
6741.638795603159,-0.0045829772772851985
6741.639795375374,-0.004504612260387349
6741.640795147589,-0.004424439789458821
6741.641794919805,-0.004342464233534241
6741.64279469202,-0.004258690602256862
6741.643794464236,-0.004173124558952071
6741.64479423645,-0.004085772433463645
6741.645794008666,-0.003996641234746382
6741.646793780881,-0.0039057386632090907
6741.647793553097,-0.003813073122802305
6741.648793325312,-0.003718653732845451
6741.649793097527,-0.003622490339588572
6741.650792869742,-0.0035245935275040052
6741.651792641957,-0.0034249746303036915
6741.652792414173,-0.0033236457416780177
6741.653792186388,-0.0032206197257522704
6741.654791958604,-0.003115910227256925
6741.655791730818,-0.0030095316814080873
6741.656791503034,-0.0029014993234944874
6741.657791275249,-0.0027918291981674642
6741.658791047465,-0.0026805381684304247
6741.65979081968,-0.0025676439243243468
6741.660790591895,-0.002453164991305984
6741.66179036411,-0.0023371207383155704
6741.662790136325,-0.002219531385530954
6741.663789908541,-0.0021004180118052436
6741.664789680756,-0.0019798025617851784
6741.665789452972,-0.0018577078527075644
6741.666789225186,-0.0017341575808712177
6741.667788997402,-0.0016091763277818927
6741.668788769617,-0.0014827895659676818
6741.6697885418325,-0.0013550236644623093
6741.670788314048,-0.001225905893953637
6741.671788086263,-0.001095464431594598
6741.672787858478,-0.0009637283654736303
6741.673787630693,-0.0008307276987415431
6741.674787402909,-0.0006964933533915794
6741.675787175124,-0.0005610571736892523
6741.676786947339,-0.000424451929248352
6741.677786719554,-0.0002867113177493473
6741.67878649177,-0.0001478699672962742
6741.679786263985,-7.96343840810404e-06
6741.6807860362005,0.000132971774359463
6741.681785808416,0.00027489824116583365
6741.682785580631,0.0004177775960150023
6741.683785352846,0.0005615705362666206
6741.684785125061,0.0007062368225325126
6741.685784897277,0.0008517352789623962
6741.686784669492,0.000998023793922468
6741.687784441707,0.0011450593210704117
6741.688784213922,0.0012927978808302983
6741.689783986138,0.0014411945622707493
6741.690783758353,0.0015902035253896494
6741.6917835305685,0.0017397780038086016
6741.692783302784,0.001889870307880223
6741.693783074999,0.002040431828211269
6741.694782847214,0.0021914130396044652
6741.695782619429,0.002342763505421791
6741.696782391645,0.0024944318823718397
6741.69778216386,0.0026463659257237233
6741.698781936075,0.002798512494949866
6741.69978170829,0.0029508175597998693
6741.700781480506,0.0031032262068074346
6741.701781252721,0.0032556826462321383
6741.7027810249365,0.0034081302194375615
6741.703780797152,0.0035605114067070102
6741.704780569366,0.0037127678354977427
6741.705780341582,0.003864840289134314
6741.706780113797,0.004016668715941357
6741.707779886013,0.004168192238815831
6741.708779658228,0.004319349165238576
6741.709779430443,0.0044700769977247725
6741.710779202658,0.004620312444712806
6741.711778974874,0.004769991431890927
6741.712778747089,0.004919049113960991
6741.7137785193045,0.005067419886838566
6741.71477829152,0.005215037400288668
6741.715778063734,0.005361834570996394
6741.71677783595,0.005507743596071793
6741.717777608165,0.0056526959669883576
6741.718777380381,0.005796622483954553
6741.719777152596,0.005939453270717836
6741.720776924811,0.006081117789800527
6741.721776697026,0.006221544858166867
6741.722776469242,0.006360662663320455
6741.723776241457,0.006498398779831124
6741.724776013672,0.006634680186290251
6741.725775785887,0.006769433282693395
6741.726775558102,0.006902583908249087
6741.727775330318,0.0070340573596126416
6741.728775102533,0.007163778409543876
6741.729774874749,0.007291671325987733
6741.730774646964,0.0074176598915768385
6741.731774419179,0.007541667423555184
6741.732774191394,0.007663616794122069
6741.73377396361,0.007783430451195523
6741.734773735825,0.007901030439594291
6741.73577350804,0.00801633842263746
6741.736773280255,0.008129275704160603
6741.73777305247,0.008239763250947281
6741.738772824686,0.008347721715574533
6741.739772596901,0.008453071459670844
6741.740772369117,0.008555732577584905
6741.741772141331,0.008655624920463262
6741.742771913547,0.00875266812073472
6741.743771685762,0.008846781616999139
6741.744771457978,0.008937884679317996
6741.745771230193,0.009025896434903926
6741.746771002408,0.009110735894206084
6741.747770774623,0.009192321977388078
6741.748770546838,0.00927057354119491
6741.749770319054,0.00934540940620518
6741.750770091269,0.009416748384464543
6741.751769863485,0.009484509307496204
6741.752769635699,0.00954861105468396
6741.753769407915,0.009608972582023124
6741.75476918013,0.009665512951234388
6741.7557689523455,0.009718151359235474
6741.756768724561,0.009766807167965134
6741.757768496776,0.009811399934553733
6741.758768268991,0.009851849441834426
6741.759768041206,0.009888075729188477
6741.760767813422,0.009919999123717922
6741.761767585637,0.009947540271738383
6741.762767357853,0.009970620170584346
6741.763767130067,0.009989160200718885
6741.764766902283,0.010003082158139326
6741.765766674498,0.010012308287070018
6741.7667664467135,0.010016761312932956
6741.767766218929,0.010016364475586709
6741.768765991144,0.010011041562823805
6741.769765763359,0.010000716944116413
6741.770765535574,0.00998531560459989
6741.77176530779,0.009964763179283598
6741.772765080005,0.00993898598747814
6741.773764852221,0.009907911067428042
6741.774764624435,0.009871466211138751
6741.775764396651,0.009829579999386755
6741.776764168866,0.009782181836901502
6741.7777639410815,0.009729201987707686
6741.778763713297,0.009670571610616324
6741.779763485512,0.009606222794852879
6741.780763257727,0.009536088595810413
6741.781763029942,0.009460103070915389
6741.782762802158,0.009378201315593401
6741.783762574373,0.009290319499321676
6741.784762346589,0.009196394901754756
6741.785762118803,0.009096365948909424
6741.786761891019,0.008990172249394484
6741.787761663234,0.008877754630670752
6741.7887614354495,0.008759055175326233
6741.789761207665,0.00863401725735126
6741.790760979879,0.008502585578398017
6741.791760752095,0.008364706204008698
6741.79276052431,0.008220326599796206
6741.793760296526,0.008069395667561088
6741.794760068741,0.007911863781328202
6741.795759840957,0.007747682823286259
6741.796759613171,0.0075768062196132505
6741.797759385387,0.007399188976170368
6741.798759157602,0.0072147877140468376
6741.7997589298175,0.007023560704937726
6741.800758702033,0.006825467906336423
6741.801758474247,0.006620470996523146
6741.802758246463,0.006408533409330436
6741.803758018678,0.006189620368666177
6741.804757790894,0.00596369892277439
6741.805757563109,0.005730737978213682
6741.806757335324,0.005490708333533024
6741.807757107539,0.0052435827126242835
6741.808756879755,0.004989335797730812
6741.80975665197,0.0047279442620912675
6741.8107564241855,0.004459386802197812
6741.811756196401,0.004183644169647772
6741.812755968615,0.003900699202567867
6741.813755740831,0.003610536856590076
6741.814755513046,0.0033131442353582373
6741.815755285262,0.0030085106205444915
6741.816755057477,0.002696627501354665
6741.817754829692,0.002377488603501753
6741.818754601907,0.0020510899176266824
6741.819754374123,0.001717429727145571
6741.820754146338,0.001376508635502752
6741.821753918553,0.0010283295928088464
6741.822753690769,0.00067289792184323
6741.823753462983,0.0003102213434002872
6741.824753235199,-5.9689999041032814e-05
6741.825753007414,-0.0004368235153446998
6741.82675277963,-0.0008211641454622716
6741.827752551845,-0.0012126943369146642
6741.82875232406,-0.0016113940230306732
6741.829752096275,-0.002017240601961606
6741.830751868491,-0.0024302089164910732
6741.831751640706,-0.0028502712346586616
6741.832751412921,-0.003277397231215866
6741.833751185137,-0.003711553969932332
6741.834750957351,-0.0041527058867700875
6741.835750729567,-0.004600814773943073
6741.836750501782,-0.005055839764878884
6741.837750273998,-0.005517737320099223
6741.838750046213,-0.005986461214035215
6741.839749818428,-0.006461962522793322
6741.840749590643,-0.006944189612887308
6741.8417493628585,-0.0074330881309513175
6741.842749135074,-0.007928600994448795
6741.843748907289,-0.008430668383391675
6741.844748679505,-0.008939227733083876
6741.845748451719,-0.009454213727902784
6741.846748223935,-0.009975558296132019
6741.84774799615,-0.01050319060585826
6741.848747768366,-0.011037037061944529
6741.849747540581,-0.011577021304091743
6741.850747312796,-0.01212306420599987
6741.851747085011,-0.012675083875639424
6741.8527468572265,-0.013232995656643548
6741.853746629442,-0.01379671213083028
6741.854746401657,-0.014366143121864126
6741.855746173872,-0.014941195700065477
6741.856745946087,-0.015521774188375954
6741.857745718303,-0.016107780169487305
6741.858745490518,-0.01669911249414103
6741.859745262734,-0.017295667290605575
6741.860745034949,-0.01789733797533759
6741.861744807164,-0.018504015264833387
6741.862744579379,-0.019115587188676373
6741.8637443515945,-0.019731939103785994
6741.86474412381,-0.020352953709873247
6741.865743896025,-0.02097851106610745
6741.86674366824,-0.021608488608998576
6741.867743440455,-0.022242761171498922
6741.868743212671,-0.022881201003327443
6741.869742984886,-0.02352367779251939
6741.870742757102,-0.024170058688203395
6741.871742529316,-0.024820208324607382
6741.872742301532,-0.025473988846294104
6741.873742073747,-0.026131259934626415
6741.8747418459625,-0.026791878835461514
6741.875741618178,-0.02745570038807292
6741.876741390393,-0.028122577055298015
6741.877741162608,-0.028792358954908465
6741.878740934823,-0.02946489389220019
6741.879740707039,-0.030140027393798993
6741.880740479254,-0.030817602742677447
6741.88174025147,-0.03149746101437814
6741.882740023684,-0.03217944111443798
6741.8837397959,-0.032863379817007744
6741.884739568115,-0.03354911180466074
6741.8857393403305,-0.034236469709383835
6741.886739112546,-0.03492528415474371
6741.887738884761,-0.03561538379922056
6741.888738656976,-0.03630659538070084
6741.889738429191,-0.03699874376212038
6741.890738201407,-0.037691651978247996
6741.891737973622,-0.038385141283599544
6741.892737745838,-0.03907903120147132
6741.893737518052,-0.03977313957408127
6741.894737290268,-0.040467282613805555
6741.895737062483,-0.041161274955497415
6741.8967368346985,-0.04185492970987444
6741.897736606914,-0.042548058517959814
6741.898736379129,-0.04324047160656213
6741.899736151344,-0.043931977844777974
6741.900735923559,-0.04462238480150059
6741.901735695775,-0.04531149880391736
6741.90273546799,-0.04599912499697813
6741.903735240206,-0.04668506740381561
6741.90473501242,-0.047369128987098795
6741.905734784636,-0.04805111171129916
6741.906734556851,-0.048730816605849055
6741.907734329066,-0.049408043829170946
6741.908734101282,-0.05008259273355548
6741.909733873497,-0.050754261930865775
6741.910733645712,-0.05142284935904473
6741.911733417927,-0.05208815234940158
6741.912733190143,-0.05274996769465322
6741.913732962358,-0.053408091717695116
6741.914732734574,-0.05406232034107626
6741.915732506788,-0.05471244915715173
6741.916732279004,-0.05535827349888594
6741.917732051219,-0.055999588511279015
6741.918731823434,-0.05663618922338814
6741.91973159565,-0.05726787062091517
6741.920731367864,-0.05789442771933144
6741.92173114008,-0.05851565563750974
6741.922730912295,-0.059131349671833415
6741.923730684511,-0.05974130537075199
6741.924730456726,-0.06034531860975211
6741.925730228942,-0.06094318566671237
6741.926730001156,-0.061534703297610446
6741.927729773372,-0.062119668812550294
6741.928729545587,-0.0626978801520772
6741.929729317802,-0.06326913596374815
6741.930729090018,-0.06383323567892475
6741.931728862232,-0.06438997958975523
6741.932728634448,-0.0649391689263125
6741.933728406663,-0.06548060593385432
6741.934728178879,-0.06601409395017176
6741.935727951094,-0.06653943748299182
6741.936727723309,-0.06705644228739986
6741.937727495524,-0.06756491544324732
6741.93872726774,-0.0680646654325102
6741.939727039955,-0.0685555022165638
6741.94072681217,-0.06903723731333901
6741.941726584386,-0.06950968387432603
6741.9427263566,-0.06997265676139096
6741.943726128816,-0.07042597262337151
6741.944725901031,-0.07086944997241787
6741.945725673247,-0.07130290926004523
6741.946725445462,-0.07172617295286458
6741.947725217677,-0.07213906560795824
6741.948724989892,-0.07254141394786706
6741.949724762108,-0.07293304693515613
6741.950724534323,-0.07331379584652603
6741.951724306538,-0.07368349434643644
6741.952724078754,-0.07404197856020962
6741.953723850968,-0.07438908714658073
6741.954723623184,-0.07472466136966269
6741.955723395399,-0.07504854517029337
6741.956723167615,-0.07536058523673285
6741.95772293983,-0.07566063107467913
6741.958722712045,-0.07594853507657072
6741.95972248426,-0.07622415259014495
6741.960722256476,-0.07648734198622076
6741.961722028691,-0.07673796472567566
6741.962721800906,-0.07697588542558642
6741.963721573122,-0.07720097192450327
6741.964721345336,-0.07741309534682839
6741.965721117552,-0.07761213016626929
6741.966720889767,-0.07779795426833862
6741.967720661983,-0.07797044901187175
6741.968720434198,-0.07812949928953479
6741.969720206413,-0.07827499358729498
6741.970719978628,-0.07840682404282669
6741.971719750844,-0.07852488650282627
6741.972719523059,-0.07862908057920943
6741.973719295274,-0.07871930970416517
6741.97471906749,-0.07879548118404042
6741.975718839704,-0.07885750625203027
6741.97671861192,-0.07890530011964862
6741.977718384135,-0.07893878202695458
6741.978718156351,-0.0789578752915098
6741.979717928566,-0.07896250735604278
6741.980717700781,-0.07895260983479548
6741.981717472996,-0.07892811855852881
6741.982717245212,-0.07888897361816279
6741.983717017427,-0.07883511940702741
6741.984716789642,-0.07876650466170074
6741.985716561857,-0.07868308250141019
6741.986716334072,-0.07858481046597314
6741.987716106288,-0.07847165055225291
6741.988715878503,-0.07834356924910602
6741.989715650719,-0.07820053757079641
6741.990715422934,-0.07804253108885251
6741.991715195149,-0.07786952996234264
6741.992714967364,-0.07768151896654442
6741.993714739579,-0.0774784875199832
6741.994714511795,-0.07726042970981499
6741.99571428401,-0.07702734431552914
6741.996714056225,-0.07677923483094555
6741.99771382844,-0.07651610948448152
6741.998713600656,-0.0762379812576632
6741.999713372871,-0.07594486790185664
6742.000713145087,-0.07563679195319344
6742.001712917301,-0.07531378074566634
6742.002712689517,-0.07497586642237038
6742.003712461732,-0.07462308594486484
6742.004712233947,-0.07425548110063229
6742.005712006163,-0.07387309850861046
6742.006711778378,-0.07347598962277366
6742.007711550593,-0.07306421073374009
6742.008711322808,-0.07263782296838213
6742.009711095024,-0.07219689228741671
6742.010710867239,-0.07174148948095324
6742.011710639455,-0.07127169016197696
6742.012710411669,-0.07078757475774618
6742.0137101838845,-0.07028922849908224
6742.0147099561,-0.06977674140753207
6742.015709728315,-0.06925020828038374
6742.016709500531,-0.06870972867351685
6742.017709272746,-0.06815540688207024
6742.018709044961,-0.06758735191891137
6742.019708817176,-0.06700567749089313
6742.020708589392,-0.06641050197288535
6742.021708361607,-0.06580194837957039
6742.022708133823,-0.06518014433499447
6742.023707906037,-0.06454522203986866
6742.0247076782525,-0.06389731823661596
6742.025707450468,-0.06323657417216366
6742.026707222683,-0.06256313555848297
6742.027706994899,-0.061877152530880546
6742.028706767114,-0.06117877960404971
6742.029706539329,-0.060468175625891615
6742.030706311544,-0.059745503729119485
6742.03170608376,-0.05901093128066159
6742.032705855975,-0.058264629828881365
6742.033705628191,-0.05750677504863516
6742.034705400405,-0.05673754668419073
6742.0357051726205,-0.0559571284900315
6742.036704944836,-0.05516570816957377
6742.037704717051,-0.05436347731182594
6742.038704489267,-0.053550631326020476
6742.039704261482,-0.05272736937425103
6742.040704033697,-0.051893894302148504
6742.041703805912,-0.05105041256763144
6742.042703578128,-0.050197134167767346
6742.043703350343,-0.04933427256378276
6742.044703122559,-0.048462044604261005
6742.045702894773,-0.047580670446567774
6742.0467026669885,-0.04669037347654564
6742.047702439204,-0.04579138022651934
6742.048702211419,-0.04488392029165481
6742.049701983635,-0.04396822624471535
6742.050701755849,-0.043044533549259155
6742.051701528065,-0.042113080471323026
6742.05270130028,-0.041174107989637436
6742.053701072496,-0.04022785970441872
6742.054700844711,-0.039274581744784674
6742.055700616927,-0.03831452267484013
6742.056700389141,-0.03734793339847973
6742.0577001613565,-0.0363750670629554
6742.058699933572,-0.035396178961256825
6742.059699705787,-0.03441152643335337
6742.060699478003,-0.033421368766346944
6742.061699250217,-0.03242596709358545
6742.062699022433,-0.0314255842927873
6742.063698794648,-0.03042048488322784
6742.064698566864,-0.029410934922039084
6742.065698339079,-0.028397201899674363
6742.066698111294,-0.027379554634589916
6742.067697883509,-0.02635826316719561
6742.0686976557245,-0.025333598653127145
6742.06969742794,-0.0243058332558921
6742.070697200155,-0.023275240038942227
6742.071696972371,-0.022242092857224196
6742.072696744585,-0.02120666624826109
6742.073696516801,-0.020169235322816483
6742.074696289016,-0.019130075655192865
6742.075696061232,-0.018089463173215924
6742.076695833447,-0.017047674047955853
6742.077695605662,-0.01600498458323672
6742.078695377877,-0.014961671104984621
6742.079695150092,-0.013918009850465167
6742.080694922308,-0.012874276857460584
6742.081694694523,-0.011830747853436524
6742.082694466739,-0.010787698144748304
6742.083694238953,-0.009745402505935948
6742.084694011169,-0.008704135069156961
6742.085693783384,-0.007664169213805266
6742.0866935556,-0.006625777456364186
6742.087693327815,-0.005589231340540852
6742.08869310003,-0.004554801327728857
6742.089692872245,-0.0035227566878456226
6742.09069264446,-0.002493365390590634
6742.091692416676,-0.001466893997170563
6742.092692188891,-0.0004436075525373003
6742.093691961107,0.0005762305218149397
6742.094691733321,0.0015923585344470071
6742.095691505537,0.0026045166299198453
6742.096691277752,0.0036124468940397212
6742.097691049968,0.004615893458355437
6742.098690822183,0.005614602603858342
6742.0996905943975,0.006608322863834794
6742.100690366613,0.00759680512581938
6742.101690138828,0.00857980273259569
6742.102689911044,0.009557071582189818
6742.103689683259,0.010528370226799973
6742.104689455475,0.011493459970603751
6742.105689227689,0.012452104966382677
6742.106688999905,0.013404072310901823
6742.10768877212,0.014349132138980479
6742.108688544336,0.015287057716188369
6742.109688316551,0.01621762553010051
6742.1106880887655,0.017140615380042707
6742.111687860981,0.018055810465258774
6742.112687633196,0.018962997471430137
6742.113687405412,0.019861966655478
6742.114687177627,0.020752511928578445
6742.115686949842,0.021634430937320988
6742.116686722057,0.02250752514294197
6742.117686494273,0.023371599898565305
6742.118686266488,0.024226464524384615
6742.119686038704,0.025071932380723104
6742.120685810919,0.02590782093890977
6742.1216855831335,0.026733951849913583
6742.122685355349,0.02755015101068022
6742.123685127564,0.028356248628119356
6742.12468489978,0.029152079280693816
6742.125684671995,0.029937481977565576
6742.12668444421,0.03071230021525738
6742.127684216425,0.03147638203179282
6742.128683988641,0.03222958005828211
6742.129683760856,0.032971751567925284
6742.130683533072,0.03370275852240934
6742.131683305286,0.03442246761568038
6742.1326830775015,0.035130750315076696
6742.133682849717,0.03582748289981306
6742.134682621932,0.03651254649681118
6742.135682394148,0.03718582711387537
6742.136682166363,0.03784721567021658
6742.137681938578,0.03849660802433193
6742.138681710793,0.039133904999250416
6742.139681483009,0.03975901240515908
6742.140681255224,0.04037184105942764
6742.14168102744,0.0409723068040526
6742.142680799654,0.04156033052054575
6742.1436805718695,0.04213583814229472
6742.144680344085,0.04269876066442651
6742.1456801163,0.04324903415120771
6742.146679888516,0.04378659974101727
6742.147679660731,0.04431140364892997
6742.148679432946,0.04482339716695028
6742.149679205161,0.0453225366619376
6742.150678977377,0.045808783571264604
6742.151678749592,0.0462821043962514
6742.152678521808,0.04674247069341824
6742.153678294022,0.04718985906360001
6742.1546780662375,0.047624251138965214
6742.155677838453,0.04804563356798253
6742.156677610668,0.0484539979983773
6742.157677382884,0.048849341058120034
6742.158677155099,0.049231664334488535
6742.159676927314,0.04960097435124451
6742.160676699529,0.04995728254396474
6742.161676471745,0.05030060523356603
6742.16267624396,0.05063096359806267
6742.163676016176,0.05094838364259396
6742.16467578839,0.051252896167759
6742.165675560605,0.05154453673629505
6742.166675332821,0.05182334563813542
6742.167675105036,0.05208936785388219
6742.168674877252,0.05234265301672851
6742.169674649467,0.05258325537286496
6742.170674421682,0.05281123374040369
6742.171674193897,0.05302665146685373
6742.172673966113,0.05322957638518032
6742.173673738328,0.05342008076848035
6742.174673510544,0.05359824128330558
6742.175673282758,0.05376413894166461
6742.176673054973,0.05391785905173437
6742.177672827189,0.05405949116731105
6742.178672599404,0.05418912903603011
6742.17967237162,0.05430687054638441
6742.180672143834,0.05441281767356904
6742.18167191605,0.05450707642418097
6742.182671688265,0.05458975677980108
6742.183671460481,0.05466097263948592
6742.184671232696,0.05472084176119567
6742.185671004912,0.054769485702185004
6742.186670777126,0.05480702975838267
6742.187670549341,0.05483360290278547
6742.188670321557,0.05484933772289204
6742.189670093772,0.054854370357201705
6742.190669865988,0.05484884043080305
6742.191669638202,0.054832890990077335
6742.192669410418,0.054806668436540924
6742.193669182633,0.05477032245985145
6742.194668954849,0.05472400597000205
6742.195668727064,0.05466787502872747
6742.196668499279,0.054602088780145976
6742.197668271494,0.05452680938066012
6742.198668043709,0.05444220192813927
6742.199667815925,0.05434843439040602
6742.20066758814,0.054245677533047855
6742.201667360356,0.05413410484657509
6742.20266713257,0.0540138924729454
6742.203666904786,0.05388521913147492
6742.204666677001,0.05374826604415555
6742.205666449217,0.0536032168603979
6742.206666221432,0.05345025758121938
6742.207665993647,0.053289576482896665
6742.208665765862,0.05312136404010183
6742.209665538077,0.05294581284854147
6742.210665310293,0.05276311754711811
6742.211665082508,0.0525734747396331
6742.212664854724,0.05237708291605035
6742.213664626938,0.052174142373340546
6742.214664399154,0.05196485513592508
6742.215664171369,0.051749424875739476
6742.2166639435845,0.05152805683193603
6742.2176637158,0.051300957730245685
6742.218663488015,0.05106833570201905
6742.21966326023,0.050830400202966905
6742.220663032445,0.05058736193162032
6742.221662804661,0.05033943274753086
6742.222662576876,0.050086825589231006
6742.223662349092,0.04982975439197534
6742.224662121306,0.04956843400528284
6742.225661893522,0.049303080110300816
6742.226661665737,0.04903390913701112
6742.2276614379525,0.04876113818129932
6742.228661210168,0.048484984921908114
6742.229660982383,0.04820566753729585
6742.230660754598,0.047923404622421804
6742.231660526813,0.04763841510547983
6742.232660299029,0.0473509181646021
6742.233660071244,0.047061133144555
6742.23465984346,0.04676927947344914
6742.235659615674,0.046475576579485756
6742.23665938789,0.04618024380776171
6742.237659160105,0.045883500337155325
6742.2386589323205,0.04558556509731527
6742.239658704536,0.045286656685774605
6742.240658476751,0.044986993285212086
6742.241658248966,0.04468679258088241
6742.242658021181,0.044386271678237235
6742.243657793397,0.044085647020758456
6742.244657565612,0.04378513430802515
6742.245657337827,0.043484948414035676
6742.246657110042,0.043185303305806146
6742.247656882258,0.04288641196226672
6742.248656654473,0.04258848629347707
6742.2496564266885,0.04229173706018256
6742.250656198904,0.041996373793732715
6742.251655971118,0.04170260471638345
6742.252655743334,0.041410636662005056
6742.253655515549,0.0411206749972175
6742.254655287765,0.04083292354297495
6742.25565505998,0.04054758449662136
6742.256654832195,0.04026485835443896
6742.25765460441,0.03998494383471139
6742.258654376626,0.0397080378013232
6742.259654148841,0.03943433518791709
6742.2606539210565,0.03916402892263052
6742.261653693271,0.03889730985343249
6742.262653465486,0.038634366674081926
6742.263653237702,0.038375385850728125
6742.264653009917,0.03812055154917424
6742.265652782133,0.037870045562824424
6742.266652554348,0.037624047241335355
6742.267652326563,0.03738273341999295
6742.268652098778,0.037146278349835075
6742.269651870994,0.03691485362854122
6742.270651643209,0.03668862813211008
6742.2716514154245,0.03646776794734621
6742.272651187639,0.03625243630517633
6742.273650959854,0.036042793514816575
6742.27465073207,0.035838996898811135
6742.275650504285,0.03564120072896316
6742.276650276501,0.03544955616317829
6742.277650048716,0.035264211183241134
6742.278649820931,0.03508531053354464
6742.279649593146,0.034912995660792284
6742.280649365362,0.034747404654692685
6742.281649137577,0.03458867218966621
6742.282648909792,0.03443692946758293
6742.283648682007,0.034292304161551525
6742.284648454222,0.03415492036077867
6742.285648226438,0.03402489851651854
6742.286647998653,0.03390235538913229
6742.287647770869,0.033787403996277277
6742.288647543084,0.033680153562246073
6742.289647315299,0.03358070946847533
6742.290647087514,0.03348917320524438
6742.29164685973,0.03340564232458363
6742.292646631945,0.03333021039441258
6742.29364640416,0.03326296695392721
6742.294646176375,0.03320399747025631
6742.29564594859,0.033153383296406075
6742.296645720806,0.033111201630512184
6742.297645493021,0.03307752547641818
6742.298645265237,0.03305242360559892
6742.299645037452,0.03303596052044728
6742.300644809667,0.03302819641894218
6742.301644581882,0.033029187160715665
6742.3026443540975,0.03303898423453622
6742.303644126313,0.033057634727225504
6742.304643898528,0.033085181294024886
6742.305643670743,0.03312166213042797
6742.306643442958,0.0331671109454948
6742.307643215174,0.03322155693666287
6742.308642987389,0.03328502476606976
6742.309642759605,0.03335753453840154
6742.310642531819,0.033439101780280964
6742.311642304035,0.03352973742120879
6742.31264207625,0.033629447776071304
6742.3136418484655,0.03373823452922679
6742.314641620681,0.033856094720183125
6742.315641392896,0.03398302073087849
6742.316641165111,0.03411900027457679
6742.317640937326,0.034264016386388665
6742.318640709542,0.03441804741542903
6742.319640481757,0.034581067018621056
6742.320640253973,0.03475304415615627
6742.321640026187,0.03493394308861963
6742.322639798403,0.03512372337578782
6742.323639570618,0.035322339877108616
6742.3246393428335,0.03552974275386818
6742.325639115049,0.03574587747305292
6742.326638887264,0.03597068481291196
6742.327638659479,0.03620410087022572
6742.328638431694,0.03644605706928583
6742.32963820391,0.03669648017259121
6742.330637976125,0.03695529229326458
6742.331637748341,0.037222410909193496
6742.332637520555,0.037497748878899465
6742.333637292771,0.03778121445913827
6742.334637064986,0.03807271132423428
6742.3356368372015,0.038372138587151064
6742.336636609417,0.03867939082230011
6742.337636381632,0.03899435809008902
6742.338636153847,0.03931692596321014
6742.339635926062,0.03964697555466992
6742.340635698278,0.03998438354755895
6742.341635470493,0.04032902222656177
6742.342635242709,0.0406807595112052
6742.343635014923,0.041039458990842895
6742.344634787139,0.04140497996137349
6742.345634559354,0.041777177463688885
6742.3466343315695,0.04215590232384858
6742.347634103785,0.042541001194975225
6742.348633875999,0.04293231660086598
6742.349633648215,0.043329686981313696
6742.35063342043,0.04373294673913127
6742.351633192646,0.04414192628887194
6742.352632964861,0.04455645210723772
6742.353632737077,0.04497634678516769
6742.354632509291,0.045401429081597174
6742.355632281507,0.04583151397887846
6742.356632053722,0.04626641273985287
6742.3576318259375,0.046705932966563696
6742.358631598153,0.047149878660598714
6742.359631370367,0.04759805028505053
6742.360631142583,0.048050244828082095
6742.361630914798,0.04850625586808434
6742.362630687014,0.048965873640411856
6742.363630459229,0.049428885105682024
6742.364630231445,0.049895074019622246
6742.365630003659,0.05036422100444926
6742.366629775875,0.05083610362176389
6742.36762954809,0.05131049644694408
6742.368629320305,0.051787171145018705
6742.369629092521,0.05226589654800359
6742.370628864735,0.052746438733681546
6742.371628636951,0.05322856110580688
6742.372628409166,0.05371202447571516
6742.373628181382,0.05419658714531786
6742.374627953597,0.05468200499146131
6742.375627725813,0.055168031551628915
6742.376627498027,0.055654418110964866
6742.377627270243,0.05614091379059703
6742.378627042458,0.05662726563723653
6742.379626814673,0.05711321871403054
6742.380626586889,0.05759851619264463
6742.381626359103,0.05808289944655021
6742.382626131319,0.05856610814549191
6742.383625903534,0.05904788035110936
6742.38462567575,0.059527952613686985
6742.385625447965,0.060006060070004905
6742.38662522018,0.06048193654226348
6742.387624992395,0.06095531463805318
6742.3886247646105,0.06142592585134091
6742.389624536826,0.061893500664443275
6742.390624309041,0.062357768650956796
6742.391624081256,0.0628184585796139
6742.392623853471,0.06327529851903357
6742.393623625687,0.06372801594333413
6742.394623397902,0.06417633783857597
6742.395623170118,0.0646199908100007
6742.396622942333,0.06505870119003294
6742.397622714548,0.06549219514701067
6742.398622486763,0.06592019879460886
6742.3996222589785,0.06634243830192103
6742.400622031194,0.0667586400041621
6742.401621803409,0.06716853051395572
6742.402621575624,0.0675718368331683
6742.403621347839,0.06796828646525083
6742.404621120055,0.06835760752804965
6742.40562089227,0.0687395288670458
6742.406620664486,0.06911378016898224
6742.407620436701,0.06948009207583754
6742.408620208916,0.06983819629910422
6742.409619981131,0.07018782573432888
6742.4106197533465,0.07052871457587102
6742.411619525562,0.07086059843183685
6742.412619297777,0.07118321443914379
6742.413619069992,0.07149630137867065
6742.414618842207,0.07179959979044845
6742.415618614423,0.07209285208884557
6742.416618386638,0.07237580267770143
6742.417618158854,0.07264819806536153
6742.418617931069,0.07290978697956692
6742.419617703284,0.07316032048215025
6742.420617475499,0.0733995520834908
6742.4216172477145,0.07362723785667995
6742.42261701993,0.07384313655134857
6742.423616792145,0.07404700970710738
6742.42461656436,0.0742386217665508
6742.425616336575,0.07441774018777436
6742.426616108791,0.07458413555635575
6742.427615881006,0.07473758169674852
6742.428615653222,0.0748778557830377
6742.429615425437,0.07500473844900556
6742.430615197652,0.07511801389745583
6742.431614969867,0.07521747000874433
6742.4326147420825,0.07530289844846336
6742.433614514298,0.07537409477422741
6742.434614286513,0.07543085854150745
6742.435614058728,0.07547299340846096
6742.436613830943,0.07550030723970447
6742.437613603159,0.07551261220897561
6742.438613375374,0.07550972490063153
6742.43961314759,0.07549146640993006
6742.440612919805,0.07545766244204039
6742.44161269202,0.07540814340972922
6742.442612464235,0.07534274452966873
6742.4436122364505,0.07526130591731187
6742.444612008666,0.0751636726802808
6742.445611780881,0.07504969501021341
6742.446611553096,0.07491922827301296
6742.447611325311,0.07477213309744586
6742.448611097527,0.07460827546203196
6742.449610869742,0.07442752678017195
6742.450610641958,0.07422976398345656
6742.451610414172,0.07401486960310169
6742.452610186388,0.07378273184945429
6742.453609958603,0.0735332446895132
6742.454609730818,0.07326630792240962
6742.455609503034,0.0729818272527917
6742.456609275248,0.07267971436205757
6742.457609047464,0.07235988697738165
6742.458608819679,0.0720222689384791
6742.459608591895,0.0716667902620533
6742.46060836411,0.0712933872038715
6742.461608136326,0.0709020023184143
6742.46260790854,0.07049258451604459
6742.463607680756,0.07006508911764187
6742.464607452971,0.06961947790664828
6742.465607225186,0.06915571917847307
6742.466606997402,0.06867378778720246
6742.467606769616,0.06817366518956276
6742.468606541832,0.06765533948608476
6742.469606314047,0.0671188054594185
6742.470606086263,0.06656406460974824
6742.471605858478,0.06599112518725866
6742.472605630694,0.06540000222160437
6742.473605402908,0.0647907175483356
6742.474605175124,0.06416329983223493
6742.475604947339,0.06351778458752115
6742.476604719554,0.06285421419487795
6742.47760449177,0.0621726379152672
6742.478604263984,0.06147311190048842
6742.4796040362,0.06075569920044823
6742.480603808415,0.06002046976710545
6742.481603580631,0.059267500455059935
6742.482603352846,0.058496875018755445
6742.483603125062,0.05770868410626877
6742.484602897276,0.05690302524965952
6742.485602669492,0.056080002851857325
6742.486602441707,0.05523972817006509
6742.487602213922,0.05438231929565889
6742.488601986138,0.0535079011305673
6742.489601758352,0.0526166053601147
6742.490601530568,0.051708570422315026
6742.491601302783,0.050783941473604106
6742.492601074999,0.04984287035100065
6742.493600847214,0.0488855155306874
6742.49460061943,0.04791204208300583
6742.495600391644,0.04692262162385934
6742.49660016386,0.04591743226252162
6742.497599936075,0.044896658545848935
6742.49859970829,0.04386049139889663
6742.499599480506,0.04280912806194272
6742.50059925272,0.041742772023923264
6742.501599024936,0.04066163295228696
6742.502598797151,0.03956592661927858
6742.503598569367,0.03845587482466403
6742.504598341582,0.03733170531491234
6742.5055981137975,0.03619365169885337
6742.506597886012,0.035041953359833206
6742.507597658228,0.03387685536439287
6742.508597430443,0.03269860836750003
6742.509597202658,0.03150746851436721
6742.510596974874,0.030303697338894584
6742.511596747088,0.02908756165877953
6742.512596519304,0.02785933346734007
6742.513596291519,0.02661928982210369
6742.514596063735,0.02536771273021764
6742.51559583595,0.024104889030741636
6742.516595608165,0.022831110273888712
6742.51759538038,0.02154667259728457
6742.518595152596,0.020251876599320692
6742.519594924811,0.018947027209681246
6742.520594697026,0.017632433557128593
6742.521594469241,0.016308408834636825
6742.522594241456,0.01497527016196716
6742.523594013672,0.01363333844578319
6742.524593785887,0.0122829382374079
6742.525593558103,0.010924397588328
6742.526593330318,0.009558047903554162
6742.527593102533,0.008184223792948695
6742.528592874748,0.006803262920634532
6742.529592646964,0.005415505852601594
6742.530592419179,0.004021295902628472
6742.531592191394,0.0026209789766391024
6742.532591963609,0.0012149034156157153
6742.533591735824,-0.00019658016280924188
6742.53459150804,-0.0016131190239582832
6742.535591280255,-0.003034358476786195
6742.536591052471,-0.004459942035503733
6742.537590824686,-0.0058895115820213634
6742.538590596901,-0.0073227075290863515
6742.539590369116,-0.008759168983986314
6742.540590141331,-0.0101985339126924
6742.541589913547,-0.011640439304315513
6742.542589685762,-0.013084521335749479
6742.543589457977,-0.014530415536375702
6742.544589230192,-0.015977756952704744
6742.545589002408,-0.017426180312831174
6742.546588774623,-0.018875320190579126
6742.547588546839,-0.020324811169217097
6742.548588319054,-0.021774288004621663
6742.549588091269,-0.0232233857877709
6742.550587863484,-0.02467174010644939
6742.551587635699,-0.02611898720604788
6742.552587407915,-0.027564764149341843
6742.55358718013,-0.029008708975134315
6742.554586952345,-0.030450460855649814
6742.55558672456,-0.03188966025256733
6742.556586496776,-0.033325949071581956
6742.557586268991,-0.034758970815386474
6742.558586041207,-0.036188370734966
6742.559585813422,-0.03761379597910088
6742.5605855856365,-0.03903489574197515
6742.561585357852,-0.04045132140879008
6742.562585130067,-0.041862726699284536
6742.563584902283,-0.04326876780906609
6742.564584674498,-0.04466910354865871
6742.565584446713,-0.04606339548017532
6742.566584218928,-0.047451308051525136
6742.567583991144,-0.04883250872806794
6742.568583763359,-0.05020666812162935
6742.569583535575,-0.05157346011679297
6742.57058330779,-0.05293256199438765
6742.5715830800045,-0.05428365455208938
6742.57258285222,-0.05562642222206001
6742.573582624435,-0.05696055318554658
6742.574582396651,-0.05828573948436774
6742.575582168866,-0.05960167712921598
6742.576581941081,-0.060908066204707
6742.577581713296,-0.06220461097111053
6742.578581485512,-0.06349101996269987
6742.579581257727,-0.0647670060826607
6742.580581029943,-0.06603228669450308
6742.581580802157,-0.0672865837099242
6742.5825805743725,-0.06852962367307319
6742.583580346588,-0.06976113784117342
6742.584580118803,-0.07098086226146166
6742.585579891019,-0.07218853784440811
6742.586579663233,-0.07338391043318529
6742.587579435449,-0.07456673086935887
6742.588579207664,-0.07573675505477782
6742.58957897988,-0.07689374400964616
6742.590578752095,-0.07803746392676311
6742.591578524311,-0.0791676862219233
6742.592578296525,-0.0802841875804736
6742.5935780687405,-0.08138675000002797
6742.594577840956,-0.08247516082934594
6742.595577613171,-0.0835492128033861
6742.596577385387,-0.08460870407454973
6742.597577157601,-0.08565343824013494
6742.598576929817,-0.08668322436602635
6742.599576702032,-0.08769787700664988
6742.600576474248,-0.08869721622122657
6742.601576246463,-0.08968106758636418
6742.602576018679,-0.0906492622050299
6742.603575790893,-0.09160163671195153
6742.6045755631085,-0.0925380332754993
6742.605575335324,-0.09345829959610426
6742.606575107539,-0.09436228890127348
6742.607574879755,-0.0952498599372658
6742.608574651969,-0.09612087695749548
6742.609574424185,-0.09697520970773423
6742.6105741964,-0.0978127334081855
6742.611573968616,-0.09863332873250776
6742.612573740831,-0.09943688178386573
6742.613573513047,-0.10022328406809247
6742.614573285261,-0.1009924324640464
6742.6155730574765,-0.10174422919125056
6742.616572829692,-0.10247858177490315
6742.617572601907,-0.10319540300835088
6742.618572374123,-0.10389461091311782
6742.619572146337,-0.10457612869658474
6742.620571918553,-0.10523988470741444
6742.621571690768,-0.10588581238881978
6742.622571462984,-0.10651385022977221
6742.623571235199,-0.1071239417142488
6742.624571007415,-0.10771603526861653
6742.625570779629,-0.10829008420725286
6742.626570551844,-0.10884604667650177
6742.62757032406,-0.10938388559706429
6742.628570096275,-0.10990356860492277
6742.629569868491,-0.11040506799089819
6742.630569640705,-0.11088836063893863
6742.631569412921,-0.11135342796323729
6742.632569185136,-0.11180025584427754
6742.633568957352,-0.11222883456390174
6742.634568729567,-0.11263915873949919
6742.635568501783,-0.11303122725740783
6742.636568273997,-0.11340504320562282
6742.637568046212,-0.11376061380590333
6742.638567818428,-0.11409795034536835
6742.639567590643,-0.11441706810767019
6742.640567362859,-0.11471798630383297
6742.641567135073,-0.11500072800284206
6742.642566907289,-0.1152653200620692
6742.643566679504,-0.11551179305761679
6742.64456645172,-0.11574018121466292
6742.645566223935,-0.11595052233788829
6742.64656599615,-0.11614285774206379
6742.647565768365,-0.11631723218287691
6742.64856554058,-0.11647369378807308
6742.649565312796,-0.11661229398898601
6742.650565085011,-0.11673308745252965
6742.651564857226,-0.11683613201372162
6742.652564629441,-0.11692148860880594
6742.653564401657,-0.11698922120904097
6742.654564173872,-0.11703939675521485
6742.655563946088,-0.1170720850929489
6742.656563718303,-0.11708735890884621
6742.6575634905175,-0.11708529366753935
6742.658563262733,-0.11706596754968811
6742.659563034948,-0.1170294613909745
6742.660562807164,-0.1169758586221388
6742.661562579379,-0.11690524521009692
6742.662562351594,-0.11681770960017596
6742.663562123809,-0.11671334265950058
6742.664561896025,-0.11659223762156046
6742.66556166824,-0.11645449003198463
6742.666561440456,-0.11630019769554527
6742.667561212671,-0.11612946062441029
6742.6685609848855,-0.11594238098765998
6742.669560757101,-0.11573906306207979
6742.670560529316,-0.11551961318423787
6742.671560301532,-0.11528413970385246
6742.672560073747,-0.11503275293845118
6742.673559845962,-0.11476556512932101
6742.674559618177,-0.11448269039874504
6742.675559390393,-0.11418424470851929
6742.676559162608,-0.11387034581973995
6742.677558934824,-0.11354111325384889
6742.678558707039,-0.11319666825492292
6742.6795584792535,-0.11283713375318985
6742.680558251469,-0.11246263432975176
6742.681558023684,-0.11207329618249381
6742.6825577959,-0.11166924709315486
6742.683557568115,-0.11125061639553394
6742.68455734033,-0.11081753494480513
6742.685557112545,-0.11037013508791121
6742.686556884761,-0.10990855063500442
6742.687556656976,-0.10943291683190186
6742.688556429192,-0.1089433703335206
6742.689556201407,-0.10844004917825611
6742.6905559736215,-0.10792309276326649
6742.691555745837,-0.10739264182062286
6742.692555518052,-0.10684883839428555
6742.693555290268,-0.10629182581786348
6742.694555062483,-0.10572174869311357
6742.695554834698,-0.10513875286913542
6742.696554606913,-0.1045429854222157
6742.697554379129,-0.10393459463627566
6742.698554151344,-0.103313729983874
6742.69955392356,-0.10268054210771693
6742.700553695775,-0.10203518280262604
6742.7015534679895,-0.10137780499791438
6742.702553240205,-0.10070856274012079
6742.70355301242,-0.10002761117605191
6742.704552784636,-0.09933510653608174
6742.705552556851,-0.09863120611765804
6742.706552329066,-0.0979160682689657
6742.707552101281,-0.09718985237269707
6742.708551873497,-0.09645271882987948
6742.709551645712,-0.095704829043711
6742.710551417928,-0.09494634540335538
6742.711551190142,-0.09417743126764788
6742.712550962357,-0.09339825094866444
6742.713550734573,-0.09260896969510687
6742.714550506788,-0.09180975367545767
6742.715550279004,-0.0910007699608597
6742.716550051218,-0.09018218650767644
6742.717549823434,-0.08935417213968971
6742.718549595649,-0.08851689652989396
6742.719549367865,-0.08767053018184691
6742.72054914008,-0.08681524441053853
6742.721548912296,-0.08595121132274246
6742.72254868451,-0.08507860379681574
6742.723548456725,-0.08419759546191564
6742.724548228941,-0.08330836067660456
6742.725548001156,-0.0824110745068167
6742.726547773372,-0.08150591270316337
6742.727547545586,-0.08059305167755677
6742.728547317802,-0.07967266847913462
6742.729547090017,-0.0787449407694715
6742.730546862233,-0.07781004679706534
6742.731546634448,-0.07686816537109091
6742.732546406664,-0.07591947583441491
6742.733546178878,-0.07496415803587021
6742.734545951093,-0.07400239230179038
6742.735545723309,-0.07303435940680797
6742.736545495524,-0.07206024054392329
6742.73754526774,-0.0710802172938532
6742.738545039954,-0.0700944715936718
6742.73954481217,-0.06910318570475708
6742.740544584385,-0.06810654218006015
6742.741544356601,-0.06710472383071486
6742.742544128816,-0.06609791369200803
6742.743543901031,-0.06508629498873135
6742.744543673246,-0.06407005109993759
6742.745543445461,-0.0630493655231246
6742.746543217677,-0.062024421837871886
6742.747542989892,-0.060995403668955034
6742.748542762108,-0.059962494648963784
6742.749542534322,-0.05892587838045034
6742.750542306538,-0.057885738397634445
6742.751542078753,-0.056842258127691954
6742.752541850969,-0.055795620851653745
6742.753541623184,-0.054746009664941676
6742.754541395399,-0.05369360743756828
6742.755541167614,-0.05263859677402677
6742.756540939829,-0.051581159972897944
6742.757540712045,-0.05052147898620072
6742.75854048426,-0.0494597353785129
6742.759540256476,-0.048396110285889124
6742.76054002869,-0.047330784374603384
6742.761539800906,-0.04626393779974367
6742.762539573121,-0.04519575016368679
6742.7635393453365,-0.04412640047448195
6742.764539117552,-0.04305606710417224
6742.765538889767,-0.04198492774708358
6742.766538661982,-0.04091315937811141
6742.767538434197,-0.03984093821103575
6742.768538206413,-0.03876843965689603
6742.769537978628,-0.03769583828245715
6742.770537750844,-0.03662330776879877
6742.771537523058,-0.035551020870060124
6742.772537295274,-0.03447914937237262
6742.773537067489,-0.033407864053012624
6742.7745368397045,-0.03233733463980685
6742.77553661192,-0.0312677297708225
6742.776536384135,-0.03019921695437416
6742.77753615635,-0.029131962529379163
6742.778535928565,-0.028066131626092516
6742.779535700781,-0.027001888127252287
6742.780535472996,-0.02593939462966568
6742.781535245211,-0.024878812406265573
6742.782535017426,-0.023820301368666856
6742.783534789642,-0.02276402003025139
6742.784534561857,-0.021710125469809896
6742.7855343340725,-0.020658773295768543
6742.786534106288,-0.01961011761102763
6742.787533878503,-0.01856431097843899
6742.788533650718,-0.01752150438694811
6742.789533422933,-0.016481847218426344
6742.790533195149,-0.015445487215217726
6742.791532967364,-0.014412570448424197
6742.792532739579,-0.013383241286952242
6742.793532511794,-0.012357642367343175
6742.79453228401,-0.011335914564408495
6742.795532056225,-0.010318196962690946
6742.7965318284405,-0.009304626828771093
6742.797531600656,-0.008295339584438309
6742.798531372871,-0.007290468780744191
6742.799531145086,-0.006290146072955493
6742.800530917301,-0.005294501196422805
6742.801530689517,-0.00430366194338039
6742.802530461732,-0.0033177541406917794
6742.803530233947,-0.0023369016285549734
6742.804530006162,-0.0013612262401803163
6742.805529778378,-0.00039084778245337466
6742.806529550593,0.000574115982405661
6742.8075293228085,0.0015335493541753582
6742.808529095024,0.0024873387109494035
6742.809528867238,0.00343537252442707
6742.810528639454,0.004377541374169909
6742.811528411669,0.00531373796081779
6742.812528183885,0.0062438571182584736
6742.8135279561,0.007167795824745985
6742.814527728315,0.008085453212964151
6742.81552750053,0.008996730579032827
6742.816527272746,0.009901531390455501
6742.817527044961,0.01079976129300811
6742.8185268171765,0.01169132811657004
6742.819526589392,0.012576141879899331
6742.820526361606,0.01345411479435518
6742.821526133822,0.01432516126657167
6742.822525906037,0.01518919790008771
6742.823525678253,0.01604614349593894
6742.824525450468,0.01689591905221833
6742.825525222683,0.01773844776261303
6742.826524994898,0.01857365501392605
6742.827524767114,0.019401468382592126
6742.828524539329,0.020221817630198303
6742.829524311544,0.021034634698020693
6742.83052408376,0.021839853700589905
6742.831523855974,0.022637410918298607
6742.83252362819,0.023427244789065802
6742.833523400405,0.02420929589907328
6742.834523172621,0.024983506972590604
6742.835522944836,0.025749822860905897
6742.836522717051,0.026508190530380484
6742.837522489266,0.027258559049646153
6742.838522261482,0.028000879575964498
6742.839522033697,0.028735105340768403
6742.840521805912,0.02946119163440644
6742.841521578127,0.03017909579011124
6742.842521350342,0.03088877716721351
6742.843521122558,0.03159019713362371
6742.844520894773,0.0322833190476036
6742.845520666989,0.0329681082388501
6742.846520439203,0.033644531988914116
6742.847520211419,0.03431255951097697
6742.848519983634,0.03497216192900737
6742.8495197558495,0.03562331225632166
6742.850519528065,0.03626598537357012
6742.85151930028,0.03690015800617228
6742.852519072495,0.03752580870122422
6742.85351884471,0.03814291780390068
6742.854518616926,0.03875146743337518
6742.855518389141,0.03935144145828119
6742.856518161357,0.039942825471737664
6742.857517933571,0.04052560676596236
6742.858517705787,0.04109977430649648
6742.859517478002,0.04166531870606427
6742.8605172502175,0.04222223219809135
6742.861517022433,0.04277050860990554
6742.862516794648,0.0433101433356439
6742.863516566863,0.04384113330888927
6742.864516339078,0.04436347697505989
6742.865516111294,0.04487717426357462
6742.866515883509,0.04538222655981654
6742.867515655725,0.04587863667691695
6742.868515427939,0.04636640882738162
6742.869515200155,0.04684554859458058
6742.87051497237,0.04731606290412275
6742.8715147445855,0.04777795999513589
6742.872514516801,0.04823124939147228
6742.873514289016,0.04867594187286016
6742.874514061231,0.049112049446020545
6742.875513833446,0.04953958531576887
6742.876513605662,0.04995856385612059
6742.877513377877,0.05036900058141976
6742.878513150093,0.05077091211750955
6742.879512922307,0.05116431617296373
6742.880512694523,0.0515492315103979
6742.881512466738,0.051925677917879866
6742.8825122389535,0.05229367618045803
6742.883512011169,0.05265324805182719
6742.884511783384,0.05300441622615086
6742.885511555599,0.05334720431005935
6742.886511327814,0.05368163679484271
6742.88751110003,0.05400773902885749
6742.888510872245,0.05432553719016613
6742.889510644461,0.054635058259428056
6742.890510416675,0.05493632999306115
6742.891510188891,0.05522938089669242
6742.892509961106,0.05551424019891648
6742.8935097333215,0.05579093782538073
6742.894509505537,0.05605950437321563
6742.895509277752,0.056319971085828646
6742.896509049967,0.05657236982808023
6742.897508822182,0.05681673306185993
6742.898508594398,0.05705309382208063
6742.899508366613,0.05728148569310879
6742.900508138829,0.05750194278564813
6742.901507911043,0.05771449971409423
6742.902507683259,0.05791919157437688
6742.903507455474,0.05811605392230668
6742.9045072276895,0.05830512275244212
6742.905506999905,0.058486434477492605
6742.906506772119,0.05866002590827279
6742.907506544335,0.058825934234222756
6742.90850631655,0.05898419700450836
6742.909506088766,0.05913485210971581
6742.910505860981,0.059277937764154055
6742.911505633196,0.059413492488778606
6742.912505405411,0.05954155509475015
6742.913505177627,0.059662164667641286
6742.914504949842,0.059775360552304514
6742.915504722057,0.059881182338414406
6742.916504494273,0.05997966984669702
6742.917504266487,0.060070863115859095
6742.918504038703,0.0601548023902296
6742.919503810918,0.06023152810812573
6742.920503583134,0.06030108089095521
6742.921503355349,0.060363501533066286
6742.922503127564,0.06041883099235636
6742.923502899779,0.06046711038164981
6742.924502671995,0.06050838096085459
6742.92550244421,0.0605426841299067
6742.926502216425,0.06057006142251098
6742.927501988641,0.060590554500685664
6742.928501760855,0.060604205150117586
6742.929501533071,0.06061105527633373
6742.930501305286,0.060611146901694016
6742.931501077502,0.06060452216320923
6742.932500849717,0.060591223311186944
6742.933500621932,0.06057129270870694
6742.934500394147,0.06054477283192675
6742.9355001663625,0.0605117062712165
6742.936499938578,0.06047213573312086
6742.937499710793,0.06042610404314461
6742.938499483009,0.060373654149356644
6742.939499255223,0.06031482912680584
6742.940499027439,0.06024967218274008
6742.941498799654,0.06017822666261825
6742.94249857187,0.06010053605690265
6742.943498344085,0.06001664400861706
6742.9444981163,0.05992659432165343
6742.945497888515,0.05983043096980724
6742.9464976607305,0.05972819810651872
6742.947497432946,0.059619940075294565
6742.948497205161,0.0595057014207811
6742.949496977377,0.059385526900457127
6742.950496749591,0.059259461496911206
6742.951496521807,0.05912755043066474
6742.952496294022,0.058989839173499155
6742.953496066238,0.05884637346224183
6742.954495838453,0.058697199312962446
6742.955495610668,0.058542363035528115
6742.956495382883,0.05838191124846268
6742.9574951550985,0.05821589089405296
6742.958494927314,0.05804434925364239
6742.959494699529,0.05786733396305035
6742.960494471745,0.05768489302805412
6742.961494243959,0.057497074839868836
6742.962494016175,0.05730392819056016
6742.96349378839,0.057105502288323944
6742.964493560606,0.05690184677256657
6742.965493332821,0.05669301172872049
6742.966493105036,0.0564790477027297
6742.967492877251,0.05626000571514138
6742.9684926494665,0.05603593727474125
6742.969492421682,0.055806894391672364
6742.970492193897,0.05557292958997906
6742.971491966112,0.0553340959195203
6742.972491738327,0.055090446967199475
6742.973491510543,0.0548420368674604
6742.974491282758,0.05458892031200231
6742.975491054974,0.05433115255866992
6742.976490827188,0.05406878943947836
6742.977490599404,0.05380188736773656
6742.978490371619,0.05353050334423657
6742.9794901438345,0.05325469496248068
6742.98048991605,0.052974520412922284
6742.981489688265,0.05269003848620076
6742.98248946048,0.05240130857535446
6742.983489232695,0.05210839067700034
6742.984489004911,0.05181134539147251
6742.985488777126,0.05151023392191582
6742.986488549342,0.05120511807233466
6742.987488321556,0.05089606024460076
6742.988488093772,0.0505831234344278
6742.989487865987,0.050266371226324554
6742.9904876382025,0.04994586778754208
6742.991487410418,0.04962167786103418
6742.992487182633,0.04929386675745399
6742.993486954848,0.04896250034621225
6742.994486727063,0.04862764504562602
6742.995486499279,0.048289367812188615
6742.996486271494,0.04794773612899372
6742.99748604371,0.047602817993348236
6742.998485815924,0.04725468190360953
6742.99948558814,0.04690339684528406
6743.000485360355,0.04654903227642471
6743.00148513257,0.04619165811236437
6743.002484904786,0.04583134470982347
6743.003484677001,0.04546816285042857
6743.004484449216,0.0451021837236791
6743.005484221431,0.04473347890939829
6743.006483993647,0.04436212035970392
6743.007483765862,0.043988180380533586
6743.008483538078,0.043611731612758615
6743.009483310292,0.043232847012919455
6743.010483082508,0.04285159983361474
6743.011482854723,0.04246806360357492
6743.012482626938,0.0420823121074508
6743.013482399154,0.04169441936534586
6743.014482171369,0.041304459612120724
6743.015481943584,0.04091250727649685
6743.016481715799,0.040518636959985796
6743.017481488015,0.040122923415669594
6743.01848126023,0.0397254415268566
6743.019481032446,0.03932626628563665
6743.02048080466,0.03892547277135828
6743.021480576876,0.03852313612904974
6743.022480349091,0.03811933154780487
6743.023480121306,0.03771413423915351
6743.024479893522,0.03730761941543581
6743.025479665737,0.03689986226819815
6743.026479437952,0.03649093794662815
6743.027479210167,0.03608092153604495
6743.028478982383,0.03566988803646019
6743.029478754598,0.03525791234122448
6743.030478526814,0.03484506921577335
6743.031478299028,0.03443143327648593
6743.032478071244,0.03401707896966925
6743.033477843459,0.0336020805506804
6743.034477615674,0.03318651206319852
6743.03547738789,0.032770447318658226
6743.036477160104,0.0323539598758559
6743.03747693232,0.03193712302073996
6743.038476704535,0.03152000974639597
6743.039476476751,0.031102692733237295
6743.040476248966,0.03068524432941157
6743.041476021181,0.030267736531432658
6743.042475793396,0.029850240965047504
6743.043475565612,0.029432828866346503
6743.044475337827,0.029015571063125398
6743.045475110042,0.028598537956505996
6743.046474882258,0.02818179950282224
6743.047474654472,0.027765425195777356
6743.048474426688,0.02734948404887704
6743.049474198903,0.026934044578142875
6743.050473971119,0.026519174785109415
6743.051473743334,0.026104942140107786
6743.052473515549,0.02569141356583791
6743.053473287764,0.02527865542123107
6743.05447305998,0.024866733485604
6743.055472832195,0.024455712943105324
6743.05647260441,0.024045658367454863
6743.057472376626,0.02363663370697616
6743.05847214884,0.023228702269922467
6743.059471921056,0.022821926710096384
6743.060471693271,0.022416369012763216
6743.061471465487,0.022012090480858153
6743.062471237702,0.02160915172148711
6743.063471009917,0.021207612632721088
6743.064470782132,0.020807532390683798
6743.065470554348,0.02040896943693201
6743.066470326563,0.020011981466128006
6743.067470098778,0.019616625414003348
6743.068469870994,0.0192229574456131
6743.069469643208,0.018831032943879587
6743.070469415424,0.018440906498424864
6743.071469187639,0.018052631894691355
6743.072468959855,0.017666262103350126
6743.07346873207,0.017281849269996666
6743.074468504285,0.016899444705134197
6743.0754682765,0.016519098874444624
6743.076468048716,0.01614086138934722
6743.077467820931,0.01576478099784513
6743.078467593146,0.015390905575659438
6743.079467365362,0.01501928211765054
6743.080467137576,0.014649956729526218
6743.081466909792,0.014282974619835865
6743.082466682007,0.013918380092250089
6743.083466454223,0.013556216538124794
6743.084466226438,0.013196526429348793
6743.085465998653,0.012839351311473781
6743.086465770868,0.012484731797125457
6743.087465543083,0.012132707559694462
6743.088465315299,0.01178331732730585
6743.089465087514,0.011436598877065668
6743.09046485973,0.011092589029583247
6743.091464631944,0.010751323643767756
6743.09246440416,0.010412837611897428
6743.093464176375,0.010077164854959936
6743.094463948591,0.009744338318262356
6743.095463720806,0.009414389967309197
6743.096463493021,0.009087350783947127
6743.097463265236,0.008763250762775175
6743.098463037451,0.00844211890781941
6743.099462809667,0.008123983229471308
6743.100462581882,0.007808870741689209
6743.101462354097,0.007496807459462473
6743.102462126312,0.007187818396538011
6743.103461898528,0.006881927563408956
6743.104461670743,0.0065791579655651725
6743.105461442959,0.006279531602005323
6743.106461215173,0.005983069464010172
6743.107460987389,0.0056897915341768785
6743.108460759604,0.005399716785714189
6743.109460531819,0.005112863181998747
6743.110460304035,0.004829247676393134
6743.11146007625,0.0045488862123266504
6743.112459848465,0.004271793723640256
6743.11345962068,0.003997984135197412
6743.114459392896,0.0037274703637627657
6743.115459165111,0.0034602643191506527
6743.116458937327,0.0031963769056452813
6743.117458709541,0.0029358180236942234
6743.1184584817565,0.002678596571876557
6743.119458253972,0.0024247204491467346
6743.120458026187,0.002174196557355053
6743.121457798403,0.0019270308040455033
6743.122457570618,0.001683228105531809
6743.123457342833,0.001442792390252563
6743.124457115048,0.0012057266024065058
6743.125456887264,0.0009720327058690635
6743.126456659479,0.0007417116883912813
6743.127456431695,0.000514763566082274
6743.128456203909,0.00029118738817631167
6743.1294559761245,7.098124208572232e-05
6743.13045574834,-0.00014585774125910832
6743.131455520555,-0.00035933338178123535
6743.132455292771,-0.0005694504443386319
6743.133455064986,-0.0007762146325140594
6743.134454837201,-0.0009796325821117605
6743.135454609416,-0.001179711854359507
6743.136454381632,-0.0013764609288147208
6743.137454153847,-0.0015698891959736116
6743.138453926063,-0.0017600069495824985
6743.139453698277,-0.0019468253786507083
6743.1404534704925,-0.0021303565591646732
6743.141453242708,-0.0023106134455031005
6743.142453014923,-0.002487609861553385
6743.143452787139,-0.0026613604915297537
6743.144452559354,-0.0028318808704939965
6743.145452331569,-0.002999187374580006
6743.146452103784,-0.003163297210923737
6743.147451876,-0.0033242284073005776
6743.148451648215,-0.003481999801472482
6743.149451420431,-0.003636631030247541
6743.150451192645,-0.003788142518254956
6743.1514509648605,-0.003936555466438651
6743.152450737076,-0.00408189184027301
6743.153450509291,-0.004224174357704461
6743.154450281507,-0.004363426476822884
6743.155450053722,-0.004499672383266975
6743.156449825937,-0.004632936977367893
6743.157449598152,-0.004763245861035522
6743.158449370368,-0.0048906253243916654
6743.159449142583,-0.005015102332154374
6743.160448914799,-0.005136704509777505
6743.161448687013,-0.005255460129349583
6743.1624484592285,-0.005371398095256054
6743.163448231444,-0.005484547929609229
6743.164448003659,-0.005594939757450531
6743.165447775875,-0.00570260429173006
6743.166447548089,-0.0058075728180688605
6743.167447320305,-0.005909877179309746
6743.16844709252,-0.006009549759862851
6743.169446864736,-0.006106623469852443
6743.170446636951,-0.006201131729071774
6743.171446409166,-0.006293108450752982
6743.172446181381,-0.006382588025159243
6743.1734459535965,-0.006469605303006505
6743.174445725812,-0.006554195578722293
6743.175445498027,-0.006636394573549166
6743.176445270243,-0.006716238418500444
6743.177445042457,-0.0067937636371759366
6743.178444814673,-0.006869007128445414
6743.179444586888,-0.006942006149007639
6743.180444359104,-0.007012798295832922
6743.181444131319,-0.007081421488497387
6743.182443903534,-0.0071479139514174
6743.183443675749,-0.00721231419599298
6743.184443447964,-0.007274661002669406
6743.18544322018,-0.007334993402926705
6743.186442992395,-0.007393350661207142
6743.187442764611,-0.0074497722567913585
6743.188442536825,-0.007504297865634178
6743.189442309041,-0.00755696734217157
6743.190442081256,-0.007607820701110559
6743.191441853472,-0.0076568980992142
6743.192441625687,-0.007704239817093947
6743.193441397902,-0.007749886241021934
6743.194441170117,-0.007793877844775792
6743.195440942332,-0.007836255171528698
6743.196440714548,-0.00787705881579731
6743.197440486763,-0.0079163294054602
6743.198440258979,-0.007954107583859175
6743.199440031193,-0.007990433991995644
6743.200439803409,-0.008025349250833922
6743.201439575624,-0.008058893943723049
6743.20243934784,-0.008091108598948392
6743.203439120055,-0.008122033672424063
6743.2044388922695,-0.008151709530536882
6743.205438664485,-0.008180176433152452
6743.2064384367,-0.008207474516793673
6743.207438208916,-0.008233643778001853
6743.208437981131,-0.008258724056890317
6743.209437753347,-0.008282755020900203
6743.210437525561,-0.008305776148767726
6743.211437297777,-0.008327826714711958
6743.212437069992,-0.008348945772851682
6743.213436842208,-0.008369172141859527
6743.214436614423,-0.008388544389861158
6743.2154363866375,-0.008407100819586824
6743.216436158853,-0.00842487945378212
6743.217435931068,-0.008441918020884343
6743.218435703284,-0.008458253940970321
6743.219435475499,-0.008473924311981108
6743.220435247715,-0.00848896589622853
6743.221435019929,-0.00850341510718822
6743.222434792145,-0.008517307996583397
6743.22343456436,-0.008530680241763395
6743.224434336576,-0.008543567133380663
6743.225434108791,-0.008556003563369675
6743.2264338810055,-0.00856802401323082
6743.227433653221,-0.008579662542621998
6743.228433425436,-0.008590952778260306
6743.229433197652,-0.008601927903135792
6743.230432969867,-0.008612620646038863
6743.231432742082,-0.008623063271402633
6743.232432514297,-0.008633287569461176
6743.233432286513,-0.008643324846724264
6743.234432058728,-0.008653205916768967
6743.235431830944,-0.00866296109134805
6743.236431603159,-0.008672620171814896
6743.2374313753735,-0.008682212440864279
6743.238431147589,-0.008691766654587992
6743.239430919804,-0.008701311034844051
6743.24043069202,-0.008710873261937835
6743.241430464235,-0.008720480467613203
6743.24243023645,-0.008730159228351322
6743.243430008665,-0.008739935558974603
6743.244429780881,-0.00874983490655285
6743.245429553096,-0.008759882144608462
6743.246429325312,-0.00877010156761731
6743.247429097526,-0.008780516885801615
6743.2484288697415,-0.008791151220211074
6743.249428641957,-0.008802027098088283
6743.250428414172,-0.00881316644851454
6743.251428186388,-0.00882459059833213
6743.252427958603,-0.008836320268339247
6743.253427730818,-0.008848375569753849
6743.254427503033,-0.008860776000942818
6743.255427275249,-0.008873540444412882
6743.256427047464,-0.008886687164059876
6743.25742681968,-0.008900233802672991
6743.258426591894,-0.008914197379690805
6743.2594263641095,-0.008928594289205954
6743.260426136325,-0.008943440298215515
6743.26142590854,-0.008958750545114373
6743.262425680756,-0.008974539538429046
6743.263425452971,-0.008990821155789728
6743.264425225186,-0.009007608643138643
6743.265424997401,-0.009024914614173167
6743.266424769617,-0.009042751050022607
6743.267424541832,-0.009061129299157969
6743.268424314048,-0.009080060077534521
6743.269424086262,-0.009099553468967351
6743.270423858477,-0.009119618925740479
6743.271423630693,-0.009140265269450436
6743.272423402908,-0.009161500692085421
6743.273423175124,-0.009183332757341416
6743.274422947339,-0.009205768402176791
6743.275422719554,-0.009228813938607128
6743.276422491769,-0.009252475055742075
6743.277422263985,-0.009276756822066145
6743.2784220362,-0.009301663687965355
6743.279421808416,-0.009327199488501612
6743.28042158063,-0.009353367446436632
6743.281421352845,-0.009380170175507154
6743.282421125061,-0.009407609683953154
6743.283420897276,-0.009435687378300781
6743.284420669492,-0.009464404067401802
6743.285420441707,-0.009493759966731383
6743.286420213922,-0.009523754702946124
6743.287419986137,-0.009554387318704323
6743.288419758353,-0.009585656277750335
6743.289419530568,-0.009617559470264889
6743.290419302783,-0.009650094218483037
6743.291419074998,-0.009683257282581145
6743.292418847213,-0.009717044866834099
6743.293418619429,-0.009751452626043572
6743.294418391644,-0.009786475672237881
6743.29541816386,-0.009822108581643552
6743.296417936074,-0.009858345401928419
6743.29741770829,-0.009895179659715609
6743.298417480505,-0.00993260436836736
6743.299417252721,-0.009970612036037224
6743.300417024936,-0.010009194673988852
6743.301416797151,-0.010048343805179246
6743.302416569366,-0.010088050473104054
6743.303416341581,-0.010128305250902253
6743.304416113797,-0.010169098250717361
6743.305415886012,-0.01021041913331204
6743.306415658228,-0.010252257117932725
6743.307415430442,-0.010294600992420697
6743.308415202658,-0.010337439123565691
6743.309414974873,-0.010380759467697913
6743.3104147470885,-0.010424549581514064
6743.311414519304,-0.010468796633132757
6743.312414291519,-0.01051348741337446
6743.313414063734,-0.010558608347260842
6743.314413835949,-0.010604145505728184
6743.315413608165,-0.010650084617549193
6743.31641338038,-0.010696411081457234
6743.317413152596,-0.010743109978466649
6743.31841292481,-0.010790166084382422
6743.319412697026,-0.010837563882492079
6743.320412469241,-0.010885287576432229
6743.3214122414565,-0.010933321103221776
6743.322412013672,-0.010981648146453537
6743.323411785887,-0.011030252149635603
6743.324411558102,-0.011079116329673675
6743.325411330317,-0.011128223690485372
6743.326411102533,-0.011177557036737356
6743.327410874748,-0.011227098987696109
6743.328410646964,-0.011276831991183017
6743.329410419178,-0.011326738337624388
6743.330410191394,-0.011376800174186826
6743.331409963609,-0.011426999518988382
6743.3324097358245,-0.011477318275375705
6743.33340950804,-0.01152773824625741
6743.334409280255,-0.011578241148483768
6743.33540905247,-0.01162880862726279
6743.336408824685,-0.011679422270602645
6743.337408596901,-0.011730063623770421
6743.338408369116,-0.011780714203756974
6743.339408141332,-0.011831355513737552
6743.340407913546,-0.01188196905751778
6743.341407685762,-0.011932536353954444
6743.342407457977,-0.01198303895134064
6743.3434072301925,-0.012033458441744796
6743.344407002408,-0.012083776475293365
6743.345406774623,-0.012133974774387046
6743.346406546838,-0.012184035147840624
6743.347406319053,-0.01223393950493666
6743.348406091269,-0.012283669869383397
6743.349405863484,-0.012333208393167304
6743.3504056357,-0.012382537370290785
6743.351405407914,-0.012431639250385752
6743.35240518013,-0.0124804966521938
6743.353404952345,-0.012529092376903946
6743.3544047245605,-0.012577409421339085
6743.355404496776,-0.0126254309909825
6743.35640426899,-0.012673140512835893
6743.357404041206,-0.012720521648100556
6743.358403813421,-0.012767558304673302
6743.359403585637,-0.012814234649448909
6743.360403357852,-0.012860535120420876
6743.361403130067,-0.01290644443857232
6743.362402902282,-0.012951947619549039
6743.363402674498,-0.01299702998510691
6743.364402446713,-0.013041677174326017
6743.3654022189285,-0.013085875154584058
6743.366401991144,-0.013129610232281775
6743.367401763358,-0.01317286906331332
6743.368401535574,-0.013215638663274609
6743.369401307789,-0.013257906417402841
6743.370401080005,-0.01329966009024047
6743.37140085222,-0.013340887835017062
6743.372400624435,-0.013381578202742626
6743.37340039665,-0.013421720151006102
6743.374400168866,-0.013461303052472808
6743.375399941081,-0.013500316703074867
6743.376399713296,-0.01353875132988862
6743.377399485511,-0.01357659759869325
6743.378399257726,-0.0136138466212049
6743.379399029942,-0.013650489961980686
6743.380398802157,-0.013686519644987271
6743.381398574373,-0.013721928159828811
6743.382398346588,-0.013756708467629278
6743.383398118803,-0.013790854006564492
6743.384397891018,-0.013824358697039275
6743.385397663234,-0.013857216946505347
6743.386397435449,-0.01388942365391563
6743.387397207664,-0.013920974213810767
6743.388396979879,-0.013951864520033719
6743.389396752094,-0.013982090969068411
6743.39039652431,-0.014011650462998624
6743.391396296525,-0.01404054041208351
6743.392396068741,-0.014068758736946385
6743.393395840956,-0.01409630387037368
6743.394395613171,-0.014123174758721227
6743.395395385386,-0.014149370862925245
6743.396395157602,-0.01417489215911561
6743.397394929817,-0.014199739138829156
6743.398394702032,-0.0142239128088209
6743.399394474247,-0.014247414690471123
6743.400394246462,-0.014270246818786383
6743.401394018678,-0.014292411740992522
6743.402393790893,-0.014313912514717909
6743.403393563109,-0.014334752705765275
6743.404393335324,-0.014354936385470734
6743.405393107539,-0.01437446812764874
6743.406392879754,-0.014393353005122149
6743.4073926519695,-0.01441159658583675
6743.408392424185,-0.01442920492856009
6743.4093921964,-0.01444618457816471
6743.410391968615,-0.014462542560496516
6743.41139174083,-0.014478286376829385
6743.412391513046,-0.014493423997907708
6743.413391285261,-0.014507963857579012
6743.414391057477,-0.014521914846019394
6743.415390829692,-0.014535286302554885
6743.416390601907,-0.014548088008082351
6743.417390374122,-0.014560330177093971
6743.4183901463375,-0.014572023449309657
6743.419389918553,-0.01458317888092213
6743.420389690768,-0.01459380793545975
6743.421389462983,-0.01460392247427241
6743.422389235198,-0.014613534746646315
6743.423389007414,-0.014622657379553749
6743.424388779629,-0.01463130336704439
6743.425388551845,-0.014639486059285169
6743.426388324059,-0.01464721915125609
6743.427388096275,-0.014654516671109766
6743.42838786849,-0.01466139296820281
6743.4293876407055,-0.014667862700807572
6743.430387412921,-0.014673940823512992
6743.431387185136,-0.014679642574323621
6743.432386957351,-0.01468498346146618
6743.433386729566,-0.014689979249913287
6743.434386501782,-0.014694645947634286
6743.435386273997,-0.014698999791583334
6743.436386046213,-0.014703057233435079
6743.437385818427,-0.014706834925078528
6743.438385590643,-0.01471034970387981
6743.439385362858,-0.014713618577724635
6743.4403851350735,-0.014716658709851355
6743.441384907289,-0.014719487403485691
6743.442384679503,-0.014722122086288265
6743.443384451719,-0.014724580294626298
6743.444384223934,-0.014726879657680962
6743.44538399615,-0.01472903788140208
6743.446383768365,-0.014731072732322064
6743.447383540581,-0.014733002021241101
6743.448383312795,-0.014734843586795828
6743.449383085011,-0.014736615278923693
6743.450382857226,-0.014738334942235394
6743.4513826294415,-0.01474002039930765
6743.452382401657,-0.0147416894339085
6743.453382173871,-0.014743359774167155
6743.454381946087,-0.014745049075700232
6743.455381718302,-0.014746774904705974
6743.456381490518,-0.014748554721037987
6743.457381262733,-0.0147504058612698
6743.458381034949,-0.014752345521761433
6743.459380807163,-0.014754390741739027
6743.460380579379,-0.01475655838639838
6743.461380351594,-0.01475886513004308
6743.462380123809,-0.014761327439267911
6743.463379896025,-0.014763961556198071
6743.464379668239,-0.01476678348179475
6743.465379440455,-0.01476980895923771
6743.46637921267,-0.014773053457395512
6743.467378984886,-0.014776532154394204
6743.468378757101,-0.014780259921295395
6743.469378529317,-0.014784251305894664
6743.470378301531,-0.014788520516651428
6743.471378073747,-0.014793081406761286
6743.472377845962,-0.014797947458382008
6743.473377618177,-0.014803131767024212
6743.474377390393,-0.014808647026117703
6743.475377162607,-0.014814505511764383
6743.476376934823,-0.014820719067688452
6743.477376707038,-0.014827299090394472
6743.478376479254,-0.01483425651454363
6743.479376251469,-0.014841601798558346
6743.480376023685,-0.014849344910465143
6743.481375795899,-0.014857495313985551
6743.482375568115,-0.014866061954884623
6743.48337534033,-0.014875053247586607
6743.484375112545,-0.014884477062067249
6743.485374884761,-0.014894340711032225
6743.486374656975,-0.01490465093739122
6743.487374429191,-0.014915413902037343
6743.488374201406,-0.014926635171941545
6743.489373973622,-0.014938319708571705
6743.490373745837,-0.014950471856646072
6743.491373518052,-0.014963095333230633
6743.492373290267,-0.014976193217189838
6743.4933730624825,-0.014989767938999875
6743.494372834698,-0.015003821270933526
6743.495372606913,-0.015018354317625235
6743.496372379129,-0.015033367507024746
6743.497372151343,-0.015048860581747227
6743.498371923559,-0.015064832590827438
6743.499371695774,-0.015081281881885058
6743.50037146799,-0.015098206093707956
6743.501371240205,-0.015115602149259761
6743.50237101242,-0.015133466249117884
6743.503370784635,-0.015151793865347846
6743.5043705568505,-0.015170579735819638
6743.505370329066,-0.015189817858971652
6743.506370101281,-0.015209501489027543
6743.507369873496,-0.01522962313167125
6743.508369645711,-0.015250174540185164
6743.509369417927,-0.015271146712056106
6743.510369190142,-0.015292529886053502
6743.511368962358,-0.015314313539783691
6743.512368734573,-0.015336486387723981
6743.513368506788,-0.01535903637973959
6743.514368279003,-0.015381950700086322
6743.5153680512185,-0.01540521576690141
6743.516367823434,-0.015428817232184686
6743.517367595649,-0.015452739982271901
6743.518367367864,-0.015476968138801749
6743.519367140079,-0.015501485060177893
6743.520366912295,-0.015526273343526967
6743.52136668451,-0.015551314827153316
6743.522366456726,-0.015576590593490921
6743.523366228941,-0.015602080972552682
6743.524366001156,-0.015627765545876908
6743.525365773371,-0.015653623150970547
6743.5263655455865,-0.015679631886248397
6743.527365317802,-0.015705769116467184
6743.528365090017,-0.015732011478652892
6743.529364862232,-0.015758334888519267
6743.530364634447,-0.015784714547374852
6743.531364406663,-0.015811124949515233
6743.532364178878,-0.01583753989009656
6743.533363951094,-0.015863932473485637
6743.534363723309,-0.01589027512208135
6743.535363495524,-0.015916539585601464
6743.536363267739,-0.015942696950828273
6743.5373630399545,-0.01596871765180607
6743.53836281217,-0.015994571480482774
6743.539362584385,-0.01602022759778766
6743.5403623566,-0.01604565454513657
6743.541362128815,-0.0160708202563556
6743.542361901031,-0.016095692070013972
6743.543361673246,-0.01612023674215648
6743.544361445462,-0.016144420459425737
6743.545361217677,-0.016168208852564283
6743.546360989892,-0.016191567010286484
6743.547360762107,-0.016214459493509782
6743.5483605343225,-0.01623685034993466
6743.549360306538,-0.01625870312896218
6743.550360078753,-0.016279980896937617
6743.551359850968,-0.01630064625270831
6743.552359623183,-0.016320661343483516
6743.553359395399,-0.01633998788098364
6743.554359167614,-0.016358587157866093
6743.55535893983,-0.016376420064414556
6743.556358712044,-0.01639344710547821
6743.55735848426,-0.016409628417647197
6743.558358256475,-0.01642492378665026
