Time,Filtered_ECG
6572.678290994949,-0.007769938205736957
6572.679290767164,-0.007459069755373896
6572.68029053938,-0.0071478566206153735
6572.681290311595,-0.006836352205562851
6572.682290083811,-0.006524610169119375
6572.683289856025,-0.006212684406697849
6572.684289628241,-0.00590062903170785
6572.685289400456,-0.0055884983568306205
6572.686289172671,-0.005276346875092544
6572.687288944887,-0.004964229240748108
6572.688288717101,-0.004652200249983893
6572.689288489317,-0.004340314821455601
6572.690288261532,-0.004028627976670391
6572.691288033748,-0.003717194820226967
6572.692287805963,-0.003406070519925833
6572.693287578178,-0.0030953102867620594
6572.694287350393,-0.0027849693548127018
6572.6952871226085,-0.002475102961030796
6572.696286894824,-0.0021657663249576237
6572.697286667039,-0.001857014628364734
6572.698286439255,-0.0015489029948370268
6572.699286211469,-0.0012414864693080345
6572.700285983685,-0.0009348199975584226
6572.7012857559,-0.0006289584056886136
6572.702285528116,-0.0003239563795764085
6572.703285300331,-1.9868444330534907e-05
6572.704285072546,0.00028325105624878584
6572.705284844761,0.0005853479801908995
6572.7062846169765,0.0008863684078457443
6572.707284389192,0.0011862586623328484
6572.708284161407,0.0014849653299360294
6572.709283933622,0.0017824352804313105
6572.710283705837,0.002078615687335475
6572.711283478053,0.002373454048062698
6572.712283250268,0.0026668982039768454
6572.713283022484,0.002958896360327258
6572.714282794699,0.003249397106056152
6572.715282566914,0.0035383494334660917
6572.716282339129,0.0038257027577363193
6572.7172821113445,0.004111406936277058
6572.71828188356,0.004395412287911182
6572.719281655775,0.004677669611872866
6572.72028142799,0.004958130206613
6572.721281200205,0.005236745888401216
6572.722280972421,0.005513469009714368
6572.723280744636,0.00578825247740112
6572.724280516852,0.0060610497706120895
6572.725280289067,0.006331814958484624
6572.726280061282,0.006600502717570911
6572.727279833497,0.006867068348997739
6572.7282796057125,0.007131467795345928
6572.729279377928,0.007393657657237282
6572.730279150143,0.007653595209616876
6572.731278922358,0.007911238417718626
6572.732278694573,0.008166545952702341
6572.733278466789,0.008419477206950828
6572.734278239004,0.008669992309016036
6572.73527801122,0.008918052138203741
6572.736277783435,0.009163618338786733
6572.73727755565,0.009406653333837101
6572.738277327865,0.009647120338668665
6572.7392771000805,0.009884983373881164
6572.740276872296,0.010120207277998368
6572.741276644511,0.010352757719692685
6572.742276416726,0.010582601209589294
6572.743276188941,0.010809705111643099
6572.744275961157,0.01103403765408196
6572.745275733372,0.011255567939909847
6572.746275505588,0.011474265956963525
6572.747275277803,0.011690102587516573
6572.748275050018,0.011903049617424515
6572.749274822233,0.012113079744805197
6572.7502745944485,0.01232016658824883
6572.751274366664,0.012524284694552688
6572.752274138879,0.012725409545976006
6572.753273911094,0.012923517567011232
6572.754273683309,0.013118586130668441
6572.755273455525,0.013310593564270324
6572.75627322774,0.013499519154755705
6572.757272999956,0.013685343153490096
6572.75827277217,0.013868046780582328
6572.759272544386,0.014047612228706699
6572.760272316601,0.014224022666430565
6572.761272088816,0.01439726224104759
6572.762271861032,0.014567316080917164
6572.763271633247,0.014734170297310533
6572.764271405462,0.014897811985764295
6572.765271177677,0.015058229226941802
6572.766270949893,0.01521541108700295
6572.767270722108,0.015369347617482824
6572.768270494324,0.015520029854679672
6572.769270266538,0.015667449818552916
6572.770270038754,0.01581160051113222
6572.771269810969,0.015952475914439112
6572.772269583184,0.01609007098792326
6572.7732693554,0.016224381665416086
6572.774269127614,0.01635540485160526
6572.77526889983,0.01648313841803411
6572.776268672045,0.01660758119863085
6572.777268444261,0.01672873298477312
6572.778268216476,0.016846594519893933
6572.779267988692,0.016961167493635774
6572.780267760906,0.017072454535560146
6572.7812675331215,0.017180459208420217
6572.782267305337,0.017285186001004586
6572.783267077552,0.017386640320560302
6572.784266849768,0.017484828484803344
6572.785266621982,0.01757975771352468
6572.786266394198,0.017671436119800012
6572.787266166413,0.017759872700811207
6572.788265938629,0.017845077328287412
6572.789265710844,0.0179270607385738
6572.79026548306,0.01800583452233604
6572.791265255274,0.01808141111390883
6572.7922650274895,0.018153803780297073
6572.793264799705,0.018223026609838683
6572.79426457192,0.018289094500538287
6572.795264344136,0.018352023148081684
6572.79626411635,0.01841182903354108
6572.797263888566,0.01846852941078158
6572.798263660781,0.01852214229357969
6572.799263432997,0.018572686442464886
6572.800263205212,0.01862018135129543
6572.801262977428,0.01866464723357987
6572.802262749642,0.018706105008555598
6572.8032625218575,0.018744576287035835
6572.804262294073,0.01878008335703605
6572.805262066288,0.01881264916919046
6572.806261838504,0.018842297321968758
6572.807261610718,0.0188690520467027
6572.808261382934,0.018892938192431784
6572.809261155149,0.018913981210576705
6572.810260927365,0.018932207139449254
6572.81126069958,0.018947642588606994
6572.812260471796,0.01896031472306118
6572.81326024401,0.018970251247346474
6572.8142600162255,0.018977480389461173
6572.815259788441,0.018982030884686765
6572.816259560656,0.018983931959295926
6572.817259332872,0.018983213314158188
6572.818259105086,0.01897990510825269
6572.819258877302,0.01897403794209755
6572.820258649517,0.018965642841105523
6572.821258421733,0.01895475123887571
6572.822258193948,0.018941394960430947
6572.823257966163,0.018925606205410606
6572.824257738378,0.018907417531228144
6572.8252575105935,0.018886861836202508
6572.826257282809,0.01886397234267216
6572.827257055024,0.01883878258010004
6572.82825682724,0.018811326368177495
6572.829256599454,0.018781637799935035
6572.83025637167,0.018749751224867522
6572.831256143885,0.018715701232081574
6572.832255916101,0.018679522633472986
6572.833255688316,0.01864125044694225
6572.834255460531,0.018600919879656473
6572.835255232746,0.018558566311366414
6572.8362550049615,0.01851422527778746
6572.837254777177,0.01846793245405377
6572.838254549392,0.018419723638254913
6572.839254321607,0.018369634735064626
6572.840254093822,0.018317701739471455
6572.841253866038,0.018263960720621135
6572.842253638253,0.018208447805780636
6572.843253410469,0.01815119916443365
6572.844253182684,0.018092250992517076
6572.845252954899,0.01803163949680765
6572.846252727114,0.017969400879467447
6572.847252499329,0.017905571322756473
6572.848252271545,0.0178401869739201
6572.84925204376,0.017773283930258798
6572.850251815975,0.017704898224387398
6572.85125158819,0.017635065809690945
6572.852251360406,0.017563822545984268
6572.853251132621,0.017491204185382365
6572.854250904837,0.017417246358388892
6572.855250677052,0.017341984560210053
6572.856250449267,0.017265454137301267
6572.857250221482,0.017187690274154118
6572.858249993697,0.017108727980331095
6572.859249765913,0.017028602077755674
6572.860249538128,0.01694734718826518
6572.861249310343,0.01686499772143384
6572.862249082558,0.01678158786267316
6572.863248854774,0.016697151561616438
6572.864248626989,0.016611722520793747
6572.865248399205,0.016525334184603255
6572.86624817142,0.01643801972858403
6572.8672479436345,0.01634981204899494
6572.86824771585,0.016260743752703543
6572.869247488065,0.01617084714738858
6572.870247260281,0.016080154232058986
6572.871247032496,0.015988696687892448
6572.872246804711,0.01589650586939614
6572.873246576926,0.015803612795892364
6572.874246349142,0.015710048143331847
6572.875246121357,0.015615842236437458
6572.876245893573,0.01552102504118124
6572.877245665788,0.015425626157597565
6572.8782454380025,0.015329674812935234
6572.879245210218,0.015233199855151305
6572.880244982433,0.015136229746749262
6572.881244754649,0.015038792558964093
6572.882244526864,0.014940915966296564
6572.883244299079,0.014842627241398693
6572.884244071294,0.01474395325031194
6572.88524384351,0.014644920448059111
6572.886243615725,0.014545554874590215
6572.8872433879405,0.014445882151081908
6572.888243160155,0.014345927476589563
6572.8892429323705,0.014245715625050295
6572.890242704586,0.014145270942634828
6572.891242476801,0.01404461734544572
6572.892242249017,0.013943778317559172
6572.893242021232,0.013842776909407436
6572.894241793447,0.013741635736498762
6572.895241565662,0.013640376978471676
6572.896241337878,0.013539022378480247
6572.897241110093,0.013437593242906836
6572.8982408823085,0.013336110441398772
6572.899240654523,0.013234594407225155
6572.9002404267385,0.013133065137949929
6572.901240198954,0.013031542196417193
6572.902239971169,0.012930044712044555
6572.903239743385,0.012828591382419999
6572.904239515599,0.012727200475197402
6572.905239287815,0.012625889830285281
6572.90623906003,0.012524676862322892
6572.907238832246,0.012423578563437154
6572.908238604461,0.012322611506273463
6572.9092383766765,0.01222179184729299
6572.910238148891,0.012121135330328853
6572.9112379211065,0.012020657290393363
6572.912237693322,0.01192037265772862
6572.913237465537,0.01182029596209277
6572.914237237753,0.011720441337274448
6572.915237009967,0.011620822525828117
6572.916236782183,0.011521452884023195
6572.917236554398,0.011422345387000165
6572.918236326614,0.011323512634127035
6572.919236098829,0.011224966854549802
6572.9202358710445,0.011126719912930757
6572.921235643259,0.011028783315368551
6572.9222354154745,0.010931168215493949
6572.92323518769,0.010833885420735039
6572.924234959905,0.010736945398745494
6572.925234732121,0.010640358283989057
6572.926234504335,0.010544133884473136
6572.927234276551,0.010448281688624035
6572.928234048766,0.01035281087229601
6572.929233820982,0.010257730305906263
6572.930233593197,0.010163048561687897
6572.9312333654125,0.010068773921053105
6572.932233137627,0.00997491438205911
6572.933232909842,0.009881477666969774
6572.934232682058,0.009788471229906243
6572.935232454273,0.009695902264580438
6572.936232226489,0.00960377771210563
6572.937231998703,0.009512104268878718
6572.938231770919,0.009420888394529153
6572.939231543134,0.009330136319929683
6572.94023131535,0.009239854055264231
6572.941231087565,0.009150047398148318
6572.9422308597805,0.00906072194179734
6572.943230631995,0.008971883083237892
6572.94423040421,0.008883536031556923
6572.945230176426,0.00879568581618315
6572.946229948641,0.0087083372951946
6572.947229720857,0.008621495163645673
6572.948229493071,0.008535163961906738
6572.949229265287,0.008449348084009005
6572.950229037502,0.008364051785987321
6572.951228809718,0.008279279194213653
6572.952228581933,0.008195034313714208
6572.953228354148,0.008111321036463483
6572.954228126363,0.00802814314964887
6572.955227898578,0.007945504343899894
6572.956227670794,0.007863408221476523
6572.957227443009,0.007781858304411384
6572.958227215225,0.0077008580426010395
6572.959226987439,0.007620410821841776
6572.960226759655,0.007540519971805499
6572.96122653187,0.007461188773951422
6572.962226304086,0.007382420469369193
6572.963226076301,0.0073042182665488745
6572.964225848516,0.00722658534907291
6572.965225620731,0.007149524883224802
6572.966225392946,0.00707304002550877
6572.967225165162,0.006997133930074161
6572.968224937377,0.006921809756038032
6572.969224709592,0.006847070674698918
6572.970224481807,0.006772919876634573
6572.971224254023,0.006699360578676325
6572.972224026238,0.006626396030752609
6572.973223798454,0.006554029522594241
6572.974223570669,0.006482264390294076
6572.975223342884,0.006411104022713807
6572.976223115099,0.006340551867730746
6572.977222887314,0.006270611438317655
6572.97822265953,0.006201286318448807
6572.979222431745,0.006132580168825651
6572.98022220396,0.006064496732415707
6572.981221976175,0.0059970398397983645
6572.982221748391,0.005930213414311405
6572.983221520606,0.005864021476992035
6572.9842212928215,0.005798468151306053
6572.985221065037,0.00573355766765856
6572.986220837252,0.0056692943676793055
6572.987220609467,0.0056056827082755145
6572.988220381682,0.005542727265444742
6572.989220153898,0.005480432737840263
6572.990219926113,0.005418803950081556
6572.991219698328,0.005357845855802638
6572.992219470543,0.005297563540431502
6572.993219242759,0.005237962223694326
6572.994219014974,0.005179047261838791
6572.9952187871895,0.00512082414957147
6572.996218559405,0.005063298521704883
6572.99721833162,0.005006476154510534
6572.998218103835,0.004950362966774843
6572.99921787605,0.004894965020555558
6573.000217648266,0.0048402885216367745
6573.001217420481,0.0047863398196812176
6573.002217192696,0.004733125408078808
6573.003216964911,0.004680651923490796
6573.004216737127,0.004628926145088885
6573.005216509342,0.0045779549934887665
6573.0062162815575,0.0045277455293774305
6573.007216053773,0.004478304951833552
6573.008215825988,0.004429640596340293
6573.009215598203,0.004381759932489983
6573.010215370418,0.0043346705613804305
6573.011215142634,0.00428838021270314
6573.012214914849,0.004242896741524241
6573.013214687064,0.004198228124759733
6573.014214459279,0.004154382457347379
6573.015214231495,0.004111367948118377
6573.01621400371,0.004069192915372678
6573.0172137759255,0.0040278657821625425
6573.01821354814,0.003987395071289603
6573.019213320355,0.003947789400021321
6573.020213092571,0.003909057474533315
6573.021212864786,0.003871208084084566
6573.022212637002,0.0038342500949328875
6573.023212409217,0.0037981924439983447
6573.024212181432,0.0037630441322823714
6573.025211953647,0.003728814218050371
6573.026211725863,0.003695511809785464
6573.027211498078,0.003663146058920924
6573.0282112702935,0.0036317261523587546
6573.029211042508,0.003601261304781802
6573.030210814723,0.00357176075076689
6573.031210586939,0.0035432337367066065
6573.032210359154,0.003515689512547657
6573.03321013137,0.003489137323354005
6573.034209903584,0.0034635864007033592
6573.0352096758,0.0034390459539258805
6573.036209448015,0.003415525161194263
6573.037209220231,0.0033930331604745964
6573.038208992446,0.0033715790403476007
6573.039208764661,0.003351171830709988
6573.040208536876,0.003331820493365768
6573.041208309091,0.003313533912517266
6573.042208081307,0.0032963208851654363
6573.043207853522,0.0032801901114287487
6573.044207625738,0.003265150184789455
6573.045207397952,0.0032512095822755348
6573.046207170168,0.003238376654586045
6573.047206942383,0.003226659616167023
6573.048206714599,0.0032160665352445952
6573.049206486814,0.0032066053238215923
6573.050206259029,0.0031982837276437336
6573.051206031244,0.00319110931614145
6573.052205803459,0.0031850894723535294
6573.053205575675,0.00318023138283904
6573.05420534789,0.003176542027584306
6573.055205120106,0.003174028169912026
6573.05620489232,0.0031726963463999222
6573.057204664536,0.003172552856816559
6573.058204436751,0.003173603754082192
6573.059204208967,0.0031758548342626946
6573.060203981182,0.003179311626604776
6573.061203753397,0.0031839793836208195
6573.062203525612,0.0031898630712316454
6573.063203297827,0.0031969673589753575
6573.064203070043,0.003205296610290081
6573.065202842258,0.0032148548728779458
6573.066202614474,0.0032256458691571157
6573.067202386688,0.0032376729868080927
6573.068202158904,0.0032509392694200184
6573.069201931119,0.003265447407242275
6573.070201703335,0.0032811997280463743
6573.07120147555,0.0032981981881030076
6573.072201247765,0.003316444363279099
6573.07320101998,0.0033359394402598616
6573.074200792195,0.0033566842079010666
6573.075200564411,0.003378679048717044
6573.076200336626,0.003401923930510203
6573.077200108842,0.0034264183981481166
6573.078199881056,0.0034521615654943584
6573.079199653272,0.0034791521074993103
6573.080199425487,0.0035073882524571
6573.081199197703,0.0035368677744346483
6573.082198969918,0.0035675879858785018
6573.0831987421325,0.003599545730404725
6573.084198514348,0.0036327373757766043
6573.085198286563,0.003667158807074305
6573.086198058779,0.003702805420059974
6573.087197830994,0.0037396721147411713
6573.08819760321,0.003777753289134968
6573.089197375424,0.00381704283323464
6573.09019714764,0.0038575341231806212
6573.091196919855,0.003899220015637286
6573.092196692071,0.003942092842377151
6573.093196464286,0.003986144405074246
6573.0941962365005,0.0040313659703086315
6573.095196008716,0.004077748264784263
6573.096195780931,0.004125281470762627
6573.097195553147,0.004173955221714708
6573.098195325362,0.004223758598193917
6573.099195097577,0.004274680123932649
6573.100194869792,0.004326707762165018
6573.101194642008,0.004379828912178176
6573.102194414223,0.004434030406094334
6573.103194186439,0.00448929850588518
6573.104193958654,0.004545618900619951
6573.105193730868,0.004602976703947798
6573.106193503084,0.004661356451814552
6573.107193275299,0.004720742100413451
6573.108193047515,0.004781117024368933
6573.10919281973,0.004842464015152264
6573.110192591945,0.004904765279727589
6573.11119236416,0.004968002439426942
6573.112192136376,0.005032156529052889
6573.113191908591,0.005097207996207705
6573.114191680807,0.005163136700848346
6573.115191453022,0.005229921915066924
6573.116191225236,0.005297542323096912
6573.117190997452,0.005365976021545741
6573.118190769667,0.0054352005198549744
6573.119190541883,0.005505192740989619
6573.120190314098,0.005575929022358493
6573.121190086313,0.005647385116967841
6573.122189858528,0.005719536194810603
6573.123189630744,0.005792356844493773
6573.124189402959,0.00586582107510629
6573.125189175175,0.00593990231832972
6573.12618894739,0.006014573430793756
6573.127188719604,0.00608980669667836
6573.12818849182,0.0061655738305640365
6573.129188264035,0.006241845980531646
6573.130188036251,0.006318593731513039
6573.131187808466,0.006395787108893924
6573.132187580681,0.0064733955823705926
6573.133187352896,0.006551388070062485
6573.134187125112,0.006629732942883039
6573.135186897327,0.006708398029171723
6573.136186669542,0.006787350619590682
6573.137186441758,0.006866557472289872
6573.138186213972,0.006945984818345042
6573.139185986188,0.007025598367473333
6573.140185758403,0.007105363314031602
6573.141185530619,0.007185244343302853
6573.142185302834,0.00726520563807629
6573.143185075049,0.007345210885526485
6573.144184847264,0.007425223284397022
6573.14518461948,0.007505205552493709
6573.146184391695,0.00758511993449212
6573.14718416391,0.007664928210063958
6573.148183936125,0.007744591702326473
6573.14918370834,0.007824071286619135
6573.150183480556,0.007903327399611791
6573.151183252771,0.007982320048748813
6573.152183024987,0.008061008822034074
6573.153182797202,0.008139352898162082
6573.154182569417,0.008217311057001091
6573.155182341632,0.008294841690434452
6573.156182113848,0.008371902813566973
6573.157181886063,0.008448452076303388
6573.158181658278,0.008524446775306331
6573.159181430493,0.008599843866341456
6573.160181202708,0.008674599977017366
6573.161180974924,0.00874867141992805
6573.162180747139,0.008822014206205374
6573.163180519355,0.008894584059488774
6573.164180291569,0.008966336430318923
6573.165180063785,0.009037226510961414
6573.166179836,0.0091072092506659
6573.167179608216,0.009176239371365327
6573.168179380431,0.009244271383819285
6573.169179152646,0.00931125960420487
6573.170178924861,0.00937715817115803
6573.171178697076,0.009441921063268117
6573.172178469292,0.009505502117028249
6573.173178241507,0.009567855045244066
6573.174178013723,0.009628933455903568
6573.175177785937,0.009688690871510709
6573.176177558153,0.009747080748885499
6573.177177330368,0.00980405649943317
6573.178177102584,0.009859571509884806
6573.179176874799,0.009913579163511335
6573.180176647014,0.00996603286181228
6573.181176419229,0.010016886046679692
6573.182176191444,0.010066092223036734
6573.18317596366,0.010113604981948852
6573.184175735875,0.010159378024203861
6573.185175508091,0.01020336518435527
6573.186175280305,0.010245520455220999
6573.187175052521,0.010285798012827358
6573.188174824736,0.010324152241785628
6573.189174596952,0.010360537761086103
6573.190174369167,0.010394909450291805
6573.191174141382,0.010427222476111414
6573.192173913597,0.010457432319328311
6573.193173685812,0.010485494802059826
6573.194173458028,0.010511366115318084
6573.195173230243,0.010535002846841059
6573.196173002459,0.010556362009159602
6573.197172774673,0.010575401067863453
6573.198172546889,0.010592077970026495
6573.199172319104,0.010606351172748742
6573.20017209132,0.01061817967176999
6573.201171863535,0.010627523030107534
6573.20217163575,0.010634341406667901
6573.203171407965,0.010638595584780282
6573.20417118018,0.01064024700059713
6573.205170952396,0.010639257771305453
6573.206170724611,0.010635590723090664
6573.207170496827,0.01062920941879358
6573.208170269041,0.01062007818520044
6573.209170041257,0.0106081621399057
6573.210169813472,0.010593427217687919
6573.211169585688,0.01057584019634027
6573.212169357903,0.010555368721898974
6573.213169130117,0.010531981333215102
6573.214168902333,0.01050564748581771
6573.215168674548,0.010476337575018863
6573.216168446764,0.01044402295821396
6573.217168218979,0.01040867597633381
6573.218167991195,0.01037026997440828
6573.219167763409,0.010328779321205003
6573.220167535625,0.01028417942791056
6573.22116730784,0.010236446765825663
6573.222167080055,0.010185558883050134
6573.223166852271,0.01013149442013771
6573.224166624485,0.01007423312470488
6573.225166396701,0.010013755864981972
6573.226166168916,0.009950044642298666
6573.227165941132,0.009883082602499687
6573.228165713347,0.009812854046290074
6573.229165485563,0.00973934443851281
6573.230165257777,0.009662540416365112
6573.231165029993,0.009582429796563091
6573.232164802208,0.00949900158146801
6573.233164574423,0.009412245964190755
6573.234164346639,0.00932215433269457
6573.235164118853,0.0092287192729193
6573.236163891069,0.009131934570953223
6573.237163663284,0.009031795214281234
6573.2381634355,0.008928297392140284
6573.239163207715,0.008821438495014875
6573.24016297993,0.008711217113306751
6573.241162752145,0.008597633035213943
6573.2421625243605,0.008480687243854878
6573.243162296576,0.00836038191367341
6573.244162068791,0.008236720406160377
6573.245161841007,0.008109707264926748
6573.246161613221,0.007979348210162567
6573.247161385437,0.00784565013251495
6573.248161157652,0.007708621086417286
6573.249160929868,0.0075682702829007195
6573.250160702083,0.007424608081917864
6573.251160474298,0.007277645984207768
6573.252160246513,0.007127396622730229
6573.2531600187285,0.006973873753696764
6573.254159790944,0.0068170922472248355
6573.255159563159,0.0066570680776412
6573.256159335375,0.00649381831345962
6573.257159107589,0.006327361107057447
6573.258158879805,0.006157715684074887
6573.25915865202,0.005984902332560058
6573.260158424236,0.0058089423918821475
6573.261158196451,0.005629858241434197
6573.262157968666,0.0054476732891461255
6573.263157740881,0.005262411959827579
6573.2641575130965,0.005074099683359075
6573.265157285312,0.004882762882748635
6573.266157057527,0.004688428962069811
6573.267156829743,0.004491126294295692
6573.268156601957,0.004290884209042207
6573.269156374173,0.004087732980232866
6573.270156146388,0.0038817038136960717
6573.271155918604,0.0036728288347051955
6573.272155690819,0.0034611410754708727
6573.273155463034,0.00324667446259427
6573.274155235249,0.0030294638044894963
6573.2751550074645,0.002809544778782766
6573.27615477968,0.002586953919695377
6573.277154551895,0.0023617286054170667
6573.27815432411,0.002133907045475766
6573.279154096325,0.0019035282681092757
6573.280153868541,0.0016706321076438574
6573.281153640756,0.0014352591918841391
6573.282153412972,0.0011974509295180976
6573.283153185187,0.0009572494975401035
6573.284152957402,0.0007146978286941645
6573.285152729617,0.00046983959893852996
6573.2861525018325,0.00022271921493182136
6573.287152274048,-2.661819846013604e-05
6573.288152046263,-0.0002781268106385043
6573.289151818478,-0.0005317600977291242
6573.290151590693,-0.0007874708550267613
6573.291151362909,-0.0010452112094293524
6573.292151135124,-0.0013049326318659185
6573.29315090734,-0.001566585949721891
6573.294150679555,-0.0018301213592655807
6573.29515045177,-0.00209548843807944
6573.296150223985,-0.0023626361574996613
6573.2971499962005,-0.002631512895067539
6573.298149768416,-0.002902066446995912
6573.299149540631,-0.0031742440406538897
6573.300149312846,-0.003447992347072941
6573.301149085061,-0.0037232574934773378
6573.302148857277,-0.003999985075841907
6573.303148629492,-0.004278120171480145
6573.304148401708,-0.004557607351665945
6573.305148173922,-0.004838390694292517
6573.306147946138,-0.005120413796572527
6573.307147718353,-0.005403619787783886
6573.308147490568,-0.005687951342066082
6573.309147262784,-0.005973350691272221
6573.310147034999,-0.006259759637882116
6573.311146807214,-0.006547119567981784
6573.312146579429,-0.006835371464314575
6573.313146351645,-0.007124455919408975
6573.31414612386,-0.0074143131487878055
6573.315145896076,-0.007704883004263273
6573.31614566829,-0.00799610498732198
6573.317145440506,-0.008287918262603736
6573.318145212721,-0.008580261671477716
6573.319144984936,-0.00887307374571922
6573.320144757152,-0.009166292721290046
6573.321144529367,-0.009459856552225265
6573.322144301582,-0.009753702924628913
6573.323144073797,-0.01004776927078107
6573.324143846013,-0.01034199278335864
6573.325143618228,-0.010636310429772209
6573.326143390444,-0.010930658966621312
6573.327143162658,-0.011224974954270488
6573.3281429348735,-0.011519194771548443
6573.329142707089,-0.011813254630572423
6573.330142479304,-0.012107090591699681
6573.33114225152,-0.012400638578607405
6573.332142023735,-0.012693834393501944
6573.33314179595,-0.012986613732457467
6573.334141568165,-0.013278912200883473
6573.335141340381,-0.013570665329119817
6573.336141112596,-0.013861808588157104
6573.337140884812,-0.014152277405479518
6573.338140657026,-0.014442007181026452
6573.3391404292415,-0.014730933303268608
6573.340140201457,-0.015018991165393535
6573.341139973672,-0.01530611618159513
6573.342139745888,-0.015592243803461098
6573.343139518102,-0.015877309536452104
6573.344139290318,-0.01616124895646625
6573.345139062533,-0.016443997726482466
6573.346138834749,-0.01672549161327643
6573.347138606964,-0.017005666504202738
6573.34813837918,-0.017284458424037044
6573.349138151394,-0.01756180355187183
6573.3501379236095,-0.017837638238059172
6573.351137695825,-0.018111899021193752
6573.35213746804,-0.018384522645128826
6573.353137240256,-0.018655446076017483
6573.35413701247,-0.01892460651937106
6573.355136784686,-0.019191941437126107
6573.356136556901,-0.019457388564710756
6573.357136329117,-0.019720885928100902
6573.358136101332,-0.019982371860856107
6573.359135873548,-0.020241785021124753
6573.360135645762,-0.020499064408607628
6573.3611354179775,-0.020754149381468877
6573.362135190193,-0.021006979673183136
6573.363134962408,-0.021257495409307724
6573.364134734624,-0.021505637124169003
6573.365134506838,-0.021751345777452368
6573.366134279054,-0.021994562770685906
6573.367134051269,-0.022235229963608192
6573.368133823485,-0.02247328969041136
6573.3691335957,-0.0227086847758508
6573.370133367915,-0.022941358551213313
6573.37113314013,-0.023171254870135553
6573.3721329123455,-0.0233983181242647
6573.373132684561,-0.02362249325875318
6573.374132456776,-0.023843725787579106
6573.375132228992,-0.024061961808684175
6573.376132001206,-0.024277148018920534
6573.377131773422,-0.02448923172879823
6573.378131545637,-0.024698160877024745
6573.379131317853,-0.02490388404482831
6573.380131090068,-0.025106350470056726
6573.381130862283,-0.025305510061043625
6573.382130634498,-0.025501313410234337
6573.3831304067135,-0.025693711807563992
6573.384130178929,-0.025882657253580858
6573.385129951144,-0.026068102472308667
6573.38612972336,-0.02625000092384229
6573.387129495574,-0.026428306816671653
6573.38812926779,-0.02660297511972954
6573.389129040005,-0.026773961574159216
6573.390128812221,-0.02694122270479827
6573.391128584436,-0.02710471583137528
6573.392128356651,-0.027264399079416034
6573.393128128866,-0.02742023139085616
6573.394127901081,-0.027572172534356933
6573.395127673297,-0.027720183115321022
6573.396127445512,-0.02786422458560481
6573.397127217728,-0.02800425925292398
6573.398126989942,-0.02814025028994892
6573.399126762158,-0.02827216174308671
6573.400126534373,-0.028399958540946405
6573.401126306589,-0.028523606502484727
6573.402126078804,-0.02864307234482933
6573.403125851019,-0.028758323690777434
6573.404125623234,-0.028869329075968137
6573.405125395449,-0.028976057955727462
6573.406125167665,-0.029078480711585895
6573.40712493988,-0.029176568657468996
6573.408124712095,-0.02927029404556218
6573.40912448431,-0.029359630071851366
6573.410124256526,-0.029444550881341465
6573.411124028741,-0.029525031572955135
6573.412123800957,-0.029601048204114196
6573.413123573172,-0.0296725777950064
6573.4141233453865,-0.02973959833254016
6573.415123117602,-0.029802088773990015
6573.416122889817,-0.02986002905033554
6573.417122662033,-0.02991340006929652
6573.418122434248,-0.029962183718067154
6573.419122206463,-0.030006362865752357
6573.420121978678,-0.030045921365509015
6573.421121750894,-0.030080844056395405
6573.422121523109,-0.03011111676493193
6573.423121295325,-0.030136726306376895
6573.42412106754,-0.03015766048572124
6573.4251208397545,-0.03017390809840686
6573.42612061197,-0.03018545893077356
6573.427120384185,-0.030192303760240506
6573.428120156401,-0.030194434355228346
6573.429119928616,-0.030191843474828756
6573.430119700831,-0.030184524868228323
6573.431119473046,-0.030172473273893885
6573.432119245262,-0.030155684418526407
6573.433119017477,-0.030134155015790372
6573.434118789693,-0.030107882764825518
6573.435118561907,-0.030076866348547487
6573.4361183341225,-0.030041105431743827
6573.437118106338,-0.030000600658971553
6573.438117878553,-0.029955353652262342
6573.439117650769,-0.02990536700864126
6573.440117422984,-0.029850644297464948
6573.441117195199,-0.029791190057585133
6573.442116967414,-0.02972700979434346
6573.44311673963,-0.029658109976403613
6573.444116511845,-0.029584498032427024
6573.4451162840605,-0.02950618234759873
6573.446116056275,-0.02942317226001015
6573.4471158284905,-0.02933547805690593
6573.448115600706,-0.02924311097080202
6573.449115372921,-0.029146083175482056
6573.450115145137,-0.029044407781879077
6573.451114917352,-0.028938098833849204
6573.452114689567,-0.028827171303843307
6573.453114461782,-0.028711641088482245
6573.454114233998,-0.02859152500404068
6573.455114006213,-0.02846684078184381
6573.4561137784285,-0.028337607063580832
6573.457113550643,-0.02820384339653839
6573.4581133228585,-0.02806557022875668
6573.459113095074,-0.02792280890411039
6573.460112867289,-0.027775581657316303
6573.461112639505,-0.027623911608868592
6573.46211241172,-0.02746782275990267
6573.463112183935,-0.027307339986987974
6573.46411195615,-0.027142489036849824
6573.465111728366,-0.026973296521020533
6573.466111500581,-0.026799789910419793
6573.4671112727965,-0.02662199752986427
6573.468111045011,-0.026439948552506264
6573.4691108172265,-0.02625367299420114
6573.470110589442,-0.02606320170780282
6573.471110361657,-0.025868566377386337
6573.472110133873,-0.02566979951239588
6573.473109906087,-0.025466934441716223
6573.474109678303,-0.025260005307664892
6573.475109450518,-0.02504904705990195
6573.476109222734,-0.02483409544925389
6573.477108994949,-0.02461518702144774
6573.4781087671645,-0.02439235911075112
6573.479108539379,-0.024165649833513908
6573.480108311594,-0.02393509808160669
6573.48110808381,-0.023700743515751282
6573.482107856025,-0.023462626558738545
6573.483107628241,-0.023220788388528715
6573.484107400455,-0.022975270931229877
6573.485107172671,-0.022726116853950422
6573.486106944886,-0.02247336955752188
6573.487106717102,-0.02221707316908899
6573.488106489317,-0.02195727253456427
6573.4891062615325,-0.02169401321094473
6573.490106033747,-0.021427341458488645
6573.491105805962,-0.02115730423275062
6573.492105578178,-0.02088394917647319
6573.493105350393,-0.020607324611333362
6573.494105122609,-0.020327479529542475
6573.495104894823,-0.020044463585297784
6573.496104667039,-0.019758327086084295
6573.497104439254,-0.019469120983825302
6573.49810421147,-0.019176896865880214
6573.499103983685,-0.018881706945888317
6573.5001037559,-0.01858360405445722
6573.501103528115,-0.018282641629694892
6573.50210330033,-0.017978873707584487
6573.503103072546,-0.017672354912201513
6573.504102844761,-0.01736314044577348
6573.505102616977,-0.017051286078582816
6573.506102389191,-0.016736848138714622
6573.507102161407,-0.016419883501651564
6573.508101933622,-0.016100449579718994
6573.509101705838,-0.015778604311383823
6573.510101478053,-0.015454406150411222
6573.511101250268,-0.015127914054883366
6573.512101022483,-0.014799187476084538
6573.513100794698,-0.014468286347256932
6573.514100566914,-0.014135271072231266
6573.515100339129,-0.013800202513936224
6573.516100111345,-0.013463141982790493
6573.517099883559,-0.013124151224980962
6573.518099655775,-0.012783292410630507
6573.51909942799,-0.012440628121858656
6573.520099200206,-0.012096221340738313
6573.521098972421,-0.01175013543715186
6573.522098744636,-0.011402434156550014
6573.523098516851,-0.011053181607617289
6573.524098289066,-0.010702442249848378
6573.525098061282,-0.010350280881040425
6573.526097833497,-0.009996762624706865
6573.527097605713,-0.009641952917419103
6573.528097377927,-0.009285917496082817
6573.529097150143,-0.008928722385155964
6573.530096922358,-0.008570433883815613
6573.5310966945735,-0.008211118553080595
6573.532096466789,-0.007850843202896713
6573.533096239004,-0.007489674879190806
6573.534096011219,-0.007127680850899486
6573.535095783434,-0.006764928596977893
6573.53609555565,-0.006401485793393329
6573.537095327865,-0.006037420300108136
6573.53809510008,-0.005672800148055705
6573.539094872295,-0.005307693526112964
6573.540094644511,-0.004942168768072263
6573.541094416726,-0.004576294339615104
6573.5420941889415,-0.004210138825289765
6573.543093961157,-0.003843770915494708
6573.544093733372,-0.0034772593934695333
6573.545093505587,-0.0031106731222953214
6573.546093277802,-0.00274408103190636
6573.547093050018,-0.0023775521061153914
6573.548092822233,-0.0020111553696546365
6573.549092594448,-0.0016449598752348213
6573.550092366663,-0.001279034690624268
6573.551092138879,-0.0009134488857497901
6573.552091911094,-0.0005482715198206796
6573.5530916833095,-0.00018357162847652708
6573.554091455525,0.00018058178904098302
6573.55509122774,0.0005441197826927669
6573.556090999955,0.0009069734644245569
6573.55709077217,0.0012690740209281796
6573.558090544386,0.001630352726383864
6573.559090316601,0.001990740955185923
6573.560090088816,0.0023501701946544314
6573.561089861031,0.002708572057735758
6573.562089633247,0.0030658782956948915
6573.563089405462,0.0034220208108024773
6573.5640891776775,0.003776931669019286
6573.565088949892,0.004130543112680555
6573.566088722107,0.004482787573182246
6573.567088494323,0.0048335976836708806
6573.568088266538,0.005182906291738249
6573.569088038754,0.005530646472121991
6573.570087810969,0.005876751539412856
6573.571087583184,0.0062211550607693756
6573.572087355399,0.006563790868640669
6573.573087127615,0.006904593073498211
6573.57408689983,0.0072434960765775346
6573.5750866720455,0.007580434582631034
6573.57608644426,0.00791534361269324
6573.577086216475,0.008248158516860143
6573.578085988691,0.008578814987084325
6573.579085760906,0.00890724906998779
6573.580085533122,0.009233397179694557
6573.581085305337,0.009557196110685088
6573.582085077552,0.009878583050674657
6573.583084849767,0.010197495593517498
6573.584084621983,0.010513871752138316
6573.585084394198,0.010827649971492263
6573.5860841664135,0.011138769141553964
6573.587083938628,0.011447168610335692
6573.588083710843,0.011752788196934249
6573.589083483059,0.012055568204605717
6573.590083255274,0.012355449433867027
6573.59108302749,0.01265237319562303
6573.592082799705,0.012946281324317797
6573.59308257192,0.01323711619110892
6573.594082344135,0.01352482071706361
6573.595082116351,0.013809338386375557
6573.596081888566,0.014090613259601738
6573.597081660781,0.014368589986918322
6573.598081432996,0.014643213821395041
6573.599081205211,0.014914430632287382
6573.600080977427,0.015182186918345948
6573.601080749642,0.015446429821142305
6573.602080521858,0.01570710713841044
6573.603080294072,0.01596416733740273
6573.604080066288,0.016217559568258808
6573.605079838503,0.01646723367738538
6573.606079610719,0.016713140220844216
6573.607079382934,0.016955230477745158
6573.608079155149,0.017193456463640372
6573.609078927364,0.01742777094391558
6573.610078699579,0.01765812744717368
6573.611078471795,0.017884480278605987
6573.61207824401,0.01810678453334612
6573.613078016226,0.018324996109801598
6573.61407778844,0.018539071722958142
6573.615077560656,0.01874896891765187
6573.616077332871,0.018954646081804524
6573.617077105087,0.019156062459617047
6573.618076877302,0.019353178164716846
6573.619076649517,0.01954595419325419
6573.620076421732,0.019734352436943242
6573.621076193947,0.019918335696043146
6573.622075966163,0.020097867692274562
6573.623075738378,0.020272913081666684
6573.624075510594,0.02044343746732934
6573.625075282808,0.02060940741214436
6573.626075055024,0.02077079045136961
6573.627074827239,0.020927555105148626
6573.628074599455,0.021079670890918157
6573.62907437167,0.021227108335705472
6573.6300741438845,0.021369838988307136
6573.6310739161,0.021507835431340744
6573.632073688315,0.021641071293161254
6573.633073460531,0.021769521259633665
6573.634073232746,0.021893161085754124
6573.635073004962,0.022011967607111705
6573.636072777176,0.02212591875118344
6573.637072549392,0.02223499354845526
6573.638072321607,0.022339172143361844
6573.639072093823,0.022438435805038473
6573.640071866038,0.022532766937878056
6573.6410716382525,0.022622149091886763
6573.642071410468,0.022706566972831414
6573.643071182683,0.022786006452171752
6573.644070954899,0.022860454576770474
6573.645070727114,0.02292989957837345
6573.64607049933,0.02299433088285203
6573.647070271544,0.02305373911919912
6573.64807004376,0.023108116128270097
6573.649069815975,0.023157454971259442
6573.650069588191,0.02320174993790366
6573.651069360406,0.023240996554401223
6573.65206913262,0.02327519159104011
6573.653068904836,0.023304333069523984
6573.654068677051,0.023328420269988295
6573.655068449267,0.023347453737697862
6573.656068221482,0.023361435289417965
6573.657067993698,0.023370368019451308
6573.658067765912,0.02337425630533351
6573.659067538128,0.02337310581318031
6573.660067310343,0.023366923502679948
6573.661067082559,0.023355717631724712
6573.662066854774,0.023339497760675947
6573.663066626988,0.02331827475625716
6573.664066399204,0.023292060795070006
6573.665066171419,0.023260869366727836
6573.666065943635,0.023224715276601693
6573.66706571585,0.0231836146481732
6573.668065488065,0.023137584924988998
6573.66906526028,0.023086644872211185
6573.670065032496,0.02303081457775833
6573.671064804711,0.0229701154530318
6573.672064576927,0.02290457023322235
6573.673064349142,0.022834202977192273
6573.674064121356,0.022759039066928728
6573.675063893572,0.02267910520656438
6573.676063665787,0.022594429420961692
6573.677063438003,0.02250504105385789
6573.678063210218,0.022410970765567976
6573.679062982433,0.022312250530243542
6573.680062754648,0.022208913632685665
6573.681062526864,0.022100994664710504
6573.682062299079,0.021988529521066603
6573.683062071294,0.021871555394903062
6573.68406184351,0.021750110772787795
6573.685061615724,0.021624235429275107
6573.68606138794,0.02149397042102169
6573.687061160155,0.02135935808044991
6573.688060932371,0.021220442008957053
6573.689060704586,0.021077267069669187
6573.690060476801,0.020929879379738094
6573.691060249016,0.020778326302179916
6573.692060021232,0.02062265643725426
6573.693059793447,0.02046291961338275
6573.694059565662,0.020299166877606405
6573.695059337877,0.020131450485581615
6573.696059110092,0.01995982389111494
6573.697058882308,0.019784341735237326
6573.698058654523,0.01960505983481882
6573.699058426739,0.01942203517072533
6573.700058198954,0.019235325875519304
6573.701057971169,0.019044991220706603
6573.702057743384,0.018851091603532197
6573.7030575156,0.01865368853332746
6573.704057287815,0.018452844617411944
6573.70505706003,0.018248623546552416
6573.706056832245,0.01804109007998196
6573.70705660446,0.017830310029981738
6573.708056376676,0.017616350246028
6573.709056148891,0.017399278598506908
6573.710055921107,0.017179163961999856
6573.711055693322,0.016956076198142152
6573.712055465537,0.016730086138058303
6573.713055237752,0.016501265564377372
6573.714055009968,0.016269687192832352
6573.715054782183,0.016035424653447677
6573.716054554398,0.015798552471319394
6573.717054326613,0.015559146046992604
6573.718054098828,0.015317281636441034
6573.719053871044,0.015073036330653761
6573.720053643259,0.014826488034834245
6573.721053415475,0.014577715447216939
6573.72205318769,0.01432679803750672
6573.723052959905,0.014073816024946421
6573.72405273212,0.013818850356017468
6573.725052504336,0.013561982681778452
6573.726052276551,0.013303295334846263
6573.727052048766,0.013042871306024157
6573.728051820981,0.01278079422058099
6573.729051593196,0.01251714831418589
6573.730051365412,0.012252018408502659
6573.731051137627,0.011985489886448503
6573.732050909843,0.011717648667121857
6573.733050682057,0.011448581180404566
6573.734050454273,0.01117837434124396
6573.735050226488,0.01090711552362082
6573.736049998704,0.01063489253420955
6573.737049770919,0.010361793585737267
6573.738049543134,0.010087907270048846
6573.739049315349,0.009813322530885252
6573.740049087564,0.009538128636382823
6573.74104885978,0.009262415151301372
6573.742048631995,0.008986271908989183
6573.743048404211,0.008709788983093127
6573.744048176425,0.00843305665902214
6573.745047948641,0.00815616540517231
6573.746047720856,0.007879205843921792
6573.747047493072,0.0076022687224036965
6573.748047265287,0.007325444883065137
6573.749047037502,0.007048825234020702
6573.750046809717,0.006772500719208862
6573.751046581932,0.006496562288360155
6573.752046354148,0.006221100866786416
6573.753046126363,0.005946207325000844
6573.754045898579,0.005671972448179319
6573.755045670793,0.005398486905474027
6573.756045443009,0.005125841219191122
6573.757045215224,0.004854125733844813
6573.75804498744,0.004583430585100854
6573.759044759655,0.004313845668622978
6573.760044531869,0.004045460608836333
6573.761044304085,0.0037783647276223783
6573.7620440763,0.0035126470129600595
6573.763043848516,0.0032483960875282956
6573.764043620731,0.0029857001772849766
6573.765043392947,0.002724647080037676
6573.766043165161,0.0024653241340212894
6573.767042937377,0.0022078181864977962
6573.768042709592,0.001952215562393368
6573.769042481807,0.0016986020329881866
6573.770042254023,0.001447062784674582
6573.771042026237,0.0011976823877994948
6573.772041798453,0.0009505447656077755
6573.773041570668,0.000705733163303429
6573.774041342884,0.0004633301172465398
6573.775041115099,0.00022341742430422205
6573.776040887315,-1.392388862550858e-05
6573.777040659529,-0.0002486135948975633
6573.778040431745,-0.0004805722981915303
6573.77904020396,-0.0007097214623512413
6573.780039976175,-0.0009359834409718093
6573.781039748391,-0.0011592815067136537
6573.782039520605,-0.001379539880323023
6573.783039292821,-0.0015966837593386649
6573.784039065036,-0.0018106393464645768
6573.785038837252,-0.0020213338775891695
6573.786038609467,-0.0022286956494316453
6573.787038381683,-0.0024326540467968947
6573.788038153897,-0.002633139569420664
6573.7890379261125,-0.00283008385838716
6573.790037698328,-0.0030234197221015724
6573.791037470543,-0.003213081161800198
6573.792037242759,-0.0033990033965809944
6573.793037014973,-0.0035811228879374496
6573.794036787189,-0.003759377363778668
6573.795036559404,-0.003933705841918615
6573.79603633162,-0.004104048653017434
6573.797036103835,-0.004270347462957808
6573.79803587605,-0.004432545294639337
6573.799035648265,-0.0045905865491740515
6573.8000354204805,-0.004744417026466332
6573.801035192696,-0.00489398394516077
6573.802034964911,-0.005039235961941979
6573.803034737127,-0.005180123190170877
6573.804034509341,-0.005316597217842778
6573.805034281557,-0.005448611124853418
6573.806034053772,-0.005576119499560102
6573.807033825988,-0.005699078454626079
6573.808033598203,-0.005817445642137351
6573.809033370418,-0.005931180267981993
6573.810033142633,-0.006040243105483003
6573.8110329148485,-0.006144596508276506
6573.812032687064,-0.006244204422427851
6573.813032459279,-0.006339032397778968
6573.814032231495,-0.0064290475985210515
6573.815032003709,-0.0065142188129874235
6573.816031775925,-0.006594516462662243
6573.81703154814,-0.006669912610401572
6573.818031320356,-0.006740380967864176
6573.819031092571,-0.00680589690215028
6573.820030864786,-0.006866437441647399
6573.821030637001,-0.006921981281083098
6573.8220304092165,-0.006972508785785534
6573.823030181432,-0.007018001995153555
6573.824029953647,-0.0070584446253393945
6573.825029725862,-0.007093822071148232
6573.826029498077,-0.00712412140716027
6573.827029270293,-0.007149331388082316
6573.828029042508,-0.00716944244833712
6573.829028814724,-0.007184446700899784
6573.830028586939,-0.007194337935391547
6573.831028359154,-0.007199111615441959
6573.832028131369,-0.007198764875331186
6573.8330279035845,-0.007193296515924638
6573.8340276758,-0.00718270699991262
6573.835027448015,-0.007166998446368117
6573.83602722023,-0.007146174624636211
6573.837026992445,-0.007120240947568922
6573.838026764661,-0.007089204464119612
6573.839026536876,-0.007053073851311363
6573.840026309092,-0.007011859405594009
6573.841026081307,-0.00696557303360478
6573.842025853522,-0.006914228242347884
6573.843025625737,-0.006857840128808785
6573.8440253979525,-0.0067964253690194106
6573.845025170168,-0.006730002206591145
6573.846024942383,-0.006658590440733067
6573.847024714598,-0.006582211413773521
6573.848024486813,-0.006500887998203607
6573.849024259029,-0.006414644583261649
6573.850024031244,-0.006323507061077956
6573.85102380346,-0.006227502812399358
6573.852023575675,-0.0061266606919129765
6573.85302334789,-0.0060210110131886
6573.854023120105,-0.005910585533258769
6573.85502289232,-0.005795417436855369
6573.856022664536,-0.005675541320321177
6573.857022436751,-0.005550993175214339
6573.858022208966,-0.005421810371623384
6573.859021981181,-0.005288031641209912
6573.860021753397,-0.005149697059995651
6573.861021525612,-0.005006848030910145
6573.862021297828,-0.004859527266114974
6573.863021070042,-0.004707778769120158
6573.864020842258,-0.004551647816708307
6573.865020614473,-0.004391180940682111
6573.866020386688,-0.004226425909450959
6573.867020158904,-0.004057431709472543
6573.868019931119,-0.0038842485265654144
6573.869019703334,-0.0037069277271082816
6573.870019475549,-0.0035255218391415802
6573.871019247765,-0.003340084533386386
6573.87201901998,-0.003150670604195156
6573.873018792196,-0.0029573359504480997
6573.87401856441,-0.002760137556408216
6573.8750183366255,-0.002559133472547289
6573.876018108841,-0.002354382796354338
6573.877017881056,-0.0021459456531372815
6573.878017653272,-0.0019338831768278611
6573.879017425487,-0.0017182574907991782
6573.880017197702,-0.0014991316887045646
6573.881016969917,-0.0012765698153459322
6573.882016742133,-0.0010506368475792888
6573.883016514348,-0.0008213986752647703
6573.884016286564,-0.0005889220822683294
6573.885016058778,-0.0003532747275221033
6573.8860158309935,-0.00011452512615038624
6573.887015603209,0.0001272573693319894
6573.888015375424,0.00037200258774227794
6573.88901514764,0.0006196395578672101
6573.890014919854,0.0008700965270093882
6573.89101469207,0.0011233009794375459
6573.892014464285,0.0013791796547362567
6573.893014236501,0.0016376585660514773
6573.894014008716,0.0018986630182291544
6573.895013780932,0.0021621176258449742
6573.896013553146,0.0024279463311241735
6573.8970133253615,0.0026960724217511374
6573.898013097577,0.0029664185485693126
6573.899012869792,0.0032389067431727427
6573.900012642008,0.0035134584353912453
6573.901012414222,0.0037899944706718943
6573.902012186438,0.004068435127359964
6573.903011958653,0.004348700133882848
6573.904011730869,0.0046307086858406584
6573.905011503084,0.004914379463007295
6573.9060112753,0.00519963064624577
6573.907011047514,0.005486379934341617
6573.9080108197295,0.005774544560758261
6573.909010591945,0.006064041310318426
6573.91001036416,0.00635478653581594
6573.911010136376,0.00664669617456275
6573.91200990859,0.00693968576487652
6573.913009680806,0.007233670462514694
6573.914009453021,0.007528565057061619
6573.915009225237,0.007824283988275853
6573.916008997452,0.008120741362405337
6573.917008769668,0.00841785096847855
6573.918008541882,0.008715526294580112
6573.9190083140975,0.009013680544119631
6573.920008086313,0.009312226652102724
6573.921007858528,0.009611077301413232
6573.922007630744,0.009910144939115618
6573.923007402958,0.010209341792786394
6573.924007175174,0.010508579886883081
6573.925006947389,0.010807771059158835
6573.926006719605,0.011106826977130358
6573.92700649182,0.011405659154606234
6573.928006264035,0.011704178968282195
6573.92900603625,0.01200229767440943
6573.9300058084655,0.012299926425541763
6573.931005580681,0.012596976287367159
6573.932005352896,0.012893358255628968
6573.933005125112,0.013188983273142335
6573.934004897326,0.013483762246911179
6573.935004669542,0.013777606065351273
6573.936004441757,0.014070425615624995
6573.937004213973,0.01436213180109349
6573.938003986188,0.014652635558891933
6573.939003758403,0.014941847877633689
6573.940003530618,0.015229679815249114
6573.941003302833,0.01551604251696466
6573.942003075049,0.015800847233427853
6573.943002847264,0.016084005338983475
6573.94400261948,0.016365428350105925
6573.945002391694,0.016645027943992325
6573.94600216391,0.016922715977320528
6573.947001936125,0.01719840450517568
6573.948001708341,0.017472005800148772
6573.949001480556,0.017743432371610322
6573.950001252771,0.018012596985162235
6573.951001024986,0.0182794126822711
6573.952000797201,0.018543792800086133
6573.953000569417,0.01880565099144547
6573.954000341632,0.019064901245074553
6573.955000113847,0.01932145790598075
6573.955999886062,0.019575235696048472
6573.956999658278,0.019826149734839198
6573.957999430493,0.020074115560600833
6573.958999202709,0.020319049151490846
6573.959998974924,0.020560866947017486
6573.960998747139,0.020799485869703267
6573.961998519354,0.02103482334697468
6573.962998291569,0.02126679733328175
6573.963998063785,0.021495326332450583
6573.964997836,0.021720329420271463
6573.965997608215,0.0219417262673244
6573.96699738043,0.02215943716204333
6573.967997152646,0.02237338303401951
6573.968996924861,0.02258348547754408
6573.969996697077,0.02278966677538935
6573.970996469292,0.022991849922827826
6573.9719962415065,0.02318995865188781
6573.972996013722,0.02338391745584379
6573.973995785937,0.023573651613939234
6573.974995558153,0.023759087216338612
6573.975995330368,0.023940151189304315
6573.976995102583,0.024116771320592853
6573.977994874798,0.024288876285062946
6573.978994647014,0.024456395670486398
6573.979994419229,0.024619260003550473
6573.980994191445,0.02477740077603809
6573.98199396366,0.024930750471169643
6573.9829937358745,0.02507924259008721
6573.98399350809,0.025222811678458572
6573.984993280305,0.025361393353175176
6573.985993052521,0.025494924329114415
6573.986992824736,0.02562334244593272
6573.987992596951,0.025746586694852337
6573.988992369166,0.02586459724540069
6573.989992141382,0.025977315472057835
6573.990991913597,0.02608468398076405
6573.9919916858125,0.026186646635236392
6573.992991458027,0.026283148583040324
6573.9939912302425,0.026374136281359935
6573.994991002458,0.02645955752240793
6573.995990774673,0.02653936145841478
6573.996990546889,0.026613498626134775
6573.997990319104,0.02668192097080556
6573.998990091319,0.026744581869496898
6573.999989863534,0.026801436153784226
6574.00098963575,0.026852440131682573
6574.001989407965,0.02689755160877726
6574.0029891801805,0.026936729908488843
6574.003988952395,0.026969935891411393
6574.0049887246105,0.026997131973665364
6574.005988496826,0.027018282144208625
6574.006988269041,0.027033351981051817
6574.007988041257,0.027042308666327234
6574.008987813472,0.027045121000163715
6574.009987585687,0.027041759413323537
6574.010987357902,0.027032195978561428
6574.011987130118,0.027016404420670166
6574.012986902333,0.026994360125181905
6574.0139866745485,0.02696604014569943
6574.014986446763,0.02693142320983652
6574.0159862189785,0.02689048972375208
6574.016985991194,0.026843221775267632
6574.017985763409,0.02678960313556312
6574.018985535625,0.02672961925945067
6574.019985307839,0.026663257284230822
6574.020985080055,0.026590506027140116
6574.02198485227,0.026511355981403088
6574.022984624486,0.026425799310905555
6574.023984396701,0.026333829843509713
6574.0249841689165,0.026235443063035005
6574.025983941131,0.026130636099931857
6574.026983713346,0.026019407720678456
6574.027983485562,0.025901758315933783
6574.028983257777,0.025777689887482875
6574.029983029993,0.025647206034013062
6574.030982802207,0.025510311935762243
6574.031982574423,0.02536701433808251
6574.032982346638,0.025217321533964356
6574.033982118854,0.025061243345568224
6574.034981891069,0.02489879110481156
6574.0359816632845,0.024729977633060674
6574.036981435499,0.024554817219977536
6574.037981207714,0.024373325601572203
6574.03898097993,0.024185519937512116
6574.039980752145,0.02399141878773968
6574.040980524361,0.02379104208844952
6574.041980296575,0.023584411127476595
6574.042980068791,0.0233715485191459
6574.043979841006,0.02315247817863375
6574.044979613222,0.02292722529588986
6574.045979385437,0.02269581630916821
6574.0469791576525,0.02245827887821396
6574.047978929867,0.022214641857152353
6574.048978702082,0.021964935267124754
6574.049978474298,0.021709190268716188
6574.050978246513,0.021447439134217865
6574.051978018729,0.021179715219767768
6574.052977790943,0.020906052937411716
6574.053977563159,0.02062648772712687
6574.054977335374,0.020341056028849357
6574.05597710759,0.020049795254546955
6574.056976879805,0.019752743760377695
6574.05797665202,0.019449940818974432
6574.058976424235,0.019141426591895168
6574.05997619645,0.018827242102278176
6574.060975968666,0.018507429207740327
6574.061975740881,0.01818203057355621
6574.062975513097,0.017851089646154724
6574.063975285311,0.017514650626968616
6574.064975057527,0.01717275844667137
6574.065974829742,0.01682545873983435
6574.066974601958,0.016472797820035835
6574.067974374173,0.016114822655452308
6574.068974146388,0.01575158084496116
6574.069973918603,0.01538312059478294
6574.070973690818,0.01500949069569039
6574.071973463034,0.014630740500810755
6574.072973235249,0.014246919904047113
6574.073973007465,0.013858079319143839
6574.074972779679,0.013464269659420585
6574.075972551895,0.013065542318198491
6574.07697232411,0.01266194914994162
6574.0779720963255,0.01225354245213594
6574.078971868541,0.011840374947927423
6574.079971640756,0.011422499769540047
6574.080971412971,0.010999970442493559
6574.081971185186,0.010572840870639831
6574.082970957402,0.010141165322035487
6574.083970729617,0.009704998415667044
6574.084970501832,0.00926439510904347
6574.085970274047,0.00881941068666954
6574.086970046263,0.008370100749411863
6574.087969818478,0.007916521204768136
6574.0889695906935,0.007458728258048846
6574.089969362909,0.006996778404479484
6574.090969135124,0.006530728422230328
6574.091968907339,0.0060606353663799255
6574.092968679554,0.005586556563817561
6574.09396845177,0.005108549609089132
6574.094968223985,0.00462667236119008
6574.0959679962,0.004140982941308112
6574.096967768415,0.003651539731517602
6574.097967540631,0.0031584013744265765
6574.098967312846,0.002661626773776247
6574.0999670850615,0.002161275095992009
6574.100966857277,0.0016574057726837523
6574.101966629492,0.0011500785040921505
6574.102966401707,0.0006393532634763265
6574.103966173922,0.00012529030243693684
6574.104965946138,-0.00039204984283275715
6574.105965718353,-0.000912606344376746
6574.106965490568,-0.001436318074397471
6574.107965262783,-0.0019631235962802155
6574.108965034999,-0.002492961154733904
6574.109964807214,-0.0030257686650627807
6574.1109645794295,-0.003561483701584598
6574.111964351645,-0.0041000434852120175
6574.11296412386,-0.004641384870214913
6574.113963896075,-0.005185444330182216
6574.11496366829,-0.005732157943202866
6574.115963440506,-0.006281461376286395
6574.116963212721,-0.006833289869044553
6574.117962984936,-0.007387578216656491
6574.118962757151,-0.007944260752140971
6574.119962529367,-0.008503271327960221
6574.120962301582,-0.009064543296981236
6574.1219620737975,-0.009628009492821516
6574.122961846013,-0.010193602209607633
6574.123961618227,-0.010761253181176454
6574.124961390443,-0.011330893559750428
6574.125961162658,-0.011902453894119952
6574.126960934874,-0.012475864107367339
6574.127960707089,-0.013051053474168354
6574.128960479304,-0.013627950597708587
6574.129960251519,-0.014206483386252945
6574.130960023735,-0.01478657902940745
6574.13195979595,-0.015368163974113282
6574.1329595681655,-0.01595116390041351
6574.13395934038,-0.016535503697033486
6574.134959112595,-0.01712110743681634
6574.135958884811,-0.01770789835205529
6574.136958657026,-0.018295798809765076
6574.137958429242,-0.018884730286935044
6574.138958201457,-0.01947461334580699
6574.139957973672,-0.02006536760922129
6574.140957745887,-0.0206569117360755
6574.141957518103,-0.021249163396940274
6574.142957290318,-0.02184203924987822
6574.143957062533,-0.022435454916512235
6574.144956834748,-0.023029324958390784
6574.145956606963,-0.023623562853698363
6574.146956379179,-0.024218080974360096
6574.147956151394,-0.02481279056359011
6574.14895592361,-0.025407601713933636
6574.149955695824,-0.026002423345852864
6574.15095546804,-0.026597163186906574
6574.151955240255,-0.027191727751573278
6574.152955012471,-0.02778602232176711
6574.153954784686,-0.02837995092809517
6574.154954556901,-0.028973416331904384
6574.155954329116,-0.029566320008165118
6574.156954101331,-0.030158562129238214
6574.157953873547,-0.03075004154957106
6574.158953645762,-0.03134065579136772
6574.159953417978,-0.03193030103127707
6574.160953190192,-0.03251887208814195
6574.161952962408,-0.03310626241185169
6574.162952734623,-0.03369236407333942
6574.163952506839,-0.034277067755764695
6574.164952279054,-0.034860262746921694
6574.165952051269,-0.0354418369329123
6574.166951823484,-0.03602167679312292
6574.167951595699,-0.03659966739654284
6574.168951367915,-0.037175692399461266
6574.16995114013,-0.037749634044578755
6574.170950912346,-0.038321373161567654
6574.17195068456,-0.03889078916911449
6574.172950456776,-0.03945776007847561
6574.173950228991,-0.040022162498575695
6574.174950001207,-0.04058387164267688
6574.175949773422,-0.04114276133664429
6574.176949545637,-0.04169870402883208
6574.177949317852,-0.0422515708016119
6574.178949090067,-0.04280123138456386
6574.179948862283,-0.04334755416934814
6574.180948634498,-0.04389040622627337
6574.181948406714,-0.044429653322576146
6574.182948178928,-0.0449651599424244
6574.183947951144,-0.04549678930865565
6574.184947723359,-0.04602440340625973
6574.185947495575,-0.046547863007614224
6574.18694726779,-0.04706702769947926
6574.187947040005,-0.04758175591175704
6574.18894681222,-0.04809190494802
6574.189946584435,-0.04859733101780947
6574.190946356651,-0.04909788927070532
6574.191946128866,-0.04959343383216484
6574.192945901082,-0.050083817841127615
6574.193945673296,-0.050568893489380554
6574.194945445512,-0.05104851206267605
6574.195945217727,-0.05152252398359352
6574.196944989943,-0.05199077885613311
6574.197944762158,-0.052453125512028215
6574.1989445343725,-0.052909412058761644
6574.199944306588,-0.05335948592926842
6574.200944078803,-0.053803193933306265
6574.201943851019,-0.0542403823104737
6574.202943623234,-0.054670896784853935
6574.20394339545,-0.055094582621261705
6574.204943167664,-0.05551128468306908
6574.20594293988,-0.0559208474915853
6574.206942712095,-0.05632311528696501
6574.207942484311,-0.0567179320906182
6574.208942256526,-0.057105141769094266
6574.20994202874,-0.05748458809941157
6574.210941800956,-0.057856114835802525
6574.211941573171,-0.05821956577784268
6574.212941345387,-0.05857478483993119
6574.213941117602,-0.058921616122087926
6574.214940889817,-0.05925990398203109
6574.215940662032,-0.05958949310849746
6574.216940434248,-0.05991022859576588
6574.217940206463,-0.06022195601934304
6574.218939978679,-0.06052452151276943
6574.219939750894,-0.06081777184550182
6574.220939523108,-0.06110155450182786
6574.221939295324,-0.061375717760766745
6574.222939067539,-0.06164011077690959
6574.223938839755,-0.06189458366215172
6574.22493861197,-0.06213898756826868
6574.225938384185,-0.06237317477028689
6574.2269381564,-0.06259699875059932
6574.227937928616,-0.06281031428377573
6574.228937700831,-0.06301297752201643
6574.229937473046,-0.06320484608119761
6574.230937245262,-0.06338577912745552
6574.231937017476,-0.06355563746425526
6574.232936789692,-0.0637142836198893
6574.233936561907,-0.06386158193534912
6574.234936334123,-0.06399739865251225
6574.235936106338,-0.06412160200258575
6574.236935878553,-0.06423406229474561
6574.237935650768,-0.06433465200491066
6574.238935422984,-0.06442324586458811
6574.239935195199,-0.06449972094972692
6574.240934967414,-0.06456395676951389
6574.24193473963,-0.0646158353550468
6574.242934511844,-0.06465524134781792
6574.24393428406,-0.06468206208794078
6574.244934056275,-0.06469618770205245
6574.245933828491,-0.06469751119082365
6574.246933600706,-0.06468592851600832
6574.247933372921,-0.0646613386869646
6574.248933145136,-0.06462364384657844
6574.249932917352,-0.06457274935652156
6574.250932689567,-0.06450856388177424
6574.251932461782,-0.06443099947434373
6574.252932233998,-0.06433997165610846
6574.253932006212,-0.06423539950071737
6574.254931778428,-0.06411720571447412
6574.255931550643,-0.06398531671613482
6574.256931322859,-0.06383966271554856
6574.257931095074,-0.06368017779106938
6574.258930867289,-0.06350679996566887
6574.259930639504,-0.0633194712816784
6574.26093041172,-0.06311813787409101
6574.261930183935,-0.06290275004235263
6574.26292995615,-0.06267326232057362
6574.263929728365,-0.06242963354609175
6574.26492950058,-0.062171826926319056
6574.265929272796,-0.061899810103805616
6574.266929045011,-0.061613555219454316
6574.267928817227,-0.06131303897382153
6574.268928589442,-0.06099824268643952
6574.269928361657,-0.060669152353097014
6574.270928133872,-0.060325758701015336
6574.271927906088,-0.059968057241857886
6574.272927678303,-0.05959604832251173
6574.273927450518,-0.05920973717358085
6574.274927222733,-0.058809133955531244
6574.275926994948,-0.05839425380242975
6574.276926767164,-0.05796511686321927
6574.277926539379,-0.05752174834047485
6574.278926311595,-0.0570641785265864
6574.279926083809,-0.056592442837316174
6574.280925856025,-0.056106581842680706
6574.28192562824,-0.055606641295109685
6574.282925400456,-0.0550926721548367
6574.283925172671,-0.05456473061247962
6574.284924944886,-0.05402287810877176
6574.285924717101,-0.0534671813514083
6574.286924489316,-0.05289771232897593
6574.287924261532,-0.05231454832193753
6574.288924033747,-0.051717771910647414
6574.289923805963,-0.05110747098037626
6574.290923578177,-0.050483738723328786
6574.291923350393,-0.04984667363764118
6574.292923122608,-0.049196379523348675
6574.293922894824,-0.048532965475317956
6574.294922667039,-0.047856545873142683
6574.295922439254,-0.047167240368004584
6574.296922211469,-0.0464651738665064
6574.297921983684,-0.045750476511487156
6574.2989217559,-0.04502328365983422
6574.299921528115,-0.044283735857310526
6574.300921300331,-0.0435319788104191
6574.301921072545,-0.042768163355331
6574.302920844761,-0.04199244542390637
6574.303920616976,-0.04120498600684201
6574.304920389192,-0.040405951113981944
6574.305920161407,-0.03959551173183084
6574.306919933622,-0.03877384377831236
6574.307919705837,-0.03794112805481669
6574.308919478052,-0.03709755019558277
6574.309919250268,-0.036243300614462105
6574.310919022483,-0.03537857444911177
6574.311918794699,-0.03450357150266499
6574.312918566913,-0.033618496182928184
6574.313918339129,-0.03272355743915405
6574.314918111344,-0.03181896869644038
6574.315917883559,-0.03090494778780502
6574.316917655775,-0.029981716883986993
6574.31791742799,-0.029049502421024453
6574.318917200205,-0.0281085350256596
6574.31991697242,-0.02715904943862083
6574.320916744636,-0.0262012844358322
6574.321916516851,-0.025235482747599857
6574.322916289067,-0.02426189097582504
6574.323916061281,-0.023280759509292877
6574.324915833497,-0.022292342437086044
6574.325915605712,-0.02129689746017192
6574.326915377927,-0.020294685801211534
6574.327915150143,-0.019285972112638074
6574.328914922357,-0.018271024383051993
6574.329914694573,-0.01725011384197897
6574.330914466788,-0.016223514863036033
6574.331914239004,-0.015191504865550093
6574.332914011219,-0.014154364214672017
6574.333913783435,-0.013112376120028107
6574.334913555649,-0.012065826532949693
6574.335913327865,-0.01101500404232023
6574.33691310008,-0.009960199769078169
6574.337912872295,-0.008901707259412667
6574.338912644511,-0.007839822376688248
6574.339912416725,-0.006774843192133524
6574.340912188941,-0.005707069874328395
6574.341911961156,-0.004636804577523613
6574.342911733372,-0.0035643513288263593
6574.343911505587,-0.002490015914285413
6574.344911277802,-0.0014141057639097672
6574.345911050017,-0.00033692983565497303
6574.3469108222325,0.0007412015015879728
6574.347910594448,0.0018199765859657152
6574.348910366663,0.0028990825815614885
6574.349910138879,0.003978205598183217
6574.350909911093,0.005057030812003563
6574.351909683309,0.006135242587014272
6574.352909455524,0.007212524597256794
6574.35390922774,0.00828855994979075
6574.354908999955,0.009363031308361336
6574.35590877217,0.010435621017726193
6574.356908544385,0.011506011228601539
6574.3579083166005,0.012573884023186547
6574.358908088816,0.01363892154122401
6574.359907861031,0.01470080610655421
6574.360907633247,0.015759220354117698
6574.361907405461,0.016813847357361335
6574.362907177677,0.017864370756000315
6574.363906949892,0.018910474884087192
6574.364906722108,0.01995184489833709
6574.365906494323,0.02098816690665631
6574.366906266538,0.022019128096819777
6574.367906038753,0.023044416865240808
6574.3689058109685,0.024063722945775214
6574.369905583184,0.02507673753850005
6574.370905355399,0.026083153438406025
6574.371905127615,0.027082665163941345
6574.372904899829,0.02807496908534347
6574.373904672045,0.029059763552694403
6574.37490444426,0.030036749023634034
6574.375904216476,0.031005628190665158
6574.376903988691,0.031966106107982895
6574.377903760906,0.032917890317760386
6574.378903533121,0.03386069097582183
6574.3799033053365,0.03479422097663309
6574.380903077552,0.03571819607753915
6574.381902849767,0.03663233502217719
6574.382902621983,0.03753635966299278
6574.383902394197,0.038429995082785946
6574.384902166413,0.03931296971521294
6574.385901938628,0.04018501546416842
6574.386901710844,0.041045867821972296
6574.387901483059,0.04189526598628439
6574.388901255274,0.04273295297567008
6574.389901027489,0.043558675743739665
6574.3909007997045,0.044372185291784445
6574.39190057192,0.045173236779832635
6574.392900344135,0.04596158963604897
6574.39390011635,0.04673700766440248
6574.394899888565,0.04749925915052759
6574.395899660781,0.048248116965704566
6574.396899432996,0.04898335866888632
6574.397899205212,0.04970476660669957
6574.398898977427,0.05041212801134928
6574.399898749642,0.05110523509635678
6574.400898521857,0.051783885150062665
6574.401898294072,0.05244788062682749
6574.402898066288,0.053097029235864124
6574.403897838503,0.053731144027637165
6574.404897610718,0.054350043477766175
6574.405897382933,0.05495355156837077
6574.406897155149,0.055541497866797344
6574.407896927364,0.056113717601668875
6574.40889669958,0.05667005173620108
6574.409896471794,0.05721034703873047
6574.41089624401,0.057734456150402354
6574.411896016225,0.05824223764996889
6574.41289578844,0.05873355611565023
6574.413895560656,0.05920828218401424
6574.414895332871,0.05966629260583311
6574.415895105086,0.06010747029887729
6574.416894877301,0.06053170439761021
6574.417894649517,0.06093889029974954
6574.418894421732,0.06132892970966309
6574.419894193948,0.06170173067856996
6574.420893966162,0.06205720764151963
6574.421893738378,0.062395281451124066
6574.422893510593,0.06271587940801972
6574.423893282808,0.06301893528803842
6574.424893055024,0.06330438936606793
6574.425892827239,0.06357218843658483
6574.426892599454,0.06382228583084433
6574.427892371669,0.06405464143071342
6574.428892143885,0.0642692216791358
6574.4298919161,0.06446599958721962
6574.430891688316,0.06464495473794066
6574.43189146053,0.06480607328645673
6574.4328912327455,0.064949347957031
6574.433891004961,0.0650747780365647
6574.434890777176,0.0651823693647421
6574.435890549392,0.06527213432079365
6574.436890321607,0.06534409180688487
6574.437890093822,0.0653982672281419
6574.438889866037,0.06543469246932661
6574.439889638253,0.06545340586817673
6574.440889410468,0.06545445218542888
6574.441889182684,0.06543788257154468
6574.442888954898,0.06540375453016269
6574.4438887271135,0.0653521318783006
6574.444888499329,0.0652830847033346
6574.445888271544,0.06519668931678456
6574.44688804376,0.06509302820493604
6574.447887815975,0.06497218997633163
6574.44888758819,0.06483426930616691
6574.449887360405,0.06467936687762847
6574.450887132621,0.06450758932021344
6574.451886904836,0.06431904914507296
6574.452886677052,0.06411386467742411
6574.453886449266,0.06389215998607764
6574.4548862214815,0.06365406481013099
6574.455885993697,0.06339971448287911
6574.456885765912,0.06312924985299814
6574.457885538128,0.06284281720305936
6574.458885310342,0.06254056816543398
6574.459885082558,0.06222265963565178
6574.460884854773,0.061889253683279126
6574.461884626989,0.06154051746038462
6574.462884399204,0.0611766231076629
6574.46388417142,0.0607977476582893
6574.464883943634,0.06040407293957996
6574.4658837158495,0.059995785472533925
6574.466883488065,0.059573076369334975
6574.46788326028,0.05913614122889285
6574.468883032496,0.058685180030504665
6574.46988280471,0.05822039702571873
6574.470882576926,0.05774200062848437
6574.471882349141,0.05725020330367256
6574.472882121357,0.05674522145405367
6574.473881893572,0.05622727530581959
6574.474881665787,0.05569658879273875
6574.475881438002,0.055153389439033085
6574.4768812102175,0.05459790824106727
6574.477880982433,0.05403037954794064
6574.478880754648,0.05345104094107276
6574.479880526864,0.052860133112873804
6574.480880299078,0.052257899744590684
6574.481880071294,0.051644587383419926
6574.482879843509,0.05102044531897766
6574.483879615725,0.05038572545921627
6574.48487938794,0.049740682205876505
6574.485879160155,0.049085572329562725
6574.48687893237,0.04842065484452737
6574.4878787045855,0.047746190883249766
6574.488878476801,0.04706244357089233
6574.489878249016,0.04636967789971624
6574.490878021232,0.04566816060353684
6574.491877793446,0.04495816003229789
6574.492877565662,0.04423994602684215
6574.493877337877,0.043513789793954656
6574.494877110093,0.042779963781753395
6574.495876882308,0.04203874155550094
6574.496876654523,0.04129039767390885
6574.497876426738,0.0405352075660053
6574.498876198953,0.03977344740863482
6574.499875971169,0.03900539400465729
6574.500875743384,0.03823132466191168
6574.5018755156,0.037451517073008096
6574.502875287814,0.036666249196010026
6574.50387506003,0.03587579913606665
6574.504874832245,0.03508044502805279
6574.505874604461,0.034280464920272334
6574.506874376676,0.0334761366592785
6574.507874148891,0.03266773777586243
6574.508873921106,0.03185554537225943
6574.509873693321,0.03103983601062047
6574.510873465537,0.030220885602794602
6574.511873237752,0.029398969301466456
6574.512873009968,0.028574361392691292
6574.513872782182,0.027747335189868685
6574.514872554398,0.026918162929194658
6574.515872326613,0.026087115666630578
6574.516872098829,0.025254463176425813
6574.517871871044,0.024420473851229765
6574.5188716432585,0.023585414603827588
6574.519871415474,0.02274955077053236
6574.520871187689,0.02191314601626516
6574.521870959905,0.021076462241352997
6574.52287073212,0.020239759490072968
6574.523870504335,0.01940329586096942
6574.52487027655,0.018567327418969215
6574.525870048766,0.01773210810931838
6574.526869820981,0.01689788967336187
6574.527869593197,0.01606492156618629
6574.528869365412,0.015233450876144077
6574.5298691376265,0.014403722246275997
6574.530868909842,0.01357597779764771
6574.531868682057,0.012750457054614727
6574.532868454273,0.011927396872029187
6574.533868226488,0.011107031364400818
6574.534867998703,0.010289591837023555
6574.535867770918,0.009475306719078236
6574.536867543134,0.008664401498720827
6574.537867315349,0.007857098660164496
6574.5388670875645,0.007053617622762734
6574.539866859779,0.006254174682099525
6574.5408666319945,0.005458982953091292
6574.54186640421,0.004668252315104043
6574.542866176425,0.003882189359087662
6574.543865948641,0.0031009973367277462
6574.544865720856,0.002324876111613716
6574.545865493071,0.0015540221124202627
6574.546865265286,0.0007886282880976112
6574.547865037502,2.8884065064568127e-05
6574.548864809717,-0.0007250246936029814
6574.5498645819325,-0.0014729157269965823
6574.550864354147,-0.0022146104132221003
6574.5518641263625,-0.0029499338042791082
6574.552863898578,-0.0036787146589834785
6574.553863670793,-0.004400785473944357
6574.554863443009,-0.00511598251260707
6574.555863215224,-0.005824145832373815
6574.556862987439,-0.006525119309814227
6574.557862759654,-0.007218750663978169
6574.55886253187,-0.00790489147782326
6574.559862304085,-0.008583397217769916
6574.5608620763005,-0.009254127251396922
6574.561861848515,-0.00991694486329086
6574.5628616207305,-0.010571717269063054
6574.563861392946,-0.01121831562754812
6574.564861165161,-0.011856615051198583
6574.565860937377,-0.012486494614690525
6574.566860709592,-0.01310783736175563
6574.567860481807,-0.013720530310255318
6574.568860254022,-0.014324464455513101
6574.569860026238,-0.01491953477192151
6574.570859798453,-0.01550564021284009
6574.5718595706685,-0.016082683708801147
6574.572859342883,-0.016650572164039965
6574.5738591150985,-0.017209216451366378
6574.574858887314,-0.01775853140539458
6574.575858659529,-0.018298435814148233
6574.576858431745,-0.018828852409058128
6574.57785820396,-0.01934970785336983
6574.578857976175,-0.01986093272897899
6574.57985774839,-0.02036246152171233
6574.580857520606,-0.020854232605072652
6574.581857292821,-0.021336188222466527
6574.5828570650365,-0.021808274467933975
6574.583856837251,-0.02227044126539993
6574.584856609466,-0.022722642346468
6574.585856381682,-0.02316483522677765
6574.586856153897,-0.02359698118094673
6574.587855926113,-0.024019045216121995
6574.588855698327,-0.02443099604416091
6574.589855470543,-0.024832806052468456
6574.590855242758,-0.025224451273513252
6574.591855014974,-0.02560591135304764
6574.592854787189,-0.025977169517056597
6574.5938545594045,-0.0263382125374606
6574.594854331619,-0.026689030696597716
6574.595854103834,-0.027029617750510326
6574.59685387605,-0.02735997089106211
6574.597853648265,-0.02768009070691111
6574.598853420481,-0.027989981143365
6574.599853192695,-0.028289649461144928
6574.600852964911,-0.028579106194084793
6574.601852737126,-0.028858365105793378
6574.602852509342,-0.029127443145307522
6574.603852281557,-0.02938636040176541
6574.604852053772,-0.029635140058130092
6574.605851825987,-0.029873808343994532
6574.606851598202,-0.03010239448750044
6574.607851370418,-0.030320930666404282
6574.608851142633,-0.030529451958324783
6574.609850914849,-0.030727996290206967
6574.610850687063,-0.03091660438703843
6574.611850459279,-0.03109531971985412
6574.612850231494,-0.03126418845306615
6574.61385000371,-0.031423259391155686
6574.614849775925,-0.03157258392476423
6574.61584954814,-0.031712215976221945
6574.616849320355,-0.03184221194455092
6574.61784909257,-0.03196263064998179
6574.618848864786,-0.032073533278022114
6574.619848637001,-0.0321749833231153
6574.620848409217,-0.032267046531929224
6574.621848181431,-0.03234979084631361
6574.622847953647,-0.03242328634596596
6574.623847725862,-0.03248760519084584
6574.6248474980775,-0.03254282156337818
6574.625847270293,-0.032589011610486364
6574.626847042508,-0.03262625338549671
6574.627846814723,-0.03265462678995588
6574.628846586938,-0.032674213515403526
6574.629846359154,-0.032685096985142575
6574.630846131369,-0.032687362296049384
6574.631845903585,-0.03268109616046609
6574.632845675799,-0.0326663868482171
6574.633845448015,-0.032643324128791194
6574.63484522023,-0.03261199921373018
6574.6358449924455,-0.03257250469926441
6574.636844764661,-0.032524934509234826
6574.637844536876,-0.03246938383834046
6574.638844309091,-0.032405949095749564
6574.639844081306,-0.032334727849111664
6574.640843853522,-0.032255818769007155
6574.641843625737,-0.03216932157387023
6574.642843397953,-0.03207533697542016
6574.643843170167,-0.03197396662463538
6574.644842942383,-0.03186531305830426
6574.645842714598,-0.0317494796461857
6574.6468424868135,-0.03162657053881221
6574.647842259029,-0.031496690615967333
6574.648842031244,-0.031359945435868404
6574.649841803459,-0.031216441185084536
6574.650841575674,-0.031066284629218593
6574.65184134789,-0.030909583064380446
6574.652841120105,-0.030746444269477313
6574.65384089232,-0.03057697645934546
6574.654840664535,-0.030401288238745775
6574.655840436751,-0.030219488557244198
6574.656840208966,-0.03003168666499635
6574.6578399811815,-0.029837992069454186
6574.658839753397,-0.029638514493010824
6574.659839525612,-0.02943336383159847
6574.660839297827,-0.029222650114252728
6574.661839070042,-0.029006483463655263
6574.662838842258,-0.028784974057665683
6574.663838614473,-0.028558232091852192
6574.664838386688,-0.02832636774302958
6574.665838158903,-0.028089491133812
6574.666837931119,-0.02784771229818712
6574.667837703334,-0.027601141148117053
6574.6688374755495,-0.02734988744117054
6574.669837247764,-0.02709406074918963
6574.670837019979,-0.026833770427992638
6574.671836792195,-0.02656912558811404
6574.67283656441,-0.026300235066580396
6574.673836336626,-0.02602720739971995
6574.674836108841,-0.02575015079700205
6574.675835881056,-0.025469173115901012
6574.676835653271,-0.025184381837777683
6574.677835425487,-0.02489588404477035
6574.678835197702,-0.024603786397685404
6574.6798349699175,-0.024308195114876488
6574.680834742132,-0.024009215952099785
6574.681834514347,-0.02370695418333164
6574.682834286563,-0.023401514582533645
6574.683834058778,-0.023093001406349303
6574.684833830994,-0.022781518377715488
6574.685833603209,-0.022467168670371008
6574.686833375424,-0.02215005489424404
6574.687833147639,-0.021830279081699332
6574.688832919855,-0.02150794267462542
6574.68983269207,-0.02118314651234136
6574.690832464285,-0.020855990820301665
6574.6918322365,-0.020526575199577252
6574.692832008715,-0.020194998617089333
6574.693831780931,-0.0198613593965723
6574.694831553146,-0.01952575521024093
6574.695831325362,-0.019188283071136316
6574.696831097577,-0.018849039326124296
6574.697830869792,-0.01850811964951959
6574.698830642007,-0.01816561903730822
6574.699830414223,-0.017821631801940335
6574.700830186438,-0.017476251567665163
6574.701829958653,-0.017129571266379515
6574.702829730868,-0.016781683133961126
6574.703829503083,-0.016432678707058137
6574.704829275299,-0.01608264882030607
6574.705829047514,-0.015731683603943898
6574.70682881973,-0.015379872481801045
6574.707828591945,-0.015027304169627427
6574.70882836416,-0.014674066673738852
6574.709828136375,-0.014320247289950322
6574.710827908591,-0.013965932602769807
6574.711827680806,-0.013611208484825159
6574.712827453021,-0.01325616009649671
6574.713827225236,-0.012900871885728128
6574.714826997451,-0.012545427587988078
6574.715826769667,-0.012189910226355313
6574.716826541882,-0.011834402111699805
6574.717826314098,-0.011478984842932607
6574.718826086312,-0.011123739307297226
6574.719825858528,-0.010768745680675406
6574.720825630743,-0.010414083427880324
6574.721825402959,-0.010059831302910533
6574.722825175174,-0.009706067349138287
6574.723824947389,-0.009352868899406537
6574.724824719604,-0.009000312576009492
6574.725824491819,-0.008648474290532402
6574.726824264035,-0.00829742924352708
6574.72782403625,-0.007947251924000434
6574.728823808466,-0.007598016108694066
6574.72982358068,-0.007249794861133637
6574.730823352896,-0.006902660530427292
6574.731823125111,-0.00655668474979288
6574.732822897327,-0.006211938434794138
6574.733822669542,-0.0058684917812664
6574.7348224417565,-0.005526414262912746
6574.735822213972,-0.005185774628551993
6574.736821986187,-0.004846640899000332
6574.737821758403,-0.0045090803635689305
6574.738821530618,-0.0041731595761603565
6574.739821302834,-0.0038389443509472014
6574.740821075048,-0.0035064997576169056
6574.741820847264,-0.0031758901161674184
6574.742820619479,-0.0028471789912391274
6574.743820391695,-0.002520429185969371
6574.74482016391,-0.0021957027353568317
6574.7458199361245,-0.0018730608991242034
6574.74681970834,-0.0015525641540685613
6574.747819480555,-0.0012342721858899413
6574.748819252771,-0.000918243880489596
6574.749819024986,-0.0006045373147302825
6574.750818797202,-0.00029320974665172884
6574.751818569416,1.5682394864872892e-05
6574.752818341632,0.0003220835209888536
6574.753818113847,0.0006259388943934068
6574.754817886063,0.0009271946412745123
6574.755817658278,0.0012257977639389904
6574.756817430492,0.0015216961539644993
6574.757817202708,0.0018148386059334927
6574.758816974923,0.0021051748317423057
6574.759816747139,0.0023926554754856084
6574.760816519354,0.0026772321289154706
6574.76181629157,0.0029588573474731606
6574.762816063784,0.003237484666890547
6574.763815836,0.0035130686203565403
6574.764815608215,0.003785564756242359
6574.765815380431,0.004054929656377535
6574.766815152646,0.004321120954866526
6574.76781492486,0.0045840973574335355
6574.768814697076,0.004843818661280814
6574.769814469291,0.005100245775443195
6574.770814241507,0.005353340741619112
6574.771814013722,0.0056030667554556575
6574.772813785938,0.005849388188262484
6574.773813558152,0.006092270609126399
6574.774813330368,0.006331680807395409
6574.775813102583,0.0065675868154976965
6574.776812874798,0.00679995793205752
6574.777812647014,0.007028764745266501
6574.778812419228,0.0072539791564650135
6574.779812191444,0.007475574403884637
6574.780811963659,0.007693525086498794
6574.781811735875,0.007907807187924745
6574.78281150809,0.008118398100316183
6574.783811280305,0.008325276648181784
6574.78481105252,0.00852842311206117
6574.785810824736,0.008727819251986188
6574.786810596951,0.008923448330651984
6574.787810369166,0.009115295136219356
6574.788810141382,0.009303346004667368
6574.789809913596,0.009487588841613102
6574.790809685812,0.009668013143514025
6574.791809458027,0.009844610018167542
6574.792809230243,0.010017372204422099
6574.793809002458,0.010186294091014528
6574.794808774673,0.010351371734449387
6574.795808546888,0.010512602875837654
6574.796808319104,0.010669986956614384
6574.797808091319,0.01082352513305781
6574.798807863534,0.010973220289535719
6574.799807635749,0.011119077050408724
6574.800807407964,0.01126110179052421
6574.80180718018,0.011399302644239086
6574.802806952395,0.011533689512914103
6574.803806724611,0.011664274070827213
6574.804806496826,0.011791069769458347
6574.805806269041,0.011914091840102945
6574.806806041256,0.012033357294776462
6574.807805813472,0.012148884925377077
6574.808805585687,0.01226069530107873
6574.809805357902,0.012368810763931403
6574.810805130117,0.01247325542265032
6574.811804902332,0.012574055144580352
6574.812804674548,0.012671237545826422
6574.813804446763,0.012764831979545033
6574.814804218979,0.012854869522396156
6574.815803991194,0.012941382959158738
6574.816803763409,0.013024406765517018
6574.817803535624,0.013103977089028596
6574.81880330784,0.01318013172828907
6574.819803080055,0.013252910110311825
6574.82080285227,0.013322353266145325
6574.821802624485,0.013388503804753867
6574.8228023967,0.013451405885191075
6574.823802168916,0.013511105187098495
6574.824801941131,0.013567648879564492
6574.825801713347,0.013621085588380962
6574.826801485562,0.013671465361737602
6574.827801257777,0.013718839634395396
6574.828801029992,0.013763261190382712
6574.829800802208,0.01380478412425917
6574.830800574423,0.01384346380099397
6574.831800346638,0.013879356814506997
6574.832800118853,0.01391252094492251
6574.833799891068,0.01394301511458658
6574.834799663284,0.013970899342900736
6574.835799435499,0.013996234700025376
6574.836799207715,0.014019083259507422
6574.83779897993,0.01403950804988756
6574.838798752145,0.01405757300534302
6574.83979852436,0.01407334291542243
6574.840798296576,0.014086883373929656
6574.841798068791,0.01409826072701375
6574.842797841006,0.014107542020522232
6574.843797613221,0.014114794946674905
6574.844797385436,0.014120087790115032
6574.845797157652,0.014123489373394443
6574.846796929867,0.014125069001948685
6574.847796702083,0.014124896408617907
6574.848796474297,0.014123041697768759
6574.849796246513,0.014119575289072294
6574.850796018728,0.01411456786099256
6574.851795790944,0.01410809029404037
6574.852795563159,0.014100213613846696
6574.853795335374,0.014091008934109963
6574.854795107589,0.014080547399471465
6574.855794879804,0.014068900128372969
6574.85679465202,0.014056138155950406
6574.857794424235,0.01404233237701728
6574.858794196451,0.014027553489191054
6574.859793968665,0.014011871936215434
6574.860793740881,0.013995357851530917
6574.861793513096,0.013978081002145438
6574.862793285311,0.013960110732856214
6574.863793057527,0.013941515910873127
6574.864792829741,0.013922364870893078
6574.865792601957,0.013902725360673851
6574.866792374172,0.013882664487154988
6574.867792146388,0.013862248663172278
6574.868791918603,0.013841543554811524
6574.869791690819,0.013820614029446385
6574.870791463033,0.013799524104504279
6574.871791235249,0.013778336897003661
6574.872791007464,0.013757114573905299
6574.873790779679,0.013735918303319458
6574.874790551895,0.013714808206610387
6574.875790324109,0.013693843311438669
6574.876790096325,0.013673081505781413
6574.87778986854,0.013652579492969458
6574.878789640756,0.013632392747779963
6574.879789412971,0.0136125754736219
6574.880789185187,0.013593180560850989
6574.881788957401,0.013574259546249544
6574.882788729617,0.013555862573705474
6574.883788501832,0.013538038356123388
6574.884788274047,0.01352083413859933
6574.885788046263,0.013504295662889222
6574.886787818477,0.013488467133199527
6574.887787590693,0.013473391183327268
6574.888787362908,0.01345910884517502
6574.889787135124,0.013445659518665186
6574.890786907339,0.013433080943076676
6574.891786679555,0.01342140916982591
6574.892786451769,0.013410678536713107
6574.8937862239845,0.013400921643653828
6574.8947859962,0.013392169329914822
6574.895785768415,0.013384450652872183
6574.896785540631,0.013377792868308895
6574.897785312845,0.013372221412267767
6574.898785085061,0.01336775988447471
6574.899784857276,0.01336443003334618
6574.900784629492,0.013362251742593378
6574.901784401707,0.013361243019434567
6574.902784173923,0.013361419984425532
6574.903783946137,0.013362796862916757
6574.9047837183525,0.013365385978144441
6574.905783490568,0.013369197745960876
6574.906783262783,0.013374240671208206
6574.907783034999,0.013380521345737991
6574.908782807213,0.013388044448077566
6574.909782579429,0.013396812744742763
6574.910782351644,0.013406827093195246
6574.91178212386,0.013418086446441463
6574.912781896075,0.013430587859269072
6574.91378166829,0.01344432649611556
6574.914781440505,0.013459295640562616
6574.9157812127205,0.013475486706448677
6574.916780984936,0.013492889250590919
6574.917780757151,0.013511490987106625
6574.918780529367,0.0135312778033227
6574.919780301581,0.01355223377726064
6574.920780073797,0.01357434119668298
6574.921779846012,0.013597580579685766
6574.922779618228,0.013621930696820004
6574.923779390443,0.013647368594723432
6574.924779162658,0.013673869621242151
6574.925778934873,0.013701407452019835
6574.9267787070885,0.013729954118530388
6574.927778479304,0.013759480037528036
6574.928778251519,0.013789954041887079
6574.929778023735,0.013821343412801853
6574.930777795949,0.013853613913315986
6574.931777568165,0.013886729823148593
6574.93277734038,0.013920653974783832
6574.933777112596,0.013955347790789057
6574.934776884811,0.013990771322325695
6574.935776657026,0.014026883288815854
6574.936776429241,0.014063641118726699
6574.9377762014565,0.014101000991433504
6574.938775973672,0.014138917880121398
6574.939775745887,0.014177345595684747
6574.940775518102,0.014216236831582083
6574.941775290317,0.014255543209603545
6574.942775062533,0.014295215326506608
6574.943774834748,0.01433520280147481
6574.944774606964,0.014375454324352947
6574.945774379179,0.014415917704611064
6574.946774151394,0.014456539920988484
6574.947773923609,0.014497267171768052
6574.9487736958245,0.014538044925629988
6574.94977346804,0.014578817973034033
6574.950773240255,0.01461953047807812
6574.95177301247,0.0146601260307815
6574.952772784685,0.014700547699740165
6574.953772556901,0.01474073808510243
6574.954772329116,0.01478063937181267
6574.955772101332,0.014820193383071445
6574.956771873547,0.014859341633960514
6574.957771645762,0.014898025385181594
6574.958771417977,0.01493618569685806
6574.959771190192,0.01497376348234917
6574.960770962408,0.015010699562026802
6574.961770734623,0.015046934716965082
6574.962770506838,0.015082409742493664
6574.963770279053,0.015117065501565706
6574.964770051269,0.015150842977891835
6574.965769823484,0.015183683328791655
6574.9667695957,0.015215527937714602
6574.967769367915,0.015246318466382284
6574.96876914013,0.015275996906504954
6574.969768912345,0.015304505631025226
6574.97076868456,0.015331787444842973
6574.971768456776,0.015357785634976029
6574.972768228991,0.015382444020112284
6574.973768001206,0.015405706999509737
6574.974767773421,0.01542751960120205
6574.975767545637,0.015447827529468234
6574.976767317852,0.015466577211526172
6574.977767090068,0.015483715843410724
6574.978766862282,0.015499191434998186
6574.9797666344975,0.015512952854139984
6574.980766406713,0.01552494986986952
6574.981766178928,0.015535133194647029
6574.982765951144,0.01554345452560832
6574.983765723359,0.015549866584784139
6574.984765495574,0.015554323158257641
6574.985765267789,0.015556779134228356
6574.986765040005,0.015557190539951655
6574.98776481222,0.01555551457752365
6574.988764584436,0.01555170965848232
6574.98976435665,0.015545735437196766
6574.9907641288655,0.01553755284301762
6574.991763901081,0.015527124111162995
6574.992763673296,0.015514412812315737
6574.993763445512,0.015499383880909308
6574.994763217727,0.015482003642081167
6574.995762989942,0.015462239837274069
6574.996762762157,0.0154400616484673
6574.997762534373,0.015415439721021572
6574.998762306588,0.015388346185122716
6574.999762078804,0.015358754675811078
6575.000761851018,0.015326640351584903
6575.0017616232335,0.015291979911567466
6575.002761395449,0.015254751611229016
6575.003761167664,0.015214935276655798
6575.00476093988,0.015172512317359535
6575.005760712094,0.01512746573762184
6575.00676048431,0.015079780146369069
6575.007760256525,0.015029441765574308
6575.008760028741,0.01497643843718435
6575.009759800956,0.014920759628570798
6575.010759573172,0.014862396436505904
6575.011759345386,0.01480134158966506
6575.0127591176015,0.014737589449659489
6575.013758889817,0.014671136010604179
6575.014758662032,0.014601978897227703
6575.015758434248,0.014530117361532096
6575.016758206462,0.0144555522780125
6575.017757978678,0.014378286137447844
6575.018757750893,0.014298323039275286
6575.019757523109,0.014215668682562627
6575.020757295324,0.014130330355594311
6575.02175706754,0.01404231692408791
6575.022756839754,0.013951638818059303
6575.0237566119695,0.013858308017355752
6575.024756384185,0.013762338035877125
6575.0257561564,0.013663743904506425
6575.026755928616,0.013562542152771596
6575.02775570083,0.013458750789261507
6575.028755473046,0.013352389280819846
6575.029755245261,0.01324347853054164
6575.030755017477,0.013132040854598221
6575.031754789692,0.01301809995791758
6575.032754561908,0.01290168090874828
6575.033754334122,0.012782810112136325
6575.0347541063375,0.012661515282345622
6575.035753878553,0.012537825414253833
6575.036753650768,0.012411770753756417
6575.037753422984,0.012283382767212712
6575.038753195198,0.012152694109968769
6575.039752967414,0.012019738593992378
6575.040752739629,0.01188455115465645
6575.041752511845,0.011747167816707428
6575.04275228406,0.011607625659455749
6575.043752056275,0.011465962781225653
6575.04475182849,0.01132221826310179
6575.045751600705,0.011176432132010038
6575.046751372921,0.011028645323170038
6575.047751145136,0.010878899641956966
6575.048750917352,0.01072723772521017
6575.049750689566,0.010573703002026489
6575.050750461782,0.010418339654076384
6575.051750233997,0.01026119257548139
6575.052750006213,0.010102307332291751
6575.053749778428,0.009941730121603577
6575.054749550643,0.009779507730355281
6575.055749322858,0.009615687493843401
6575.056749095073,0.00945031725399826
6575.057748867289,0.009283445317460216
6575.058748639504,0.009115120413497428
6575.05974841172,0.008945391651806236
6575.060748183934,0.008774308480235285
6575.06174795615,0.008601920642474515
6575.062747728365,0.008428278135749886
6575.063747500581,0.008253431168564421
6575.064747272796,0.008077430118525556
6575.0657470450105,0.007900325490298189
6575.066746817226,0.007722167873722097
6575.067746589441,0.007543007902131645
6575.068746361657,0.007362896210915032
6575.069746133872,0.0071818833963496805
6575.070745906087,0.007000019974749833
6575.071745678302,0.006817356341961976
6575.072745450518,0.006633942733243285
6575.073745222733,0.006449829183557902
6575.074744994949,0.006265065488325474
6575.075744767164,0.006079701164655947
6575.0767445393785,0.0058937854131041936
6575.077744311594,0.005707367079977574
6575.078744083809,0.005520494620228986
6575.079743856025,0.005333216060967465
6575.08074362824,0.005145578965617725
6575.081743400455,0.0049576303987593495
6575.08274317267,0.004769416891675457
6575.083742944886,0.0045809844086397615
6575.084742717101,0.004392378313969811
6575.0857424893165,0.0042036433398730585
6575.086742261532,0.004014823555111218
6575.0877420337465,0.0038259623345071755
6575.088741805962,0.0036371023293176245
6575.089741578177,0.0034482854384935355
6575.090741350393,0.0032595527808496018
6575.091741122608,0.003070944668162947
6575.092740894823,0.0028825005792205397
6575.093740667038,0.002694259134833943
6575.094740439254,0.0025062580738392133
6575.095740211469,0.0023185342300989123
6575.0967399836845,0.002131123510522337
6575.0977397559,0.0019440608741191528
6575.0987395281145,0.0017573803121006932
6575.09973930033,0.0015711148290422213
6575.100739072545,0.0013852964251184234
6575.101738844761,0.0011999560794233122
6575.102738616976,0.0010151237343845342
6575.103738389191,0.0008308282812807823
6575.104738161406,0.0006470975468696427
6575.105737933622,0.0004639582811317848
6575.106737705837,0.0002814361461359885
6575.1077374780525,9.955570602813737e-05
6575.108737250267,-8.16595818539676e-05
6575.1097370224825,-0.0002621873747392884
6575.110736794698,-0.0004420064510560941
6575.111736566913,-0.0006210967159396867
6575.112736339129,-0.000799439205617488
6575.113736111344,-0.0009770160906744673
6575.114735883559,-0.0011538106782026476
6575.115735655774,-0.0013298074128391666
6575.11673542799,-0.001504991876698097
6575.117735200205,-0.0016793507882019404
6575.1187349724205,-0.0018528719998194246
6575.119734744635,-0.0020255444947169434
6575.1207345168505,-0.002197358382331727
6575.121734289066,-0.002368304892875633
6575.122734061281,-0.0025383763707793375
6575.123733833497,-0.002707566267087692
6575.124733605712,-0.0028758691308180665
6575.125733377927,-0.003043280599294591
6575.126733150142,-0.003209797387472322
6575.127732922358,-0.0033754172762663673
6575.128732694573,-0.0035401390999019464
6575.1297324667885,-0.0037039627323021736
6575.130732239003,-0.003866889072531041
6575.131732011218,-0.004028920029309636
6575.132731783434,-0.004190058504624151
6575.133731555649,-0.0043503083764446625
6575.134731327865,-0.004509674480574127
6575.135731100079,-0.004668162591647431
6575.136730872295,-0.004825779403300848
6575.13773064451,-0.004982532507532763
6575.138730416726,-0.005138430373277045
6575.139730188941,-0.00529348232421109
6575.1407299611565,-0.005447698515821096
6575.141729733371,-0.005601089911747825
6575.142729505586,-0.005753668259436757
6575.143729277802,-0.0059054460651173256
6575.144729050017,-0.006056436568136738
6575.145728822233,-0.006206653714674675
6575.146728594447,-0.006356112130865989
6575.147728366663,-0.006504827095359238
6575.148728138878,-0.0066528145113394655
6575.149727911094,-0.006800090878044071
6575.150727683309,-0.0069466732618009815
6575.151727455524,-0.007092579266618432
6575.152727227739,-0.0072378270043557905
6575.153726999954,-0.007382435064504797
6575.15472677217,-0.007526422483610515
6575.155726544385,-0.0076698087143611616
6575.156726316601,-0.007812613594375841
6575.157726088815,-0.007954857314719036
6575.158725861031,-0.008096560388170521
6575.159725633246,-0.008237743617279188
6575.160725405462,-0.008378428062229082
6575.161725177677,-0.00851863500854579
6575.162724949892,-0.008658385934671263
6575.163724722107,-0.008797702479435074
6575.164724494322,-0.00893660640945014
6575.165724266538,-0.009075119586460973
6575.166724038753,-0.009213263934672568
6575.167723810969,-0.009351061408088
6575.168723583183,-0.009488533957882753
6575.169723355399,-0.009625703499843551
6575.170723127614,-0.009762591881899157
6575.17172289983,-0.00989922085177005
6575.172722672045,-0.010035612024763307
6575.17372244426,-0.010171786851738288
6575.174722216475,-0.010307766587267958
6575.17572198869,-0.010443572258019862
6575.176721760906,-0.01057922463138001
6575.177721533121,-0.010714744184342187
6575.178721305337,-0.01085015107268453
6575.179721077551,-0.010985465100454573
6575.180720849767,-0.011120705689783355
6575.181720621982,-0.011255891851048763
6575.1827203941975,-0.0113910421534079
6575.183720166413,-0.0115261746957179
6575.184719938628,-0.011661307077864466
6575.185719710843,-0.01179645637251727
6575.186719483058,-0.01193163909733117
6575.187719255274,-0.01206687118761207
6575.188719027489,-0.012202167969466137
6575.189718799705,-0.012337544133450807
6575.190718571919,-0.012473013708745715
6575.191718344135,-0.012608590037861332
6575.19271811635,-0.012744285751902609
6575.1937178885655,-0.0128801127464045
6575.194717660781,-0.013016082157755732
6575.195717432996,-0.013152204340226762
6575.196717205211,-0.013288488843617337
6575.197716977426,-0.013424944391538744
6575.198716749642,-0.013561578860345359
6575.199716521857,-0.013698399258729744
6575.200716294072,-0.013835411707995167
6575.201716066287,-0.013972621423019072
6575.202715838503,-0.01411003269392083
6575.203715610718,-0.014247648868446967
6575.2047153829335,-0.014385472335087048
6575.205715155149,-0.014523504506933342
6575.206714927364,-0.0146617458062973
6575.207714699579,-0.014800195650095665
6575.208714471794,-0.014938852436018498
6575.20971424401,-0.015077713529490765
6575.210714016225,-0.015216775251438226
6575.21171378844,-0.015356032866867335
6575.212713560655,-0.015495480574267678
6575.213713332871,-0.015635111495844393
6575.214713105086,-0.015774917668586828
6575.2157128773015,-0.015914890036178624
6575.216712649517,-0.016055018441753423
6575.217712421731,-0.016195291621499366
6575.218712193947,-0.016335697199114554
6575.219711966162,-0.016476221681114605
6575.220711738378,-0.016616850452992306
6575.221711510593,-0.01675756777622824
6575.222711282808,-0.016898356786150075
6575.223711055023,-0.017039199490637136
6575.224710827239,-0.017180076769665664
6575.225710599454,-0.017320968375689187
6575.2267103716695,-0.01746185293484723
6575.227710143885,-0.0176027079489945
6575.228709916099,-0.017743509798541515
6575.229709688315,-0.01788423374609667
6575.23070946053,-0.018024853940898474
6575.231709232746,-0.018165343424025905
6575.232709004961,-0.018305674134373826
6575.233708777176,-0.018445816915379727
6575.234708549391,-0.018585741522487386
6575.235708321607,-0.018725416631332478
6575.236708093822,-0.018864809846634738
6575.237707866037,-0.01900388771178092
6575.238707638252,-0.019142615719082445
6575.239707410467,-0.019280958320691485
6575.240707182683,-0.01941887894015915
6575.241706954898,-0.019556339984619368
6575.242706727114,-0.019693302857582286
6575.243706499329,-0.01982972797232123
6575.244706271544,-0.019965574765837636
6575.245706043759,-0.02010080171338887
6575.246705815975,-0.020235366343564168
6575.24770558819,-0.020369225253894518
6575.248705360405,-0.020502334126982602
6575.24970513262,-0.020634647747139124
6575.250704904835,-0.020766120017512067
6575.251704677051,-0.020896703977695507
6575.252704449266,-0.021026351821804557
6575.253704221482,-0.021155014917003098
6575.254703993697,-0.02128264382247077
6575.255703765912,-0.021409188308795686
6575.256703538127,-0.021534597377779324
6575.257703310343,-0.021658819282639876
6575.258703082558,-0.021781801548600432
6575.259702854773,-0.021903490993848408
6575.260702626988,-0.022023833750852612
6575.261702399203,-0.02214277528802472
6575.262702171419,-0.02226026043171213
6575.263701943634,-0.022376233388509803
6575.26470171585,-0.022490637767879105
6575.265701488064,-0.022603416605062442
6575.26670126028,-0.02271451238428318
6575.267701032495,-0.022823867062221045
6575.268700804711,-0.02293142209175389
6575.269700576926,-0.023037118445957107
6575.270700349141,-0.02314089664235271
6575.271700121356,-0.02324269676740035
6575.272699893571,-0.02334245850122287
6575.273699665787,-0.02344012114255937
6575.274699438002,-0.02353562363393901
6575.275699210218,-0.02362890458706908
6575.276698982432,-0.02371990230843094
6575.277698754648,-0.023808554825077797
6575.278698526863,-0.02389479991062833
6575.279698299079,-0.02397857511145055
6575.280698071294,-0.02405981777303043
6575.281697843509,-0.024138465066520252
6575.282697615724,-0.024214454015461934
6575.283697387939,-0.02428772152268106
6575.284697160155,-0.024358204397348045
6575.28569693237,-0.02442583938220308
6575.286696704586,-0.02449056318094238
6575.2876964768,-0.024552312485763575
6575.288696249016,-0.02461102400506841
6575.289696021231,-0.024666634491321282
6575.290695793447,-0.024719080769062124
6575.291695565662,-0.024768299763072068
6575.292695337877,-0.024814228526690088
6575.293695110092,-0.024856804270278473
6575.294694882307,-0.02489596438983456
6575.295694654523,-0.024931646495745686
6575.296694426738,-0.024963788441683937
6575.297694198954,-0.024992328353636604
6575.298693971168,-0.025017204659067965
6575.299693743384,-0.025038356116207357
6575.300693515599,-0.02505572184345815
6575.301693287815,-0.025069241348921703
6575.30269306003,-0.02507885456003008
6575.303692832244,-0.02508450185328101
6575.30469260446,-0.025086124084068337
6575.305692376675,-0.025083662616600836
6575.306692148891,-0.025077059353902094
6575.307691921106,-0.02506625676788359
6575.308691693322,-0.02505119792948265
6575.309691465536,-0.025031826538856262
6575.310691237752,-0.025008086955620713
6575.311691009967,-0.024979924229126156
6575.312690782183,-0.024947284128753956
6575.313690554398,-0.024910113174223616
6575.314690326612,-0.02486835866589483
6575.315690098828,-0.024821968715049162
6575.316689871043,-0.024770892274134947
6575.317689643259,-0.024715079166957966
6575.318689415474,-0.02465448011880001
6575.31968918769,-0.0245890467864467
6575.320688959904,-0.024518731788105423
6575.32168873212,-0.02444348873319411
6575.322688504335,-0.02436327225198142
6575.323688276551,-0.024278038025058974
6575.324688048766,-0.024187742812626555
6575.32568782098,-0.0240923444835716
6575.326687593196,-0.02399180204432482
6575.327687365411,-0.02388607566747422
6575.328687137627,-0.023775126720120374
6575.329686909842,-0.023658917791956065
6575.330686682057,-0.023537412723053958
6575.331686454272,-0.023410576631345957
6575.332686226488,-0.023278375939778266
6575.333685998703,-0.02314077840312622
6575.334685770918,-0.022997753134453163
6575.335685543134,-0.022849270631197675
6575.336685315348,-0.02269530280087379
6575.337685087564,-0.022535822986369004
6575.338684859779,-0.0223708059908251
6575.339684631995,-0.022200228102087202
6575.34068440421,-0.02202406711670655
6575.341684176425,-0.02184230236348307
6575.34268394864,-0.021654914726534347
6575.343683720856,-0.02146188666787791
6575.344683493071,-0.0212632022495148
6575.345683265286,-0.021058847155002884
6575.346683037502,-0.020848808710509193
6575.347682809716,-0.02063307590533131
6575.348682581932,-0.020411639411878374
6575.349682354147,-0.020184491605102755
6575.350682126363,-0.01995162658137379
6575.351681898578,-0.019713040176785244
6575.352681670793,-0.019468729984888224
6575.353681443008,-0.019218695373841434
6575.354681215224,-0.018962937502970564
6575.355680987439,-0.01870145933872861
6575.356680759654,-0.018434265670048907
6575.35768053187,-0.018161363123082676
6575.358680304084,-0.017882760175312918
6575.3596800763,-0.017598467169036517
6575.360679848515,-0.017308496324206602
6575.361679620731,-0.017012861750627436
6575.362679392946,-0.016711579459494398
6575.363679165161,-0.016404667374272063
6575.364678937376,-0.01609214534090389
6575.365678709592,-0.01577403513734761
6575.366678481807,-0.015450360482430921
6575.367678254022,-0.015121147044022658
6575.368678026237,-0.014786422446515101
6575.369677798452,-0.014446216277613336
6575.370677570668,-0.014100560094427844
6575.371677342883,-0.013749487428866565
6575.372677115099,-0.013393033792322697
6575.373676887314,-0.01303123667965434
6575.374676659529,-0.012664135572452098
6575.375676431744,-0.012291771941590578
6575.37667620396,-0.011914189249059695
6575.377675976175,-0.011531432949071555
6575.37867574839,-0.011143550488438732
6575.379675520605,-0.010750591306219632
6575.38067529282,-0.010352606832626671
6575.381675065036,-0.009949650487193045
6575.382674837251,-0.009541777676193984
6575.383674609467,-0.009129045789318672
6575.384674381682,-0.008711514195589349
6575.385674153897,-0.008289244238524549
6575.386673926112,-0.00786229923054391
6575.387673698328,-0.00743074444661242
6575.388673470543,-0.006994647117122311
6575.389673242758,-0.006554076420011037
6575.390673014973,-0.006109103472113953
6575.391672787188,-0.005659801319750365
6575.392672559404,-0.005206244928541616
6575.393672331619,-0.004748511172459846
6575.394672103835,-0.004286678822106
6575.395671876049,-0.003820828532215579
6575.396671648265,-0.003351042828390637
6575.39767142048,-0.002877406093056497
6575.398671192696,-0.002400004550641724
6575.399670964911,-0.0019189262519800033
6575.400670737126,-0.0014342610579327634
6575.401670509341,-0.0009461006222316908
6575.402670281556,-0.0004545383735406947
6575.403670053772,4.0330503262572534e-05
6575.404669825987,0.0005384090865849042
6575.405669598203,0.0010395987383940305
6575.406669370417,0.0015437991252713384
6575.407669142633,0.0020509082402381403
6575.408668914848,0.002560822425352287
6575.409668687064,0.0030734363950714887
6575.410668459279,0.0035886432603793607
6575.411668231494,0.0041063345536699325
6575.412668003709,0.0046264002543861095
6575.413667775924,0.005148728815407354
6575.41466754814,0.005673207190181604
6575.415667320355,0.006199720860596198
6575.416667092571,0.0067281538655822
6575.417666864785,0.007258388830446198
6575.418666637001,0.007790306996923153
6575.419666409216,0.008323788253943457
6575.420666181431,0.008858711169106775
6575.421665953647,0.009394953020854673
6575.422665725862,0.009932389831333295
6575.423665498077,0.010470896399936577
6575.424665270292,0.011010346337519586
6575.425665042508,0.011550612101270613
6575.426664814723,0.012091565030229671
6575.427664586939,0.012633075381440059
6575.428664359153,0.013175012366718801
6575.429664131369,0.013717244190031013
6575.430663903584,0.014259638085452593
6575.431663675799,0.014802060355705141
6575.432663448015,0.015344376411246738
6575.433663220229,0.01588645080990187
6575.434662992445,0.01642814729701359
6575.43566276466,0.016969328846100872
6575.436662536876,0.017509857700003982
6575.437662309091,0.01804959541250048
6575.438662081307,0.018588402890374327
6575.439661853521,0.019126140435920425
6575.4406616257365,0.019662667789866518
6575.441661397952,0.020197844174694186
6575.442661170167,0.020731528338340192
6575.443660942383,0.021263578598259055
6575.444660714597,0.021793852885827043
6575.445660486813,0.02232220879106729
6575.446660259028,0.022848503607675232
6575.447660031244,0.02337259437832292
6575.448659803459,0.023894337940220493
6575.449659575675,0.02441359097091267
6575.450659347889,0.024930210034288053
6575.4516591201045,0.02544405162677894
6575.45265889232,0.025954972223729427
6575.453658664535,0.0264628283259097
6575.454658436751,0.026967476506154747
6575.455658208965,0.027468773456105915
6575.456657981181,0.027966576033034037
6575.457657753396,0.02846074130672315
6575.458657525612,0.028951126606394092
6575.459657297827,0.029437589567647544
6575.460657070042,0.029919988179406276
6575.461656842257,0.030398180830836362
6575.4626566144725,0.03087202635822727
6575.463656386688,0.031341384091810476
6575.464656158903,0.031806113902496026
6575.465655931119,0.03226607624850616
6575.466655703333,0.03272113222188464
6575.467655475549,0.03317114359486038
6575.468655247764,0.03361597286604363
6575.46965501998,0.03405548330643304
6575.470654792195,0.03448953900521218
6575.47165456441,0.03491800491531406
6575.472654336625,0.035340746898733254
6575.4736541088405,0.035757631771564914
6575.474653881056,0.03616852734875141
6575.475653653271,0.03657330248851723
6575.476653425487,0.0369718271364737
6575.477653197701,0.03736397236937565
6575.478652969917,0.03774961043851255
6575.479652742132,0.03812861481271696
6575.480652514348,0.038500860220973813
6575.481652286563,0.03886622269461406
6575.482652058778,0.03922457960907657
6575.483651830993,0.03957580972522231
6575.4846516032085,0.03991979323018457
6575.485651375424,0.04025641177773921
6575.486651147639,0.040585548528178673
6575.487650919855,0.04090708818767354
6575.488650692069,0.041220917047105864
6575.489650464285,0.04152692302035862
6575.4906502365,0.0418249956820463
6575.491650008716,0.042115026304672336
6575.492649780931,0.04239690789519987
6575.493649553146,0.0426705352310233
6575.494649325361,0.04293580489532883
6575.4956490975765,0.043192615311833174
6575.496648869792,0.0434408667788904
6575.497648642007,0.04368046150295786
6575.498648414222,0.04391130363141277
6575.499648186437,0.04413329928471192
6575.500647958653,0.044346356587887756
6575.501647730868,0.044550385701374415
6575.502647503084,0.044745298851158126
6575.503647275299,0.044931010358246586
6575.504647047514,0.04510743666745233
6575.505646819729,0.04527449637548527
6575.506646591944,0.04543211025834996
6575.50764636416,0.045580201298043126
6575.508646136375,0.04571869470854793
6575.50964590859,0.04584751796112132
6575.510645680805,0.045966600808871834
6575.511645453021,0.04607587531062582
6575.512645225236,0.046175275854080836
6575.513644997452,0.04626473917824623
6575.514644769667,0.04634420439517138
6575.515644541882,0.046413613010963195
6575.516644314097,0.046472908946095515
6575.517644086312,0.04652203855501381
6575.518643858528,0.04656095064503936
6575.519643630743,0.04658959649457812
6575.520643402958,0.04660792987063985
6575.521643175173,0.04661590704567405
6575.522642947389,0.04661348681372942
6575.523642719604,0.04660063050594418
6575.52464249182,0.046577302005374674
6575.525642264034,0.04654346776116992
6575.5266420362495,0.04649909680209968
6575.527641808465,0.046444160749444165
6575.52864158068,0.046378633829253176
6575.529641352896,0.046302492883982964
6575.530641125111,0.04621571738351925
6575.531640897326,0.046118289435595206
6575.532640669541,0.046010193795613746
6575.533640441757,0.04589141787588369
6575.534640213972,0.04576195175428013
6575.535639986188,0.045621788182339626
6575.536639758402,0.045470922592801714
6575.5376395306175,0.04530935310660806
6575.538639302833,0.04513708053937175
6575.539639075048,0.04495410840732894
6575.540638847264,0.0447604429327855
6575.541638619479,0.04455609304907149
6575.542638391694,0.044341070405016135
6575.543638163909,0.044115389368955836
6575.544637936125,0.043879067032287375
6575.54563770834,0.04363212321257828
6575.546637480556,0.04337458045624559
6575.54763725277,0.043106464040813974
6575.5486370249855,0.04282780197676372
6575.549636797201,0.04253862500897887
6575.550636569416,0.04223896661780541
6575.551636341632,0.04192886301972942
6575.552636113847,0.04160835316768513
6575.553635886062,0.04127747875100243
6575.554635658277,0.04093628419500395
6575.555635430493,0.04058481666026113
6575.556635202708,0.04022312604151917
6575.557634974924,0.039851264966299926
6575.558634747138,0.0394692887931923
6575.5596345193535,0.039077255609838685
6575.560634291569,0.03867522623062598
6575.561634063784,0.038263264194088785
6575.562633836,0.03784143576003168
6575.563633608214,0.03740980990637629
6575.56463338043,0.036968458325737474
6575.565633152645,0.03651745542173137
6575.566632924861,0.03605687830501599
6575.567632697076,0.035586806789063355
6575.568632469292,0.03510732338565971
6575.569632241506,0.03461851330012859
6575.5706320137215,0.03412046442626905
6575.571631785937,0.03361326734099926
6575.572631558152,0.033097015298693265
6575.573631330368,0.03257180422519609
6575.574631102582,0.032037732711499664
6575.575630874798,0.03149490200705934
6575.576630647013,0.03094341601272733
6575.577630419229,0.030383381273276756
6575.578630191444,0.029814906969486302
6575.57962996366,0.02923810490975237
6575.580629735874,0.028653089521192273
6575.5816295080895,0.028059977840198674
6575.582629280305,0.02745888950240217
6575.58362905252,0.026849946731995613
6575.584628824736,0.026233274330370756
6575.58562859695,0.025608999664014698
6575.586628369166,0.02497725265161109
6575.587628141381,0.02433816575028869
6575.588627913597,0.023691873940958157
6575.589627685812,0.02303851471267657
6575.590627458027,0.02237822804597847
6575.591627230242,0.02171115639511218
6575.592627002457,0.021037444669120584
6575.593626774673,0.020357240211706696
6575.594626546888,0.019670692779826048
6575.595626319104,0.01897795452095027
6575.596626091318,0.018279179948949002
6575.597625863534,0.01757452591854041
6575.598625635749,0.016864151598264005
6575.599625407965,0.016148218441932972
6575.60062518018,0.015426890158527072
6575.601624952395,0.01470033268049092
6575.60262472461,0.01396871413040654
6575.603624496825,0.013232204786013118
6575.604624269041,0.01249097704355113
6575.605624041256,0.011745205379412198
6575.606623813472,0.010995066310080306
6575.607623585686,0.01024073835035426
6575.608623357902,0.009482401969845579
6575.609623130117,0.00872023954775025
6575.610622902333,0.00795443532589689
6575.611622674548,0.007185175360077931
6575.6126224467625,0.006412647469674491
6575.613622218978,0.005637041185589378
6575.614621991193,0.004858547696506576
6575.615621763409,0.004077359793499287
6575.616621535624,0.003293671813012414
6575.61762130784,0.0025076795782490893
6575.618621080054,0.0017195803389945421
6575.61962085227,0.0009295727099141093
6575.620620624485,0.00013785660736548343
6575.621620396701,-0.0006553668152317764
6575.622620168916,-0.001449895233423891
6575.6236199411305,-0.002245525219099952
6575.624619713346,-0.003042052309169022
6575.625619485561,-0.0038392710754864483
6575.626619257777,-0.004636975195977542
6575.627619029992,-0.005434957526905916
6575.628618802207,-0.006233010176233077
6575.629618574422,-0.007030924578015213
6575.630618346638,-0.007828491567782526
6575.631618118853,-0.008625501458845903
6575.632617891069,-0.009421744119475219
6575.633617663284,-0.010217009050893101
6575.6346174354985,-0.011011085466027668
6575.635617207714,-0.011803762368967442
6575.636616979929,-0.012594828635061506
6575.637616752145,-0.013384073091607843
6575.63861652436,-0.014171284599072775
6575.639616296575,-0.014956252132784382
6575.64061606879,-0.015738764865042908
6575.641615841006,-0.01651861224759122
6575.642615613221,-0.01729558409438871
6575.6436153854365,-0.018069470664632326
6575.644615157652,-0.018840062745968937
6575.6456149298665,-0.01960715173784381
6575.646614702082,-0.02037052973493048
6575.647614474297,-0.02112998961058788
6575.648614246513,-0.02188532510029111
6575.649614018728,-0.02263633088498257
6575.650613790943,-0.023382802674290513
6575.651613563158,-0.02412453728956217
6575.652613335374,-0.024861332746658905
6575.653613107589,-0.025592988338460985
6575.6546128798045,-0.026319304717029625
6575.655612652019,-0.02704008397537434
6575.6566124242345,-0.02775512972877382
6575.65761219645,-0.028464247195598837
6575.658611968665,-0.0291672432775861
6575.659611740881,-0.02986392663951238
6575.660611513096,-0.030554107788218883
6575.661611285311,-0.031237599150936282
6575.662611057526,-0.03191421515286178
6575.663610829742,-0.03258377229394035
6575.664610601957,-0.03324608922480339
6575.6656103741725,-0.03390098682181918
6575.666610146387,-0.03454828826121056
6575.6676099186025,-0.035187819092196496
6575.668609690818,-0.03581940730911547
6575.669609463033,-0.03644288342248921
6575.670609235249,-0.03705808052898691
6575.671609007464,-0.03766483438025035
6575.672608779679,-0.03826298345054184
6575.673608551894,-0.038852369003177345
6575.67460832411,-0.0394328351557085
6575.675608096325,-0.04000422894381769
6575.6766078685405,-0.04056640038389169
6575.677607640755,-0.04111920253424022
6575.67860741297,-0.04166249155492693
6575.679607185186,-0.04219612676618136
6575.680606957401,-0.04271997070536165
6575.681606729617,-0.04323388918243885
6575.682606501832,-0.04373775133397536
6575.683606274047,-0.0442314296755707
6575.684606046262,-0.044714800152750055
6575.685605818478,-0.045187742190271794
6575.686605590693,-0.04565013873983202
6575.6876053629085,-0.04610187632614552
6575.688605135123,-0.04654284509138346
6575.689604907338,-0.04697293883794963
6575.690604679554,-0.04739205506957773
6575.691604451769,-0.047800095030733195
6575.692604223985,-0.04819696374430377
6575.693603996199,-0.04858257004756358
6575.694603768415,-0.04895682662639629
6575.69560354063,-0.049319650047763536
6575.696603312846,-0.04967096079040545
6575.697603085061,-0.05001068327376112
6575.6986028572765,-0.05033874588509733
6575.699602629491,-0.05065508100483476
6575.700602401706,-0.050959625030061684
6575.701602173922,-0.05125231839622632
6575.702601946137,-0.0515331055969996
6575.703601718353,-0.0518019352023016
6575.704601490567,-0.05205875987448601
6575.705601262783,-0.05230353638267808
6575.706601034998,-0.052536225615263124
6575.707600807214,-0.05275679259052329
6575.708600579429,-0.052965206465422
6575.709600351644,-0.05316144054253597
6575.710600123859,-0.0533454722751356
6575.711599896074,-0.05351728327041532
6575.71259966829,-0.0536768592908758
6575.713599440505,-0.053824190253860704
6575.714599212721,-0.053959270229250775
6575.715598984935,-0.05408209743531905
6575.716598757151,-0.05419267423275102
6575.717598529366,-0.05429100711683459
6575.718598301582,-0.05437710670782491
6575.719598073797,-0.05445098773949022
6575.720597846012,-0.05451266904584556
6575.721597618227,-0.054562173546081824
6575.722597390442,-0.05459952822769895
6575.723597162658,-0.0546247641278531
6575.724596934873,-0.05463791631292871
6575.725596707089,-0.05463902385634774
6575.726596479303,-0.05462812981462987
6575.727596251519,-0.05460528120171846
6575.728596023734,-0.05457052896158801
6575.7295957959495,-0.05452392793915057
6575.730595568165,-0.054465536849478934
6575.73159534038,-0.05439541824536546
6575.732595112595,-0.05431363848323625
6575.73359488481,-0.05422026768744089
6575.734594657026,-0.05411537971293872
6575.735594429241,-0.05399905210640339
6575.736594201457,-0.05387136606576831
6575.737593973671,-0.05373240639823591
6575.738593745887,-0.05358226147677494
6575.739593518102,-0.053421023195130465
6575.7405932903175,-0.0532487869213722
6575.741593062533,-0.05306565145000766
6575.742592834748,-0.05287171895268769
