Time,Filtered_ECG
6804.623739811049,-0.005262845221369578
6804.624739582971,-0.005211549992276508
6804.625739354894,-0.005159728509291951
6804.626739126817,-0.0051073851441564705
6804.62773889874,-0.0050545244324633
6804.628738670663,-0.0050011510737434815
6804.629738442585,-0.00494726993150107
6804.630738214508,-0.004892886033198037
6804.63173798643,-0.0048380045701884545
6804.632737758354,-0.004782630897601452
6804.633737530276,-0.004726770534172382
6804.634737302199,-0.00467042916202151
6804.635737074122,-0.004613612626379483
6804.636736846044,-0.004556326935258667
6804.637736617968,-0.004498578259069401
6804.63873638989,-0.00444037293018008
6804.639736161813,-0.004381717442419987
6804.640735933735,-0.004322618450523714
6804.641735705658,-0.004263082769516102
6804.642735477581,-0.0042031173740366785
6804.643735249504,-0.004142729397602706
6804.644735021427,-0.004081926131810116
6804.645734793349,-0.004020715025471737
6804.646734565272,-0.0039591036836923495
6804.647734337194,-0.0038970998668802137
6804.648734109118,-0.003834711489694791
6804.64973388104,-0.0037719466199304646
6804.650733652963,-0.003708813477336084
6804.651733424886,-0.0036453204323702326
6804.652733196808,-0.003581476004892096
6804.653732968731,-0.003517288862787827
6804.654732740654,-0.003452767820532297
6804.655732512577,-0.003387921837686114
6804.656732284499,-0.0033227600173277843
6804.657732056422,-0.0032572916044208795
6804.658731828345,-0.0031915259841160874
6804.659731600268,-0.003125472679988017
6804.660731372191,-0.003059141352206664
6804.661731144113,-0.002992541795643429
6804.662730916036,-0.0029256839379115914
6804.663730687958,-0.002858577837341132
6804.664730459882,-0.0027912336808877565
6804.665730231804,-0.0027236617819759506
6804.666730003727,-0.00265587257827583
6804.66772977565,-0.0025878766294135467
6804.668729547572,-0.0025196846146150007
6804.669729319496,-0.0024513073302826443
6804.670729091418,-0.0023827556875052037
6804.671728863341,-0.0023140407095002206
6804.672728635263,-0.002245173528989373
6804.673728407186,-0.0021761653855066
6804.674728179109,-0.002107027622639123
6804.675727951032,-0.0020377716852015295
6804.676727722955,-0.001968409116343155
6804.677727494877,-0.0018989515545890492
6804.6787272668,-0.001829410730814871
6804.679727038722,-0.0017597984651561052
6804.680726810646,-0.0016901266638520269
6804.681726582568,-0.0016204073160248932
6804.682726354491,-0.0015506524903948916
6804.683726126414,-0.0014808743319314175
6804.684725898336,-0.0014110850584413035
6804.685725670259,-0.0013412969570946558
6804.686725442182,-0.0012715223808889757
6804.687725214105,-0.0012017737450522494
6804.688724986027,-0.001132063523385661
6804.68972475795,-0.001062404244546547
6804.690724529873,-0.000992808488272144
6804.691724301796,-0.0009232888815446185
6804.692724073719,-0.0008538580946978132
6804.693723845641,-0.000784528837466126
6804.694723617564,-0.0007153138549759525
6804.695723389486,-0.0006462259236802044
6804.69672316141,-0.0005772778472365378
6804.697722933332,-0.0005084824523300715
6804.698722705255,-0.00043985258444153224
6804.699722477178,-0.0003714011035619186
6804.7007222491,-0.00030314087985491595
6804.701722021024,-0.000235084789268427
6804.702721792946,-0.00016724570909670028
6804.703721564869,-9.963651349465258e-05
6804.704721336791,-3.227006894609283e-05
6804.705721108714,3.484077031233145e-05
6804.706720880637,0.0001016831669095305
6804.70772065256,0.00016824430499866788
6804.708720424483,0.0002345113949540094
6804.709720196405,0.0003004716781036887
6804.710719968328,0.0003661124314960788
6804.71171974025,0.00043142097269740397
6804.712719512174,0.0004963846646181912
6804.713719284096,0.0005609909203661399
6804.714719056019,0.0006252272081229782
6804.715718827942,0.0006890810560428656
6804.716718599864,0.0007525400571698917
6804.717718371788,0.0008155918743722021
6804.71871814371,0.0008782242452902586
6804.719717915633,0.0009404249872967158
6804.720717687555,0.0010021820024653696
6804.721717459478,0.0010634832825466211
6804.7227172314015,0.0011243169139468793
6804.723717003324,0.001184671082709319
6804.724716775247,0.001244534079493412
6804.725716547169,0.0013038943045506355
6804.726716319092,0.0013627402726937542
6804.727716091014,0.0014210606182570508
6804.728715862938,0.001478844100044859
6804.72971563486,0.0015360796062657252
6804.730715406783,0.0015927561594495092
6804.731715178706,0.00164886292134471
6804.732714950628,0.0017043891977932778
6804.733714722552,0.0017593244435801637
6804.734714494474,0.0018136582672548258
6804.735714266397,0.00186738043592189
6804.736714038319,0.0019204808799981367
6804.737713810242,0.0019729496979329483
6804.738713582165,0.0020247771608893207
6804.739713354088,0.002075953717382502
6804.740713126011,0.002126469997873284
6804.741712897933,0.002176316819312927
6804.742712669856,0.0022254851896366546
6804.743712441778,0.0022739663122026323
6804.744712213702,0.002321751590173317
6804.745711985624,0.0023688326308360726
6804.746711757547,0.002415201249859967
6804.74771152947,0.002460849475485708
6804.748711301392,0.00250576955264574
6804.749711073316,0.0025499539470115956
6804.750710845238,0.002593395348965646
6804.751710617161,0.002636086677494462
6804.752710389083,0.0026780210840010358
6804.753710161006,0.0027191919560331074
6804.7547099329295,0.002759592920924844
6804.755709704852,0.0027992178493490556
6804.756709476775,0.0028380608587771127
6804.757709248697,0.0028761163168436773
6804.75870902062,0.002913378844613313
6804.759708792542,0.0029498433197460445
6804.760708564466,0.002985504879558931
6804.761708336388,0.0030203589239807625
6804.762708108311,0.0030544011183970135
6804.763707880234,0.003087627396382234
6804.764707652156,0.0031200339623171196
6804.76570742408,0.003151617293887563
6804.766707196002,0.0031823741444630214
6804.767706967925,0.003212301545351578
6804.768706739847,0.0032413968079291282
6804.76970651177,0.003269657525640128
6804.7707062836935,0.0032970815758674014
6804.771706055616,0.0033236671216685496
6804.772705827539,0.0033494126133765314
6804.773705599461,0.003374316790062062
6804.774705371384,0.0033983786808555157
6804.775705143307,0.0034215976061261074
6804.77670491523,0.003443973178516183
6804.777704687152,0.0034655053038285533
6804.778704459075,0.0034861941817648802
6804.779704230998,0.003506040306513227
6804.78070400292,0.0035250444671829665
6804.781703774844,0.0035432077480853246
6804.782703546766,0.0035605315288579423
6804.783703318689,0.0035770174844319417
6804.784703090611,0.0035926675848401268
6804.785702862534,0.0036074840948651424
6804.7867026344575,0.003621469573526685
6804.78770240638,0.0036346268734071875
6804.788702178303,0.003646959139815807
6804.789701950225,0.0036584698097909506
6804.790701722148,0.00366916261094199
6804.79170149407,0.0036790415601311494
6804.792701265994,0.003688110961996798
6804.793701037916,0.0036963754073194876
6804.794700809839,0.0037038397712321263
6804.795700581762,0.003710509211275644
6804.796700353684,0.0037163891653015104
6804.797700125608,0.0037214853492224627
6804.79869989753,0.0037258037546128663
6804.799699669453,0.003729350646160215
6804.800699441375,0.0037321325589693938
6804.801699213298,0.0037341562957214367
6804.8026989852215,0.0037354289236886584
6804.803698757144,0.003735957771608131
6804.804698529067,0.0037357504264156098
6804.805698300989,0.0037348147298421125
6804.806698072912,0.003733158774875451
6804.807697844835,0.0037307909020891403
6804.808697616758,0.0037277196958411868
6804.80969738868,0.003723953980345379
6804.810697160603,0.0037195028156177777
6804.811696932526,0.0037143754933012117
6804.812696704448,0.0037085815323706544
6804.813696476372,0.003702130674722446
6804.814696248294,0.0036950328806504133
6804.815696020217,0.0036872983242120095
6804.816695792139,0.0036789373884876945
6804.817695564062,0.003669960660736825
6804.8186953359855,0.0036603789274534293
6804.819695107908,0.0036502031693252954
6804.820694879831,0.0036394445560998905
6804.821694651753,0.003628114441360701
6804.822694423676,0.003616224357217647
6804.823694195598,0.0036037860089152855
6804.824693967522,0.0035908112693625502
6804.825693739444,0.00357731217358782
6804.826693511367,0.003563300913123124
6804.82769328329,0.003548789830321329
6804.828693055212,0.003533791412610181
6804.829692827136,0.0035183182866871257
6804.830692599058,0.0035023832126588363
6804.831692370981,0.003485999078129432
6804.832692142903,0.00346917889224139
6804.833691914826,0.0034519357796731908
6804.8346916867495,0.003434282974597719
6804.835691458672,0.0034162338146054654
6804.836691230595,0.003397801734596562
6804.837691002517,0.0033790002606456523
6804.83869077444,0.003359843003843558
6804.839690546363,0.003340343654119675
6804.840690318286,0.0033205159740489903
6804.841690090208,0.0033003737926475987
6804.842689862131,0.003279930999160611
6804.843689634054,0.0032592015368463727
6804.844689405976,0.0032381993967609515
6804.8456891779,0.0032169386115468825
6804.846688949822,0.003195433249230174
6804.847688721745,0.003173697407029534
6804.848688493667,0.0031517452051816955
6804.84968826559,0.003129590780786582
6804.8506880375135,0.003107248281675883
6804.851687809436,0.003084731860308442
6804.852687581359,0.0030620556676956706
6804.853687353281,0.0030392338473600577
6804.854687125204,0.0030162805293296974
6804.855686897127,0.0029932098241716907
6804.85668666905,0.002970035817067192
6804.857686440972,0.002946772561930855
6804.858686212895,0.0029234340755773906
6804.859685984818,0.0029000343319379326
6804.860685756741,0.002876587256328819
6804.861685528664,0.002853106719775333
6804.862685300586,0.002829606533392783
6804.863685072509,0.0028061004428272087
6804.864684844431,0.002782602122757849
6804.865684616354,0.002759125171463418
6804.8666843882775,0.00273568310545412
6804.8676841602,0.0027122893541712636
6804.868683932123,0.0026889572547562687
6804.869683704045,0.002665700046890793
6804.870683475968,0.0026425308677096673
6804.871683247891,0.0026194627467882605
6804.872683019814,0.0025965086012058533
6804.873682791736,0.002573681230686521
6804.874682563659,0.0025509933128189588
6804.875682335582,0.002528457398356608
6804.876682107504,0.002506085906599368
6804.877681879428,0.00248389112085808
6804.87868165135,0.002461885184002913
6804.879681423273,0.002440080094096663
6804.880681195195,0.002418487700113926
6804.881680967118,0.002397119697747023
6804.8826807390415,0.002375987625299485
6804.883680510964,0.0023551028596678816
6804.884680282887,0.0023344766124127215
6804.885680054809,0.002314119925919112
6804.886679826732,0.002294043669647831
6804.887679598655,0.00227425853647742
6804.888679370578,0.0022547750391378636
6804.8896791425,0.0022356035067363686
6804.890678914423,0.0022167540813757356
6804.891678686346,0.0021982367148657717
6804.892678458269,0.0021800611655281832
6804.893678230192,0.002162236995095373
6804.894678002114,0.002144773565703562
6804.895677774037,0.0021276800369806432
6804.896677545959,0.002110965363229168
6804.897677317882,0.002094638290704859
6804.8986770898055,0.002078707354991041
6804.899676861728,0.0020631808784693805
6804.900676633651,0.002048066967887305
6804.901676405573,0.0020333735120224837
6804.902676177496,0.0020191081794447316
6804.903675949419,0.0020052784163756784
6804.904675721342,0.001991891444646547
6804.905675493264,0.0019789542597543584
6804.906675265187,0.001966473629016854
6804.90767503711,0.0019544560898263957
6804.908674809032,0.0019429079480030604
6804.909674580956,0.0019318352762470817
6804.910674352878,0.001921243912690732
6804.911674124801,0.0019111394595496768
6804.912673896723,0.0019015272818737638
6804.913673668647,0.0018924125063971588
6804.9146734405695,0.0018838000204876712
6804.915673212492,0.0018756944711950517
6804.916672984415,0.0018681002643979908
6804.917672756337,0.0018610215640494766
6804.91867252826,0.0018544622915201232
6804.919672300183,0.0018484261250390343
6804.920672072106,0.0018429164992317172
6804.921671844028,0.001837936604754529
6804.922671615951,0.0018334893880251094
6804.923671387874,0.0018295775510482324
6804.924671159797,0.0018262035513365025
6804.92567093172,0.00182336960192532
6804.926670703642,0.0018210776714815342
6804.927670475565,0.001819329484505193
6804.928670247487,0.0018181265216237635
6804.92967001941,0.0018174700199781518
6804.9306697913335,0.0018173609736998235
6804.931669563256,0.001817800134478275
6804.932669335179,0.0018187880122181048
6804.933669107101,0.0018203248757849074
6804.934668879024,0.0018224107538392011
6804.935668650947,0.0018250454357575821
6804.93666842287,0.0018282284726402638
6804.937668194792,0.0018319591784041348
6804.938667966715,0.0018362366309604377
6804.939667738638,0.0018410596734761563
6804.940667510561,0.0018464269157181877
6804.941667282484,0.0018523367354793853
6804.942667054406,0.0018587872800855782
6804.943666826329,0.0018657764679827036
6804.944666598251,0.0018733019904032143
6804.945666370175,0.001881361313110954
6804.9466661420975,0.0018899516782237156
6804.94766591402,0.0018990701061127105
6804.948665685943,0.0019087133973782024
6804.949665457865,0.0019188781349005672
6804.950665229788,0.001929560685966049
6804.951665001711,0.0019407572044664544
6804.952664773634,0.0019524636331719897
6804.953664545556,0.0019646757060763887
6804.954664317479,0.0019773889508134285
6804.955664089402,0.0019905986911438675
6804.956663861325,0.002004300049511814
6804.957663633248,0.0020184879496694882
6804.95866340517,0.002033157119369321
6804.959663177093,0.0020483020931223064
6804.960662949015,0.0020639172150214856
6804.961662720938,0.0020799966416294147
6804.962662492861,0.002096534344928434
6804.963662264784,0.002113524115332529
6804.964662036707,0.0021309595647595507
6804.965661808629,0.0021488341297625376
6804.966661580552,0.002167141074718858
6804.967661352475,0.0021858734950758636
6804.968661124398,0.0022050243206517208
6804.96966089632,0.0022245863189900568
6804.970660668243,0.0022445520987670587
6804.971660440166,0.0022649141132496243
6804.972660212089,0.002285664663803164
6804.973659984012,0.00230679590344763
6804.974659755934,0.0023282998404603244
6804.975659527857,0.0023501683420240047
6804.976659299779,0.002372393137918773
6804.977659071703,0.002394965824256204
6804.978658843625,0.002417877867254121
6804.979658615548,0.0024411206070504067
6804.980658387471,0.0024646852615541953
6804.981658159393,0.0024885629303328105
6804.982657931316,0.0025127445985327857
6804.983657703239,0.0025372211408333325
6804.984657475162,0.0025619833254306407
6804.985657247084,0.002587021818051416
6804.986657019007,0.0026123271859940602
6804.98765679093,0.0026378899021958914
6804.988656562853,0.0026637003493248023
6804.989656334776,0.0026897488238937124
6804.990656106698,0.0027160255403961557
6804.991655878621,0.00274252063546133
6804.992655650543,0.0027692241720268904
6804.993655422467,0.0027961261435277586
6804.994655194389,0.0028232164780991643
6804.995654966312,0.002850485042792124
6804.996654738235,0.002877921647799518
6804.997654510157,0.0029055160506909175
6804.998654282081,0.002933257960654282
6804.999654054003,0.0029611370427426228
6805.000653825926,0.0029891429221236975
6805.001653597848,0.0030172651883307905
6805.002653369771,0.0030454933995125925
6805.003653141694,0.00307381708668018
6805.004652913617,0.0031022257579490834
6805.00565268554,0.003130708902774449
6805.006652457462,0.0031592559961772927
6805.007652229385,0.0031878565029599044
6805.008652001307,0.003216499881908473
6805.009651773231,0.003245175589981042
6805.010651545153,0.003273873086478925
6805.011651317076,0.0033025818371997468
6805.012651088999,0.00333129131857028
6805.013650860921,0.0033599910217572836
6805.014650632844,0.0033886704567545442
6805.015650404767,0.0034173191564443664
6805.01665017669,0.0034459266806317443
6805.017649948612,0.0034744826200495084
6805.018649720535,0.0035029766003327584
6805.019649492458,0.003531398285960949
6805.020649264381,0.00355973738416605
6805.021649036304,0.0035879836488052408
6805.022648808226,0.0036161268841966615
6805.023648580149,0.0036441569489167797
6805.024648352071,0.0036720637595579974
6805.025648123995,0.0036998372944451476
6805.026647895917,0.003727467597309599
6805.02764766784,0.003754944780919709
6805.028647439763,0.003782259030666434
6805.029647211685,0.003809400608102924
6805.030646983609,0.0038363598544370143
6805.031646755531,0.003863127193975546
6805.032646527454,0.0038896931375195353
6805.033646299376,0.003916048285709226
6805.034646071299,0.003942183332318145
6805.035645843222,0.0039680890674952864
6805.036645615145,0.003993756380954592
6805.037645387068,0.00401917626511089
6805.03864515899,0.004044339818161444
6805.039644930913,0.004069238247112285
6805.040644702835,0.004093862870748496
6805.041644474759,0.004118205122547644
6805.042644246681,0.004142256553535537
6805.043644018604,0.0041660088350835645
6805.044643790527,0.004189453761646862
6805.045643562449,0.004212583253442618
6805.046643334372,0.0042353893590678475
6805.047643106295,0.004257864258056036
6805.048642878218,0.004280000263372122
6805.04964265014,0.004301789823845337
6805.050642422063,0.004323225526539516
6805.051642193986,0.004344300099060582
6805.052641965909,0.004365006411800992
6805.053641737832,0.004385337480120976
6805.054641509754,0.004405286466466526
6805.055641281677,0.004424846682424089
6805.056641053599,0.004444011590711998
6805.057640825523,0.004462774807108647
6805.058640597445,0.004481130102317513
6805.059640369368,0.004499071403769032
6805.060640141291,0.004516592797359421
6805.061639913213,0.004533688529126462
6805.062639685137,0.004550353006862284
6805.063639457059,0.004566580801663095
6805.064639228982,0.004582366649415824
6805.065639000904,0.004597705452221558
6805.066638772827,0.004612592279755651
6805.06763854475,0.004627022370564377
6805.068638316673,0.004640991133297932
6805.069638088596,0.004654494147879656
6805.070637860518,0.004667527166611305
6805.071637632441,0.004680086115214274
6805.072637404363,0.00469216709380671
6805.073637176287,0.004703766377816535
6805.074636948209,0.004714880418830434
6805.075636720132,0.00472550584537895
6805.076636492055,0.004735639463657818
6805.077636263977,0.0047452782581857535
6805.078636035901,0.00475441939239889
6805.079635807823,0.004763060209182086
6805.080635579746,0.004771198231337352
6805.081635351668,0.004778831161989631
6805.082635123591,0.004785956884930193
6805.0836348955145,0.004792573464897901
6805.084634667437,0.004798679147798587
6805.08563443936,0.004804272360862785
6805.086634211282,0.004809351712742008
6805.087633983205,0.004813915993543719
6805.088633755127,0.004817964174805128
6805.089633527051,0.0048214954094058845
6805.090633298973,0.004824509031419744
6805.091633070896,0.004827004555905245
6805.092632842819,0.00482898167863544
6805.093632614741,0.0048304402757667645
6805.094632386665,0.004831380403447108
6805.095632158587,0.004831802297363198
6805.09663193051,0.004831706372227417
6805.097631702432,0.004831093221204187
6805.098631474355,0.004829963615276072
6805.099631246278,0.004828318502549788
6805.100631018201,0.004826159007502319
6805.101630790124,0.004823486430167374
6805.102630562046,0.004820302245262454
6805.103630333969,0.004816608101256808
6805.104630105891,0.004812405819380595
6805.105629877815,0.004807697392575607
6805.106629649737,0.004802484984387891
6805.10762942166,0.00479677092780264
6805.108629193583,0.0047905577240217306
6805.109628965505,0.004783848041184264
6805.110628737429,0.004776644713030483
6805.111628509351,0.004768950737509436
6805.112628281274,0.00476076927533074
6805.113628053196,0.004752103648460805
6805.114627825119,0.0047429573385639
6805.1156275970425,0.004733333985388415
6805.116627368965,0.004723237385098691
6805.117627140888,0.0047126714885527814
6805.11862691281,0.00470164039952652
6805.119626684733,0.004690148372884246
6805.120626456655,0.004678199812696562
6805.121626228579,0.004665799270305444
6805.122626000501,0.004652951442337033
6805.123625772424,0.004639661168662416
6805.124625544347,0.004625933430306668
6805.125625316269,0.004611773347306455
6805.126625088193,0.004597186176516507
6805.127624860115,0.004582177309365327
6805.128624632038,0.004566752269560571
6805.12962440396,0.004550916710744618
6805.130624175883,0.004534676414100944
6805.131623947807,0.004518037285912003
6805.132623719729,0.004501005355069436
6805.133623491652,0.004483586770537506
6805.134623263574,0.00446578779877077
6805.135623035497,0.004447614821087087
6805.13662280742,0.004429074330997117
6805.137622579343,0.004410172931491548
6805.138622351265,0.004390917332287334
6805.139622123188,0.004371314347034232
6805.140621895111,0.004351370890482987
6805.141621667033,0.004331093975616453
6805.142621438957,0.0043104907107449795
6805.143621210879,0.004289568296567293
6805.144620982802,0.0042683340231981165
6805.145620754724,0.004246795267163657
6805.146620526647,0.004224959488366067
6805.1476202985705,0.004202834227017953
6805.148620070493,0.004180427100547998
6805.149619842416,0.0041577458004787285
6805.150619614338,0.004134798089277515
6805.151619386261,0.004111591797181897
6805.152619158183,0.0040881348190003435
6805.153618930107,0.00406443511088958
6805.154618702029,0.004040500687109627
6805.155618473952,0.00401633961675768
6805.156618245875,0.003991960020481998
6805.157618017797,0.003967370067176902
6805.158617789721,0.003942577970660041
6805.159617561643,0.003917591986333053
6805.160617333566,0.0038924204078267443
6805.161617105488,0.003867071563631962
6805.162616877411,0.0038415538137172908
6805.163616649335,0.0038158755461347098
6805.164616421257,0.0037900451736143526
6805.16561619318,0.00376407113014952
6805.166615965102,0.0037379618675730942
6805.167615737025,0.003711725852126525
6805.168615508948,0.003685371561022581
6805.169615280871,0.0036589074790030636
6805.170615052793,0.003632342094892666
6805.171614824716,0.003605683898150154
6805.172614596639,0.003578941375417995
6805.173614368561,0.0035521230070715533
6805.174614140485,0.0035252372637689013
6805.175613912407,0.003498292603002312
6805.17661368433,0.003471297465652451
6805.177613456252,0.0034442602725463177
6805.178613228175,0.003417189421019986
6805.1796130000985,0.0033900932814871576
6805.180612772021,0.0033629801940145334
6805.181612543944,0.003335858464904971
6805.182612315866,0.0033087363632893405
6805.183612087789,0.0032816221177279425
6805.184611859711,0.0032545239128223217
6805.185611631635,0.003227449885838275
6805.186611403557,0.003200408123340831
6805.18761117548,0.003173406657841963
6805.188610947403,0.0031464534644617724
6805.189610719325,0.0031195564576038735
6805.190610491249,0.0030927234876457106
6805.191610263171,0.003065962337644521
6805.192610035094,0.00303928072005967
6805.193609807016,0.0030126862734920793
6805.194609578939,0.0029861865594414997
6805.195609350863,0.0029597890590823883
6805.196609122785,0.0029335011700592035
6805.197608894708,0.0029073302033019864
6805.19860866663,0.0028812833798631614
6805.199608438553,0.002855367827776567
6805.200608210476,0.002829590578939804
6805.201607982399,0.002803958566021062
6805.202607754321,0.0027784786193916417
6805.203607526244,0.0027531574640854563
6805.204607298167,0.002728001716786813
6805.205607070089,0.0027030178828478103
6805.206606842013,0.002678212353336703
6805.207606613935,0.0026535914021185974
6805.208606385858,0.0026291611829698594
6805.20960615778,0.002604927726727617
6805.210605929703,0.002580896938475734
6805.2116057016265,0.002557074594768597
6805.212605473549,0.0025334663408940047
6805.213605245472,0.0025100776881763864
6805.214605017394,0.0024869140113215273
6805.215604789317,0.0024639805458039083
6805.21660456124,0.002441282385297734
6805.217604333163,0.0024188244791526776
6805.218604105085,0.0023966116299153346
6805.219603877008,0.0023746484908973614
6805.220603648931,0.002352939563791243
6805.221603420854,0.002331489196334643
6805.222603192777,0.0023103015800242767
6805.223602964699,0.0022893807478802717
6805.224602736622,0.0022687305722619926
6805.225602508544,0.0022483547627363343
6805.226602280467,0.0022282568639995226
6805.227602052391,0.0022084402538534984
6805.228601824313,0.002188908141237995
6805.229601596236,0.002169663564319456
6805.230601368158,0.0021507093886379597
6805.231601140081,0.002132048305313345
6805.232600912004,0.0021136828293117247
6805.233600683927,0.002095615297773587
6805.234600455849,0.0020778478684046506
6805.235600227772,0.0020603825179306263
6805.236599999695,0.0020432210406169816
6805.237599771617,0.002026365046854761
6805.238599543541,0.0020098159618134703
6805.239599315463,0.001993575024161992
6805.240599087386,0.001977643284858469
6805.241598859308,0.0019620216060100685
6805.242598631231,0.0019467106598034876
6805.2435984031545,0.001931710927507042
6805.244598175077,0.00191702269854511
6805.245597947,0.0019026460696456669
6805.246597718922,0.0018885809440616088
6805.247597490845,0.0018748270308665352
6805.248597262768,0.001861383844325645
6805.249597034691,0.0018482507033424083
6805.250596806613,0.0018354267309816587
6805.251596578536,0.0018229108540697451
6805.252596350459,0.001810701802872367
6805.253596122382,0.0017987981108507087
6805.254595894305,0.001787198114496485
6805.255595666227,0.0017758999532465085
6805.25659543815,0.0017649015694773907
6805.257595210072,0.0017542007085809702
6805.258594981995,0.0017437949191210472
6805.259594753919,0.0017336815530719781
6805.260594525841,0.0017238577661396485
6805.261594297764,0.0017143205181653356
6805.262594069686,0.0017050665736129456
6805.263593841609,0.001696092502140092
6805.264593613532,0.001687394679253453
6805.265593385455,0.0016789692870487988
6805.266593157377,0.0016708123150360398
6805.2675929293,0.0016629195610495928
6805.268592701223,0.001655286632244302
6805.269592473145,0.0016479089461771002
6805.270592245069,0.0016407817319745105
6805.271592016991,0.0016339000315860155
6805.272591788914,0.0016272587011232581
6805.273591560836,0.001620852412284964
6805.27459133276,0.0016146756538674301
6805.2755911046825,0.001608722733360385
6805.276590876605,0.0016029877786279789
6805.277590648528,0.0015974647396746196
6805.27859042045,0.0015921473904953111
6805.279590192373,0.0015870293310100837
6805.280589964296,0.0015821039890820427
6805.281589736219,0.0015773646226184919
6805.282589508141,0.0015728043217545231
6805.283589280064,0.0015684160111184072
6805.284589051987,0.0015641924521780518
6805.28558882391,0.0015601262456677342
6805.286588595833,0.0015562098340942735
6805.287588367755,0.0015524355043217619
6805.288588139678,0.0015487953902339512
6805.2895879116,0.0015452814754733696
6805.290587683523,0.001541885596256223
6805.291587455447,0.0015385994442621252
6805.292587227369,0.0015354145695976882
6805.293586999292,0.0015323223838330045
6805.294586771214,0.0015293141631100725
6805.295586543137,0.0015263810513222267
6805.29658631506,0.0015235140633636497
6805.297586086983,0.0015207040884480587
6805.298585858905,0.0015179418934956686
6805.299585630828,0.001515218126587544
6805.300585402751,0.0015125233204864668
6805.301585174674,0.0015098478962234482
6805.302584946597,0.0015071821667490297
6805.303584718519,0.001504516340648513
6805.304584490442,0.0015018405259202465
6805.305584262364,0.0014991447338160628
6805.306584034288,0.001496418882742917
6805.3075838062105,0.0014936528022246936
6805.308583578133,0.001490836236923069
6805.309583350056,0.0014879588507161951
6805.310583121978,0.001485010230833877
6805.311582893901,0.0014819798920477976
6805.312582665824,0.0014788572809152597
6805.313582437747,0.0014756317800748145
6805.314582209669,0.0014722927125920895
6805.315581981592,0.0014688293463540442
6805.316581753515,0.0014652308985098146
6805.317581525438,0.0014614865399562307
6805.318581297361,0.0014575853998660144
6805.319581069283,0.0014535165702565832
6805.320580841206,0.0014492691105973327
6805.321580613128,0.0014448320524532157
6805.322580385051,0.00144019440416242
6805.323580156975,0.0014353451555459257
6805.324579928897,0.0014302732826467132
6805.32557970082,0.0014249677524963953
6805.326579472742,0.0014194175279070458
6805.327579244665,0.0014136115722860117
6805.328579016588,0.0014075388544715068
6805.329578788511,0.0014011883535867923
6805.330578560433,0.0013945490639107523
6805.331578332356,0.0013876099997626717
6805.332578104279,0.0013803602003990216
6805.333577876202,0.0013727887349200645
6805.334577648125,0.0013648847071841077
6805.335577420047,0.0013566372607272544
6805.33657719197,0.0013480355836865195
6805.337576963892,0.0013390689137241865
6805.338576735816,0.0013297265429512782
6805.3395765077385,0.001319997822847983
6805.340576279661,0.0013098721691788557
6805.341576051584,0.0012993390669005756
6805.342575823506,0.0012883880750600087
6805.343575595429,0.0012770088316803067
6805.344575367352,0.001265191058632766
6805.345575139275,0.0012529245664921803
6805.346574911197,0.0012401992593734366
6805.34757468312,0.0012270051397471288
6805.348574455043,0.0012133323132319722
6805.349574226966,0.0011991709933618178
6805.350573998889,0.0011845115063250798
6805.351573770811,0.0011693442956743842
6805.352573542734,0.001153659927004241
6805.353573314656,0.001137449092594519
6805.35457308658,0.0011207026160174787
6805.355572858503,0.0011034114567061114
6805.356572630425,0.0010855667144815547
6805.357572402348,0.0010671596340373814
6805.35857217427,0.001048181609378622
6805.359571946194,0.0010286241882134354
6805.360571718116,0.0010084790762954156
6805.361571490039,0.0009877381417145899
6805.362571261961,0.0009663934191352298
6805.363571033884,0.000944437113978655
6805.364570805807,0.0009218616065492687
6805.36557057773,0.0008986594561021334
6805.366570349653,0.0008748234048504608
6805.367570121575,0.0008503463819114659
6805.368569893498,0.0008252215071891161
6805.36956966542,0.0007994420951923931
6805.370569437344,0.0007730016587877603
6805.371569209266,0.0007458939128846044
6805.372568981189,0.0007181127780524886
6805.373568753112,0.0006896523840691282
6805.374568525034,0.0006605070733980812
6805.375568296957,0.0006306714045952366
6805.37656806888,0.0006001401556432785
6805.377567840803,0.0005689083272134056
6805.378567612725,0.0005369711458536768
6805.379567384648,0.0005043240671034454
6805.380567156571,0.0004709627785334327
6805.381566928494,0.0004368832027110851
6805.382566700417,0.00040208150009095046
6805.383566472339,0.00036655407182988747
6805.384566244262,0.00033029756252699413
6805.385566016184,0.0002933088628881876
6805.386565788108,0.00025558511231540113
6805.38756556003,0.00021712370142038903
6805.388565331953,0.00017792227446316005
6805.389565103876,0.00013797873171509626
6805.390564875798,9.729123174684867e-05
6805.391564647722,5.5858193641133476e-05
6805.392564419644,1.3678299130578018e-05
6805.393564191567,-2.9249505339207394e-05
6805.394563963489,-7.292600662112609e-05
6805.395563735412,-0.0001173517229524195
6805.396563507335,-0.0001625269021145414
6805.397563279258,-0.00020845151966676683
6805.398563051181,-0.00025512527725318664
6805.399562823103,-0.0003025476009827109
6805.400562595026,-0.00035071763988168194
6805.401562366948,-0.00039963426441868275
6805.402562138872,-0.0004492960651011152
6805.403561910794,-0.0004997013511431174
6805.404561682717,-0.0005508481492043883
6805.40556145464,-0.0006027342021995065
6805.406561226562,-0.0006553569681773524
6805.407560998485,-0.0007087136192702715
6805.408560770408,-0.0007628010407126379
6805.409560542331,-0.0008176158299284652
6805.410560314253,-0.0008731542956877001
6805.411560086176,-0.000929412457330823
6805.412559858099,-0.0009863860440613723
6805.413559630022,-0.0010440704943060406
6805.414559401945,-0.0011024609551420184
6805.415559173867,-0.001161552281791315
6805.41655894579,-0.0012213390371818413
6805.417558717712,-0.0012818154915751141
6805.418558489636,-0.0013429756222605286
6805.419558261558,-0.0014048131133162414
6805.420558033481,-0.0014673213554368318
6805.421557805404,-0.0015304934458280283
6805.422557577326,-0.0015943221881689162
6805.42355734925,-0.0016588000926421648
6805.424557121172,-0.0017239193760329188
6805.425556893095,-0.00178967196189711
6805.426556665017,-0.0018560494808000495
6805.42755643694,-0.0019230432706262865
6805.428556208863,-0.001990644376961861
6805.429555980786,-0.002058843553550236
6805.430555752709,-0.0021276312628233417
6805.431555524631,-0.0021969976765093308
6805.432555296554,-0.0022669326763187472
6805.433555068476,-0.0023374258547109485
6805.4345548404,-0.0024084665157426913
6805.435554612322,-0.0024800436760008724
6805.436554384245,-0.0025521460656214726
6805.437554156168,-0.002624762129396823
6805.43855392809,-0.002697880027973364
6805.439553700014,-0.002771487639142144
6805.440553471936,-0.0028455725592243246
6805.441553243859,-0.002920122104554005
6805.442553015781,-0.002995123313060706
6805.443552787704,-0.003070562945953853
6805.444552559628,-0.003146427489511652
6805.44555233155,-0.0032227031569767566
6805.446552103473,-0.003299375890561172
6805.447551875395,-0.003376431363562851
6805.448551647318,-0.003453854982596474
6805.44955141924,-0.0035316318899409078
6805.450551191164,-0.003609746966005826
6805.451550963086,-0.003688184831919916
6805.452550735009,-0.0037669298522430097
6805.453550506932,-0.0038459661378043492
6805.454550278854,-0.003925277548669041
6805.455550050778,-0.004004847697234603
6805.4565498227,-0.004084659951459359
6805.457549594623,-0.00416469743822429
6805.458549366545,-0.004244943046829832
6805.459549138468,-0.0043253794326289586
6805.460548910391,-0.00440598902079779
6805.461548682314,-0.0044867540102448275
6805.462548454237,-0.0045676563776598
6805.463548226159,-0.004648677881702989
6805.464547998082,-0.004729800067335782
6805.465547770004,-0.004811004270293091
6805.466547541928,-0.004892271621698119
6805.46754731385,-0.004973583052819876
6805.468547085773,-0.00505491929997363
6805.469546857696,-0.005136260909564344
6805.470546629618,-0.005217588243272981
6805.471546401542,-0.0052988814833854056
6805.472546173464,-0.005380120638263502
6805.473545945387,-0.005461285547958042
6805.474545717309,-0.005542355889962737
6805.475545489232,-0.0056233111851088325
6805.476545261156,-0.005704130803599448
6805.477545033078,-0.005784793971182726
6805.478544805001,-0.005865279775462644
6805.479544576923,-0.005945567172346176
6805.480544348846,-0.0060256349926252764
6805.481544120768,-0.006105461948692031
6805.482543892692,-0.006185026641385118
6805.483543664614,-0.00626430756696561
6805.484543436537,-0.006343283124219956
6805.48554320846,-0.006421931621687862
6805.486542980382,-0.006500231285012599
6805.487542752306,-0.006578160264411154
6805.488542524228,-0.0066556966422615165
6805.489542296151,-0.006732818440804275
6805.490542068073,-0.006809503629955591
6805.491541839996,-0.006885730135228545
6805.49254161192,-0.006961475845759764
6805.493541383842,-0.007036718622438118
6805.494541155765,-0.007111436306132259
6805.495540927687,-0.007185606726013685
6805.49654069961,-0.007259207707971947
6805.497540471533,-0.0073322170831185765
6805.498540243456,-0.007404612696376191
6805.499540015378,-0.007476372415149153
6805.500539787301,-0.00754747413807209
6805.501539559224,-0.007617895803832462
6805.502539331146,-0.007687615400063287
6805.50353910307,-0.007756610972302083
6805.504538874992,-0.00782486063301193
6805.505538646915,-0.007892342570660488
6805.506538418837,-0.007959035058852563
6805.50753819076,-0.008024916465511775
6805.508537962684,-0.008089965262106624
6805.509537734606,-0.008154160032916163
6805.510537506529,-0.008217479484330397
6805.511537278451,-0.008279902454180426
6805.512537050374,-0.008341407921093337
6805.513536822296,-0.008401975013866757
6805.51453659422,-0.00846158302085795
6805.515536366142,-0.008520211399382248
6805.516536138065,-0.008577839785115466
6805.517535909988,-0.008634448001494896
6805.51853568191,-0.008690016069113297
6805.519535453834,-0.008744524215100243
6805.520535225756,-0.008797952882485123
6805.521534997679,-0.008850282739536057
6805.522534769601,-0.008901494689068954
6805.523534541524,-0.0089515698777209
6805.524534313448,-0.009000489705182066
6805.52553408537,-0.00904823583338024
6805.526533857293,-0.009094790195612107
6805.527533629215,-0.009140135005615337
6805.528533401138,-0.00918425276657549
6805.529533173061,-0.00922712628006171
6805.530532944984,-0.00926873865488516
6805.531532716906,-0.009309073315873986
6805.532532488829,-0.009348114012558566
6805.533532260752,-0.00938584482776068
6805.534532032674,-0.00942225018608011
6805.535531804598,-0.00945731486227209
6805.53653157652,-0.00949102398950892
6805.537531348443,-0.00952336306751896
6805.538531120365,-0.009554317970596145
6805.539530892288,-0.00958387495547307
6805.540530664212,-0.009612020669050552
6805.541530436134,-0.00963874215597655
6805.542530208057,-0.009664026866067167
6805.543529979979,-0.009687862661562397
6805.544529751902,-0.009710237824209086
6805.545529523824,-0.00973114106216351
6805.546529295748,-0.009750561516705818
6805.54752906767,-0.009768488768758521
6805.548528839593,-0.009784912845201062
6805.549528611516,-0.009799824224972505
6805.550528383438,-0.009813213844954238
6805.551528155362,-0.009825073105624573
6805.552527927284,-0.009835393876477111
6805.553527699207,-0.009844168501194735
6805.554527471129,-0.00985138980257115
6805.555527243052,-0.009857051087171971
6805.556527014976,-0.009861146149727522
6805.557526786898,-0.009863669277249605
6805.558526558821,-0.009864615252864722
6805.559526330743,-0.009863979359356415
6805.560526102666,-0.009861757382409648
6805.561525874589,-0.00985794561355046
6805.562525646512,-0.009852540852774405
6805.563525418434,-0.009845540410857653
6805.564525190357,-0.009836942111345004
6805.56552496228,-0.00982674429220943
6805.566524734202,-0.009814945807178215
6805.567524506126,-0.009801546026721163
6805.568524278048,-0.009786544838696875
6805.569524049971,-0.009769942648653619
6805.570523821893,-0.009751740379781824
6805.571523593816,-0.009731939472515876
6805.57252336574,-0.009710541883783416
6805.573523137662,-0.009687550085900977
6805.574522909585,-0.009662967065115255
6805.575522681507,-0.00963679631978988
6805.57652245343,-0.009609041858237959
6805.577522225353,-0.009579708196201114
6805.578521997276,-0.009548800353976133
6805.579521769198,-0.009516323853190732
6805.580521541121,-0.009482284713230383
6805.581521313044,-0.00944668944731864
6805.582521084967,-0.009409545058253836
6805.58352085689,-0.009370859033805561
6805.584520628812,-0.009330639341774789
6805.585520400735,-0.009288894424721984
6805.586520172657,-0.009245633194368079
6805.58751994458,-0.00920086502567382
6805.588519716504,-0.009154599750603707
6805.589519488426,-0.009106847651581568
6805.590519260349,-0.00905761945464574
6805.591519032271,-0.009006926322312854
6805.592518804194,-0.00895477984616022
6805.593518576117,-0.00890119203913795
6805.59451834804,-0.008846175327622923
6805.595518119962,-0.008789742543227732
6805.596517891885,-0.008731906914378654
6805.597517663808,-0.008672682057677536
6805.59851743573,-0.0086120819690633
6805.599517207654,-0.00855012101478954
6805.600516979576,-0.008486813922235327
6805.601516751499,-0.008422175770566996
6805.602516523421,-0.008356221981269193
6805.603516295344,-0.008288968308563887
6805.604516067268,-0.008220430829736313
6805.60551583919,-0.008150625935387009
6805.606515611113,-0.008079570319629121
6805.607515383035,-0.008007280970250018
6805.608515154958,-0.007933775158855952
6805.609514926881,-0.00785907043101808
6805.610514698804,-0.007783184596437519
6805.611514470726,-0.007706135719146461
6805.612514242649,-0.007627942107761583
6805.613514014572,-0.007548622305805098
6805.614513786495,-0.0074681950821079285
6805.615513558418,-0.007386679421308431
6805.61651333034,-0.0073040945144590575
6805.617513102263,-0.0072204597497522345
6805.618512874185,-0.007135794703375609
6805.619512646108,-0.007050119130505588
6805.620512418032,-0.006963452956446976
6805.621512189954,-0.006875816267925293
6805.622511961877,-0.006787229304537209
6805.623511733799,-0.006697712450363447
6805.624511505722,-0.0066072862257474455
6805.625511277645,-0.006515971279242129
6805.626511049568,-0.006423788379726238
6805.62751082149,-0.006330758408690919
6805.628510593413,-0.006236902352696576
6805.629510365336,-0.006142241295999407
6805.630510137259,-0.0060467964133465385
6805.631509909182,-0.005950588962938192
6805.632509681104,-0.005853640279554908
6805.633509453027,-0.005755971767847522
6805.634509224949,-0.005657604895787257
6805.635508996873,-0.005558561188273098
6805.636508768796,-0.005458862220893374
6805.637508540718,-0.005358529613838334
6805.638508312641,-0.005257585025960383
6805.639508084563,-0.005156050148978529
6805.640507856486,-0.005053946701823605
6805.641507628409,-0.004951296425120755
6805.642507400332,-0.004848121075805734
6805.643507172254,-0.004744442421871556
6805.644506944177,-0.004640282237242097
6805.6455067161,-0.004535662296769293
6805.646506488023,-0.004430604371350649
6805.647506259946,-0.004325130223163938
6805.648506031868,-0.00421926160101607
6805.649505803791,-0.004113020235803349
6805.650505575713,-0.0040064278360805086
6805.651505347636,-0.003899506083736116
6805.65250511956,-0.003792276629772202
6805.653504891482,-0.0036847610901861627
6805.654504663405,-0.0035769810419532463
6805.655504435327,-0.003468958019108156
6805.65650420725,-0.003360713508924479
6805.657503979173,-0.0032522689481908253
6805.658503751096,-0.0031436457195826335
6805.659503523018,-0.0030348651481287028
6805.660503294941,-0.0029259484977715525
6805.661503066864,-0.002816916968020751
6805.662502838787,-0.0027077916906983507
6805.66350261071,-0.002598593726775574
6805.664502382632,-0.0024893440632998364
6805.665502154555,-0.00238006361041116
6805.666501926477,-0.002270773198446942
6805.667501698401,-0.0021614935751339613
6805.668501470324,-0.0020522454028664198
6805.669501242246,-0.0019430492560687167
6805.670501014169,-0.0018339256186415875
6805.671500786091,-0.001724894881490144
6805.672500558014,-0.0016159773401322926
6805.673500329937,-0.001507193192385916
6805.67450010186,-0.001398562536133132
6805.675499873782,-0.0012901053671599124
6805.676499645705,-0.0011818415770693089
6805.677499417628,-0.0010737909512665293
6805.678499189551,-0.0009659731670141062
6805.679498961474,-0.0008584077915553754
6805.680498733396,-0.0007511142803044557
6805.681498505319,-0.0006441119751008578
6805.682498277241,-0.0005374201025267712
6805.683498049164,-0.0004310577722849708
6805.684497821088,-0.0003250439756351824
6805.68549759301,-0.00021939758388667564
6805.686497364933,-0.00011413734694483967
6805.687497136855,-9.281891909534005e-06
6805.688496908778,9.515027827691435e-05
6805.689496680701,0.0001991407861341026
6805.690496452624,0.00030267138090227404
6805.691496224546,0.0004057239397572216
6805.692495996469,0.0005082804689831392
6805.693495768392,0.0006103231051050991
6805.694495540315,0.0007118341159827567
6805.695495312238,0.0008127959018668077
6805.69649508416,0.0009131909964196778
6805.697494856083,0.001013002067701908
6805.698494628005,0.0011122119191257175
6805.699494399929,0.001210803490377271
6805.700494171852,0.0013087598583092369
6805.701493943774,0.001406064237805285
6805.702493715697,0.0015026999826182207
6805.703493487619,0.0015986505861834957
6805.704493259542,0.0016938996824098784
6805.705493031465,0.0017884310464491026
6805.706492803388,0.0018822285954463748
6805.70749257531,0.00197527638927368
6805.708492347233,0.002067558631247875
6805.709492119156,0.0021590596688355916
6805.710491891079,0.002249763994346979
6805.711491663002,0.0023396562456203165
6805.712491434924,0.002428721206699541
6805.713491206847,0.0025169438085067453
6805.714490978769,0.0026043091295117485
6805.715490750693,0.002690802396400924
6805.716490522616,0.002776408984747537
6805.717490294538,0.002861114419685942
6805.718490066461,0.0029449043765920877
6805.719489838383,0.0030277646817728535
6805.720489610307,0.0031096813131668124
6805.721489382229,0.003190640401059033
6805.722489154152,0.00327062822881251
6805.723488926074,0.003349631233618731
6805.724488697997,0.003427636007269747
6805.72548846992,0.0035046292969539623
6805.726488241843,0.0035805980060777285
6805.727488013766,0.0036555291951146617
6805.728487785688,0.0037294100824845264
6805.729487557611,0.003802228045463394
6805.730487329533,0.0038739706211267286
6805.731487101457,0.003944625507326933
6805.73248687338,0.004014180563706786
6805.733486645302,0.0040826238127500605
6805.734486417225,0.004149943440870415
6805.735486189147,0.0042161277995394425
6805.73648596107,0.0042811654064545185
6805.737485732993,0.004345044946746857
6805.738485504916,0.004407755274229928
6805.739485276838,0.004469285412688128
6805.740485048761,0.004529624557205365
6805.741484820684,0.00458876207553291
6805.742484592607,0.004646687509495696
6805.74348436453,0.004703390576436023
6805.744484136452,0.004758861170693562
6805.745483908375,0.004813089365120426
6805.746483680297,0.004866065412630068
6805.747483452221,0.004917779747778717
6805.748483224144,0.004968222988377993
6805.749482996066,0.005017385937137347
6805.750482767989,0.005065259583334918
6805.751482539911,0.0051118351045154175
6805.752482311835,0.005157103868213715
6805.753482083757,0.0052010574337028265
6805.75448185568,0.00524368755376517
6805.755481627602,0.005284986176486089
6805.756481399525,0.005324945447068905
6805.757481171448,0.005363557709671047
6805.758480943371,0.00540081550926108
6805.759480715294,0.005436711593496757
6805.760480487216,0.0054712389146245105
6805.761480259139,0.0055043906314010274
6805.762480031061,0.005536160111037849
6805.763479802985,0.0055665409311700794
6805.764479574907,0.00559552688185048
6805.76547934683,0.005623111967570281
6805.766479118753,0.005649290409308073
6805.767478890675,0.005674056646608071
6805.768478662598,0.00569740533968888
6805.769478434521,0.005719331371583705
6805.770478206444,0.005739829850312685
6805.771477978366,0.005758896111087724
6805.772477750289,0.005776525718549821
6805.773477522212,0.005792714469038545
6805.774477294135,0.005807458392892972
6805.775477066058,0.005820753756783077
6805.77647683798,0.00583259706607035
6805.777476609903,0.0058429850671961785
6805.778476381825,0.005851914750096331
6805.779476153749,0.0058593833506397006
6805.780475925671,0.005865388353089264
6805.781475697594,0.005869927492583055
6805.782475469517,0.005872998757632738
6805.783475241439,0.005874600392637289
6805.784475013363,0.005874730900409157
6805.785474785285,0.005873389044710254
6805.786474557208,0.005870573852795122
6805.78747432913,0.005866284617958639
6805.788474101053,0.005860520902085713
6805.789473872976,0.0058532825382004595
6805.790473644899,0.005844569633012426
6805.791473416822,0.005834382569457477
6805.792473188744,0.005822722009230993
6805.793472960667,0.005809588895311048
6805.794472732589,0.005794984454469016
6805.795472504513,0.005778910199764996
6805.796472276435,0.005761367933025064
6805.797472048358,0.005742359747297178
6805.798471820281,0.005721888029282259
6805.799471592203,0.005699955461736732
6805.800471364127,0.005676565025842647
6805.801471136049,0.005651720003541422
6805.802470907972,0.005625423979827211
6805.803470679894,0.005597680844996005
6805.804470451817,0.005568494796846737
6805.8054702237405,0.005537870342830841
6805.806469995663,0.005505812302147032
6805.807469767586,0.005472325807778378
6805.808469539508,0.0054374163084691205
6805.809469311431,0.005401089570639033
6805.810469083353,0.005363351680233409
6805.811468855277,0.005324209044506968
6805.812468627199,0.005283668393740033
6805.813468399122,0.00524173678288533
6805.814468171045,0.005198421593143713
6805.815467942967,0.005153730533467014
6805.816467714891,0.005107671641986169
6805.817467486813,0.005060253287362693
6805.818467258736,0.005011484170061545
6805.819467030658,0.0049613733235433916
6805.820466802581,0.004909930115374211
6805.821466574504,0.0048571642482500895
6805.822466346427,0.004803085760935013
6805.82346611835,0.004747705029109387
6805.824465890272,0.00469103276612699
6805.825465662195,0.00463308002367806
6805.826465434117,0.004573858192356182
6805.827465206041,0.004513379002126632
6805.828464977963,0.004451654522693728
6805.829464749886,0.004388697163764671
6805.830464521809,0.004324519675207122
6805.831464293731,0.004259135147097617
6805.832464065655,0.0041925570096576475
6805.833463837577,0.0041247990330740055
6805.8344636095,0.00405587532719977
6805.835463381422,0.003985800341132126
6805.836463153345,0.003914588862663101
6805.8374629252685,0.003842256017599297
6805.838462697191,0.003768817268946742
6805.839462469114,0.0036942884159570704
6805.840462241036,0.0036186855930313956
6805.841462012959,0.003542025268478308
6805.842461784881,0.003464324243122609
6805.843461556805,0.003385599648761471
6805.844461328727,0.0033058689464648813
6805.84546110065,0.0032251499247173427
6805.846460872573,0.003143460697397966
6805.847460644495,0.0030608197015962505
6805.848460416419,0.0029772456952610487
6805.849460188341,0.0028927577546804272
6805.850459960264,0.0028073752717903623
6805.851459732186,0.002721117951310416
6805.852459504109,0.002634005807704738
6805.8534592760325,0.0025460591619669046
6805.854459047955,0.0024572986382272585
6805.855458819878,0.0023677451601815834
6805.8564585918,0.0022774199473400876
6805.857458363723,0.0021863445110958473
6805.858458135646,0.0020945406506120115
6805.859457907569,0.0020020304485272532
6805.860457679491,0.0019088362664791525
6805.861457451414,0.0018149807404454436
6805.862457223337,0.0017204867759033544
6805.863456995259,0.0016253775428076076
6805.864456767183,0.0015296764703880263
6805.865456539105,0.0014334072417680926
6805.866456311028,0.0013365937884061887
6805.86745608295,0.0012392602843616116
6805.868455854873,0.0011414311403877449
6805.8694556267965,0.0010431309978550095
6805.870455398719,0.0009443847225063456
6805.871455170642,0.0008452173980480545
6805.872454942564,0.000745654319578808
6805.873454714487,0.0006457209868595905
6805.874454486409,0.0005454430974272894
6805.875454258333,0.00044484653955465274
6805.876454030255,0.00034395738505940774
6805.877453802178,0.00024280188196547996
6805.878453574101,0.00014140644701945488
6805.879453346023,3.97976580656573e-05
6805.880453117947,-6.199775371653918e-05
6805.881452889869,-0.00016395291170934556
6805.882452661792,-0.0002660408018831379
6805.883452433714,-0.00036823428094887717
6805.884452205637,-0.0004705060846322033
6805.8854519775605,-0.0005728288360650167
6805.886451749483,-0.0006751750542903592
6805.887451521406,-0.0007775171628764086
6805.888451293328,-0.0008798274986354062
6805.889451065251,-0.000982078320443303
6805.890450837174,-0.0010842418181558394
6805.891450609097,-0.0011862901216166508
6805.892450381019,-0.0012881953097527922
6805.893450152942,-0.001389929419752843
6805.894449924865,-0.0014914644563224346
6805.895449696787,-0.001592772401011717
6805.896449468711,-0.0016938252216089215
6805.897449240633,-0.0017945948815938444
6805.898449012556,-0.0018950533496447273
6805.899448784478,-0.0019951726091916636
6805.900448556401,-0.0020949246680093134
6805.9014483283245,-0.002194281567841426
6805.902448100247,-0.002293215394049467
6805.90344787217,-0.0023916982852776117
6805.904447644092,-0.0024897024431264512
6805.905447416015,-0.0025872001418279587
6805.906447187937,-0.0026841637379144993
6805.907446959861,-0.002780565679874952
6805.908446731783,-0.0028763785177913
6805.909446503706,-0.002971574912949385
6805.910446275629,-0.0030661276474178547
6805.911446047551,-0.0031600096335896483
6805.912445819475,-0.0032531939236806573
6805.913445591397,-0.003345653719180393
6805.91444536332,-0.0034373623802496428
6805.915445135242,-0.003528293435060201
6805.916444907165,-0.003618420589071818
6805.9174446790885,-0.0037077177342415757
6805.918444451011,-0.0037961589581609395
6805.919444222934,-0.0038837185531157394
6805.920443994856,-0.003970371025064274
6805.921443766779,-0.004056091102528686
6805.922443538702,-0.0041408537453946495
6805.923443310625,-0.004224634153614422
6805.924443082547,-0.00430740777580831
6805.92544285447,-0.0043891503177597825
6805.926442626393,-0.004469837750799641
6805.927442398315,-0.004549446320074857
6805.928442170239,-0.004627952552697866
6805.929441942161,-0.004705333265772244
6805.930441714084,-0.004781565574290795
6805.931441486006,-0.004856626898902179
6805.932441257929,-0.004930494973542356
6805.9334410298525,-0.005003147852927233
6805.934440801775,-0.005074563919903112
6805.935440573698,-0.0051447218926516484
6805.93644034562,-0.005213600831746278
6805.937440117543,-0.005281180147057292
6805.938439889466,-0.005347439604503064
6805.939439661389,-0.005412359332645228
6805.940439433311,-0.005475919829125843
6805.941439205234,-0.005538101966944826
6805.942438977157,-0.005598887000576091
6805.94343874908,-0.005658256571920967
6805.944438521003,-0.005716192716097661
6805.945438292925,-0.005772677867065553
6805.946438064848,-0.005827694863083151
6805.94743783677,-0.005881226951998584
6805.948437608693,-0.005933257796371462
6805.9494373806165,-0.005983771478424946
6805.950437152539,-0.0060327525048268806
6805.951436924462,-0.0060801858112989006
6805.952436696384,-0.006126056767052497
6805.953436468307,-0.006170351179051156
6805.95443624023,-0.006213055296097783
6805.955436012153,-0.006254155812746853
6805.956435784075,-0.006293639873040868
6805.957435555998,-0.006331495074070947
6805.958435327921,-0.006367709469361546
6805.959435099843,-0.006402271572079489
6805.960434871767,-0.006435170358067649
6805.961434643689,-0.006466395268703834
6805.962434415612,-0.006495936213585576
6805.963434187534,-0.006523783573041776
6805.964433959457,-0.006549928200472419
6805.9654337313805,-0.006574361424517728
6805.966433503303,-0.006597075051058391
6805.967433275226,-0.006618061365048606
6805.968433047148,-0.006637313132183788
6805.969432819071,-0.006654823600404783
6805.970432590994,-0.006670586501240365
6805.971432362917,-0.006684596050989601
6805.972432134839,-0.006696846951745341
6805.973431906762,-0.006707334392259577
6805.974431678685,-0.006716054048650779
6805.975431450608,-0.0067230020849526305
6805.976431222531,-0.006728175153503044
6805.977430994453,-0.006731570395171936
6805.978430766376,-0.006733185439426131
6805.979430538298,-0.006733018404229799
6805.980430310221,-0.006731067895778993
6805.9814300821445,-0.006727333008068963
6805.982429854067,-0.006721813322293081
6805.98342962599,-0.0067145089060722685
6805.984429397912,-0.006705420312513946
6805.985429169835,-0.006694548579099639
6805.986428941758,-0.006681895226400508
6805.987428713681,-0.006667462256620323
6805.988428485603,-0.0066512521519656335
6805.989428257526,-0.0066332678728431805
6805.990428029449,-0.006613512855884925
6805.991427801372,-0.006591991011801334
6805.992427573295,-0.006568706723063896
6805.993427345217,-0.0065436648414180796
6805.99442711714,-0.006516870685228267
6805.995426889062,-0.006488330036656314
6805.996426660986,-0.006458049138675624
6805.9974264329085,-0.006426034691922689
6805.998426204831,-0.0063922938513881885
6805.999425976754,-0.0063568342229499124
6806.000425748676,-0.006319663859749906
6806.001425520599,-0.00628079125841857
6806.002425292522,-0.006240225355148674
6806.003425064445,-0.006197975521622537
6806.004424836367,-0.006154051560795831
6806.00542460829,-0.006108463702541502
6806.006424380213,-0.006061222599157311
6806.007424152136,-0.006012339320740303
6806.008423924059,-0.005961825350431393
6806.009423695981,-0.005909692579533033
6806.010423467904,-0.005855953302502707
6806.011423239826,-0.005800620211824773
6806.012423011749,-0.00574370639276296
6806.0134227836725,-0.0056852253179956146
6806.014422555595,-0.005625190842135756
6806.015422327518,-0.005563617196137953
6806.01642209944,-0.0055005189815941985
6806.017421871363,-0.005435911164921106
6806.018421643286,-0.005369809071440977
6806.019421415209,-0.005302228379359494
6806.020421187131,-0.005233185113643039
6806.021420959054,-0.005162695639798806
6806.022420730977,-0.005090776657561059
6806.0234205029,-0.005017445194486943
6806.024420274823,-0.004942718599465257
6806.025420046745,-0.004866614536141586
6806.026419818668,-0.004789150976263038
6806.02741959059,-0.004710346192945865
6806.028419362514,-0.0046302187538691635
6806.0294191344365,-0.004548787514397983
6806.030418906359,-0.004466071610639251
6806.031418678282,-0.0043820904524341725
6806.032418450204,-0.004296863716290985
6806.033418222127,-0.004210411338262309
6806.03441799405,-0.004122753506771705
6806.035417765973,-0.004033910655394461
6806.036417537895,-0.003943903455597924
6806.037417309818,-0.0038527528094469193
6806.038417081741,-0.0037604798422797648
6806.039416853664,-0.0036671058953603028
6806.040416625587,-0.0035726525185110843
6806.041416397509,-0.0034771414627325177
6806.042416169432,-0.003380594672812382
6806.043415941354,-0.0032830342799296773
6806.044415713277,-0.003184482594256352
6806.0454154852005,-0.003084962097560079
6806.046415257123,-0.0029844954358110077
6806.047415029046,-0.0028831054117952246
6806.048414800968,-0.002780814977737524
6806.049414572891,-0.0026776472279359336
6806.050414344814,-0.00257362539141027
6806.051414116737,-0.0024687728245668178
6806.052413888659,-0.0023631130038810387
6806.053413660582,-0.002256669518600107
6806.054413432505,-0.002149466063466998
6806.055413204428,-0.002041526431467896
6806.056412976351,-0.0019328745066047764
6806.057412748273,-0.001823534256695176
6806.058412520196,-0.00171352972620132
6806.059412292118,-0.0016028850290909502
6806.060412064042,-0.00149162434173232
6806.0614118359645,-0.0013797718958259348
6806.062411607887,-0.001267351971375719
6806.06341137981,-0.0011543888897024065
6806.064411151732,-0.0010409070065020708
6806.065410923655,-0.0009269307049528183
6806.066410695578,-0.0008124843888727586
6806.067410467501,-0.0006975924759323773
6806.068410239423,-0.0005822793909243656
6806.069410011346,-0.00046656955909377986
6806.070409783269,-0.00035048739953111806
6806.071409555192,-0.00023405731863049525
6806.072409327115,-0.00011730370361463612
6806.073409099037,-2.5091612792055155e-07
6806.07440887096,0.00011707671410169228
6806.075408642882,0.0002346548955312975
6806.076408414806,0.00035245938100173684
6806.0774081867285,0.00047046597386571283
6806.078407958651,0.0005886505340443958
6806.079407730574,0.0007069889840112304
6806.080407502496,0.0008254573147012908
6806.08140727442,0.0009440315913442357
6806.082407046342,0.0010626879592187095
6806.083406818265,0.0011814026493259236
6806.084406590187,0.0013001519839801617
6806.08540636211,0.0014189123823140637
6806.086406134033,0.0015376603656967226
6806.087405905956,0.001656372563062859
6806.088405677879,0.0017750257161515597
6806.089405449801,0.0018935966846532783
6806.090405221724,0.002012062451263974
6806.091404993646,0.002130400126645359
6806.09240476557,0.002248586954290251
6806.0934045374925,0.0023666003152919774
6806.094404309415,0.002484417733016722
6806.095404081338,0.0026020168776776653
6806.09640385326,0.002719375570809791
6806.097403625183,0.002836471789644298
6806.098403397106,0.0029532836713816847
6806.099403169029,0.0030697895173627102
6806.100402940951,0.003185967797136633
6806.101402712874,0.003301797152426249
6806.102402484797,0.0034172564009893516
6806.10340225672,0.0035323245403762445
6806.104402028643,0.0036469807515829163
6806.105401800565,0.0037612044025994314
6806.106401572488,0.0038749750518530814
6806.10740134441,0.003988272451545867
6806.108401116334,0.004101076550885977
6806.1094008882565,0.004213367499213039
6806.110400660179,0.004325125649017013
6806.111400432102,0.004436331558850645
6806.112400204024,0.00454696599613536
6806.113399975948,0.004657009939860373
6806.11439974787,0.004766444583174746
6806.115399519793,0.004875251335872114
6806.116399291715,0.004983411826767917
6806.117399063638,0.0050909079059690944
6806.118398835561,0.005197721647036284
6806.119398607484,0.005303835349038675
6806.120398379407,0.005409231538501675
6806.121398151329,0.005513892971247542
6806.122397923252,0.005617802634129128
6806.123397695174,0.0057209437466567755
6806.124397467098,0.005823299762518302
6806.1253972390205,0.005924854370991923
6806.126397010943,0.006025591498251813
6806.127396782866,0.00612549530856593
6806.128396554788,0.006224550205385718
6806.129396326711,0.006322740832327399
6806.130396098634,0.006420052074044745
6806.131395870557,0.006516469056993529
6806.132395642479,0.006611977150088144
6806.133395414402,0.006706561965251217
6806.134395186325,0.006800209357857341
6806.135394958248,0.006892905427072216
6806.136394730171,0.006984636516088616
6806.137394502093,0.007075389212260649
6806.138394274016,0.007165150347137777
6806.139394045938,0.007253906996400107
6806.140393817862,0.007341646479696514
6806.1413935897845,0.007428356360387285
6806.142393361707,0.007514024445193051
6806.14339313363,0.007598638783751984
6806.144392905552,0.007682187668087288
6806.145392677476,0.00776465963198711
6806.146392449398,0.007846043450299007
6806.147392221321,0.00792632813814111
6806.148391993243,0.00800550295003214
6806.149391765166,0.008083557378942388
6806.150391537089,0.0081604811552679
6806.151391309012,0.008236264245730178
6806.152391080935,0.008310896852204012
6806.153390852857,0.008384369410476187
6806.15439062478,0.00845667258893806
6806.155390396702,0.008527797287215132
6806.156390168626,0.008597734634736705
6806.1573899405485,0.00866647598924874
6806.158389712471,0.008734012935272964
6806.159389484394,0.00880033728251513
6806.160389256316,0.008865441064225172
6806.16138902824,0.008929316535511754
6806.162388800162,0.008991956171613313
6806.163388572085,0.009053352666127347
6806.164388344007,0.00911349892919941
6806.16538811593,0.009172388085672993
6806.1663878878535,0.009230013473201345
6806.167387659776,0.009286368640322193
6806.168387431699,0.009341447344496316
6806.169387203621,0.009395243550110939
6806.170386975544,0.009447751426449
6806.171386747466,0.009498965345625597
6806.17238651939,0.009548879880493168
6806.173386291312,0.009597489802517253
6806.174386063235,0.009644790079625008
6806.175385835158,0.009690775874028688
6806.17638560708,0.009735442540026422
6806.177385379004,0.00977878562178242
6806.178385150926,0.009820800851088628
6806.179384922849,0.009861484145109472
6806.180384694771,0.009900831604111269
6806.181384466694,0.009938839509177655
6806.182384238617,0.009975504319912367
6806.18338401054,0.010010822672130736
6806.184383782463,0.010044791375541241
6806.185383554385,0.010077407411418576
6806.186383326308,0.0101086679302697
6806.18738309823,0.010138570249494445
6806.188382870154,0.010167111851042323
6806.189382642076,0.010194290379067276
6806.190382413999,0.010220103637582259
6806.191382185922,0.010244549588115586
6806.192381957844,0.010267626347371099
6806.193381729768,0.010289332184894319
6806.19438150169,0.010309665520746943
6806.195381273613,0.010328624923192139
6806.196381045535,0.010346209106393188
6806.197380817458,0.010362416928128051
6806.1983805893815,0.010377247387522236
6806.199380361304,0.01039069962280212
6806.200380133227,0.010402772909070598
6806.201379905149,0.010413466656106606
6806.202379677072,0.01042278040618992
6806.203379448994,0.010430713831952387
6806.204379220918,0.010437266734256757
6806.20537899284,0.010442439040104109
6806.206378764763,0.010446230800570857
6806.207378536686,0.01044864218877625
6806.208378308608,0.010449673497881317
6806.209378080532,0.010449325139120296
6806.210377852454,0.0104475976398657
6806.211377624377,0.010444491641728365
6806.212377396299,0.010440007898693855
6806.213377168222,0.010434147275296554
6806.2143769401455,0.010426910744832662
6806.215376712068,0.010418299387613033
6806.216376483991,0.01040831438925657
6806.217376255913,0.010396957039024709
6806.218376027836,0.010384228728197387
6806.219375799759,0.010370130948490876
6806.220375571682,0.010354665290518074
6806.221375343604,0.010337833442292022
6806.222375115527,0.010319637187773784
6806.22337488745,0.010300078405466154
6806.224374659372,0.010279159067055024
6806.225374431296,0.01025688123610056
6806.226374203218,0.010233247066780566
6806.227373975141,0.010208258802688434
6806.228373747063,0.01018191877568792
6806.229373518986,0.010154229404826614
6806.2303732909095,0.010125193195309422
6806.231373062832,0.010094812737532757
6806.232372834755,0.010063090706179681
6806.233372606677,0.010030029859375855
6806.2343723786,0.009995633037905986
6806.235372150522,0.009959903164490568
6806.236371922446,0.009922843243122901
6806.237371694368,0.009884456358466742
6806.238371466291,0.009844745675315321
6806.239371238214,0.009803714438112758
6806.240371010136,0.009761365970539216
6806.24137078206,0.009717703675161301
6806.242370553982,0.009672731033149189
6806.243370325905,0.009626451604061908
6806.244370097827,0.00957886902570188
6806.24536986975,0.009529987014039468
6806.2463696416735,0.009479809363207792
6806.247369413596,0.0094283399455677
6806.248369185519,0.00937558271184234
6806.249368957441,0.009321541691320462
6806.250368729364,0.009266220992127329
6806.251368501287,0.009209624801562002
6806.25236827321,0.009151757386499669
6806.253368045132,0.00909262309385774
6806.254367817055,0.009032226351124524
6806.255367588978,0.008970571666949397
6806.2563673609,0.008907663631793508
6806.257367132824,0.008843506918640316
6806.258366904746,0.008778106283765314
6806.259366676669,0.008711466567564516
6806.260366448591,0.008643592695441325
6806.261366220514,0.008574489678751428
6806.2623659924375,0.0085041626158053
6806.26336576436,0.008432616692927863
6806.264365536283,0.008359857185574757
6806.265365308205,0.008285889459504599
6806.266365080128,0.008210718972006542
6806.26736485205,0.008134351273182532
6806.268364623974,0.008056792007283665
6806.269364395896,0.007978046914100242
6806.270364167819,0.007898121830405202
6806.271363939742,0.00781702269145071
6806.272363711664,0.007734755532517768
6806.273363483588,0.007651326490518742
6806.27436325551,0.0075667418056528804
6806.275363027433,0.007481007823114958
6806.276362799355,0.007394130994857323
6806.277362571278,0.0073061178814057375
6806.2783623432015,0.00721697515372941
6806.279362115124,0.00712670959516561
6806.280361887047,0.0070353281033990935
6806.281361658969,0.006942837692496391
6806.282361430892,0.006849245494994708
6806.283361202815,0.006754558764044885
6806.284360974738,0.006658784875607534
6806.28536074666,0.006561931330701142
6806.286360518583,0.006464005757700668
6806.287360290506,0.006365015914684986
6806.288360062428,0.0062649696918314
6806.289359834352,0.00616387511385543
6806.290359606274,0.006061740342494044
6806.291359378197,0.0059585736790304395
6806.292359150119,0.005854383566858473
6806.293358922042,0.005749178594084739
6806.2943586939655,0.005642967496166179
6806.295358465888,0.005535759158581016
6806.296358237811,0.005427562619530614
6806.297358009733,0.0053183870726697035
6806.298357781656,0.005208241869862178
6806.299357553579,0.005097136523959408
6806.300357325502,0.004985080711597846
6806.301357097424,0.004872084276012449
6806.302356869347,0.004758157229862331
6806.30335664127,0.004643309758064871
6806.304356413193,0.004527552220634393
6806.305356185116,0.004410895155521465
6806.306355957038,0.004293349281448911
6806.307355728961,0.004174925500740809
6806.308355500883,0.004055634902141003
6806.309355272806,0.003935488763617973
6806.3103550447295,0.0038144985551532887
6806.311354816652,0.0036926759415112156
6806.312354588575,0.0035700327849874872
6806.313354360497,0.003446581148135676
6806.31435413242,0.003322333296469987
6806.315353904343,0.003197301701143621
6806.316353676266,0.0030714990416020596
6806.317353448188,0.0029449382082107245
6806.318353220111,0.0028176323048565263
6806.319352992034,0.0026895946515227832
6806.320352763956,0.002560838786836942
6806.32135253588,0.0024313784705904716
6806.322352307802,0.0023012276862301928
6806.323352079725,0.002170400643320192
6806.324351851647,0.0020389117799733303
6806.32535162357,0.001906775765251154
6806.3263513954935,0.0017740075015307956
6806.327351167416,0.0016406221268371632
6806.328350939339,0.0015066350171384182
6806.329350711261,0.0013720617886024287
6806.330350483184,0.0012369182998116018
6806.331350255107,0.0011012206539332756
6806.33235002703,0.0009649852008427071
6806.333349798952,0.0008282285391956063
6806.334349570875,0.0006909675184470776
6806.335349342798,0.0005532192408136817
6806.336349114721,0.00041500106317509793
6806.337348886644,0.0002763305989115274
6806.338348658566,0.00013722571967259096
6806.339348430489,-2.2954429269365823e-06
6806.340348202411,-0.00014221449568957968
6806.341347974334,-0.00028251278230109354
6806.3423477462575,-0.0004231713818852975
6806.34334751818,-0.0005641711076532417
6806.344347290103,-0.0007054925056520716
6806.345347062025,-0.0008471158536188725
6806.346346833948,-0.0009890211599447344
6806.347346605871,-0.0011311881627542651
6806.348346377794,-0.001273596329105783
6806.349346149716,-0.001416224854317394
6806.350345921639,-0.0015590526614240798
6806.351345693562,-0.001702058400770811
6806.352345465485,-0.0018452204497465365
6806.353345237408,-0.0019885169126637255
6806.35434500933,-0.002131925620787959
6806.355344781253,-0.0022754241325219408
6806.356344553175,-0.0024189897337482474
6806.357344325099,-0.0025625994383351746
6806.3583440970215,-0.00270622998881012
6806.359343868944,-0.0028498578572050274
6806.360343640867,-0.00299345924607853
6806.361343412789,-0.003137010089719494
6806.362343184712,-0.0032804860555367393
6806.363342956635,-0.0034238625456397484
6806.364342728558,-0.0035671146986151576
6806.36534250048,-0.003710217391503785
6806.366342272403,-0.0038531452419829065
6806.367342044326,-0.003995872610758395
6806.368341816249,-0.004138373604171241
6806.369341588172,-0.004280622077022833
6806.370341360094,-0.004422591635623259
6806.371341132017,-0.004564255641066685
6806.372340903939,-0.004705587212737727
6806.373340675862,-0.004846559232052524
6806.3743404477855,-0.004987144346437988
6806.375340219708,-0.00512731497355251
6806.376339991631,-0.00526704330575107
6806.377339763553,-0.005406301314797441
6806.378339535476,-0.005545060756825796
6806.379339307399,-0.005683293177553714
6806.380339079322,-0.005820969917748188
6806.381338851244,-0.005958062118945905
6806.382338623167,-0.00609454072942875
6806.38333839509,-0.006230376510455187
6806.384338167013,-0.006365540042747964
6806.385337938936,-0.006500001733238347
6806.386337710858,-0.006633731822066819
6806.387337482781,-0.006766700389840002
6806.388337254703,-0.006898877365143348
6806.389337026627,-0.007030232532308981
6806.3903367985495,-0.007160735539438035
6806.391336570472,-0.0072903559066768795
6806.392336342395,-0.007419063034746744
6806.393336114317,-0.007546826213726389
6806.39433588624,-0.007673614632087627
6806.395335658163,-0.007799397385983432
6806.396335430086,-0.007924143488788256
6806.397335202008,-0.008047821880889764
6806.398334973931,-0.008170401439730789
6806.399334745854,-0.008291850990099561
6806.400334517777,-0.008412139314665562
6806.4013342897,-0.008531235164757513
6806.402334061622,-0.008649107271379214
6806.403333833545,-0.008765724356458195
6806.404333605467,-0.008881055144321567
6806.40533337739,-0.00899506837339293
6806.4063331493135,-0.00910773280810398
6806.407332921236,-0.009219017251014316
6806.408332693159,-0.009328890555132937
6806.409332465081,-0.009437321636434917
6806.410332237004,-0.009544279486566824
6806.411332008927,-0.009649733185734335
6806.41233178085,-0.009753651915765525
6806.413331552772,-0.00985600497334329
6806.414331324695,-0.009956761783400372
6806.415331096618,-0.010055891912670598
6806.416330868541,-0.010153365083390048
6806.417330640464,-0.010249151187141882
6806.418330412386,-0.010343220298838624
6806.419330184309,-0.010435542690835704
6806.420329956231,-0.010526088847170123
6806.421329728155,-0.010614829477918145
6806.4223295000775,-0.010701735533665834
6806.423329272,-0.010786778220086253
6806.424329043923,-0.010869929012616941
6806.425328815845,-0.010951159671231152
6806.426328587768,-0.011030442255296142
6806.427328359691,-0.01110774913851142
6806.428328131614,-0.011183053023919693
6806.429327903536,-0.011256326958982725
6806.430327675459,-0.011327544350714041
6806.431327447382,-0.011396678980859953
6806.432327219305,-0.011463705021120029
6806.433326991228,-0.011528597048397721
6806.43432676315,-0.011591330060071521
6806.435326535073,-0.011651879489276623
6806.436326306995,-0.011710221220186905
6806.437326078919,-0.01176633160328664
6806.4383258508415,-0.01182018747062113
6806.439325622764,-0.011871766151015008
6806.440325394687,-0.011921045485246697
6806.441325166609,-0.011968003841166985
6806.442324938533,-0.01201262012874944
6806.443324710455,-0.012054873815060119
6806.444324482378,-0.012094744939133902
6806.4453242543,-0.012132214126744733
6806.446324026223,-0.012167262605057124
6806.447323798146,-0.012199872217146255
6806.448323570069,-0.012230025436374086
6806.449323341992,-0.01225770538060893
6806.450323113914,-0.01228289582627592
6806.451322885837,-0.012305581222225807
6806.452322657759,-0.012325746703409409
6806.453322429683,-0.01234337810434488
6806.4543222016055,-0.012358461972364745
6806.455321973528,-0.012370985580629351
6806.456321745451,-0.012380936940893112
6806.457321517373,-0.012388304816009693
6806.458321289296,-0.012393078732161953
6806.459321061219,-0.012395248990802247
6806.460320833142,-0.012394806680288398
6806.461320605064,-0.012391743687200212
6806.462320376987,-0.012386052707320988
6806.46332014891,-0.012377727256267955
6806.464319920833,-0.012366761679755187
6806.465319692756,-0.012353151163472322
6806.466319464678,-0.012336891742562445
6806.467319236601,-0.012317980310682812
6806.468319008523,-0.012296414628632573
6806.469318780447,-0.012272193332532171
6806.4703185523695,-0.012245315941539709
6806.471318324292,-0.012215782865090221
6806.472318096215,-0.012183595409644189
6806.473317868137,-0.012148755784932217
6806.474317640061,-0.01211126710968329
6806.475317411983,-0.012071133416824533
6806.476317183906,-0.012028359658140957
6806.477316955828,-0.011982951708384367
6806.478316727751,-0.011934916368821097
6806.479316499674,-0.01188426137020885
6806.480316271597,-0.01183099537519319
6806.48131604352,-0.011775127980114415
6806.482315815442,-0.011716669716215414
6806.483315587365,-0.011655632050240962
6806.484315359287,-0.011592027384418493
6806.485315131211,-0.01152586905581006
6806.4863149031335,-0.011457171335024911
6806.487314675056,-0.01138594942428199
6806.488314446979,-0.011312219454811749
6806.489314218901,-0.011235998483586808
6806.490313990824,-0.011157304489371347
6806.491313762747,-0.011076156368079564
6806.49231353467,-0.010992573927434048
6806.493313306592,-0.010906577880915513
6806.494313078515,-0.010818189840996093
6806.495312850438,-0.010727432311649403
6806.496312622361,-0.010634328680131741
6806.497312394284,-0.01053890320803041
6806.498312166206,-0.01044118102157696
6806.499311938129,-0.010341188101225314
6806.500311710051,-0.010238951270497058
6806.501311481975,-0.010134498184098692
6806.5023112538975,-0.010027857315318337
6806.50331102582,-0.009919057942712129
6806.504310797743,-0.009808130136093334
6806.505310569665,-0.009695104741840089
6806.506310341589,-0.009580013367540455
6806.507310113511,-0.009462888365996222
6806.508309885434,-0.009343762818609398
6806.509309657356,-0.009222670518177517
6806.510309429279,-0.009099645951125876
6806.511309201202,-0.008974724279206371
6806.512308973125,-0.008847941320694046
6806.513308745048,-0.008719333531113586
6806.51430851697,-0.008588937983528909
6806.515308288893,-0.008456792348429663
6806.516308060815,-0.008322934873248906
6806.517307832739,-0.008187404361546271
6806.5183076046615,-0.00805024015189084
6806.519307376584,-0.007911482096477594
6806.520307148507,-0.007771170539510724
6806.521306920429,-0.007629346295386411
6806.522306692353,-0.007486050626706809
6806.523306464275,-0.007341325222156204
6806.524306236198,-0.00719521217426945
6806.52530600812,-0.007047753957122031
6806.526305780043,-0.006898993403970199
6806.527305551967,-0.0067489736848687166
6806.528305323889,-0.0065977382842926395
6806.529305095812,-0.00644533097878841
6806.530304867734,-0.006291795814678226
6806.531304639657,-0.006137177085840351
6806.532304411579,-0.0059815193115866664
6806.533304183503,-0.005824867214657323
6806.5343039554255,-0.005667265699350954
6806.535303727348,-0.005508759829807476
6806.536303499271,-0.005349394808459219
6806.537303271193,-0.005189215954664793
6806.538303043117,-0.00502826868353888
6806.539302815039,-0.004866598484990033
6806.540302586962,-0.004704250902977513
6806.541302358884,-0.004541271514997332
6806.542302130807,-0.004377705911806894
6806.54330190273,-0.004213599677396977
6806.544301674653,-0.004048998369219197
6806.545301446576,-0.003883947498676616
6806.546301218498,-0.00371849251188469
6806.547300990421,-0.0035526787707093306
6806.548300762343,-0.0033865515340884655
6806.549300534267,-0.0032201559396430484
6806.5503003061895,-0.0030535369855831107
6806.551300078112,-0.002886739512914107
6806.552299850035,-0.0027198081879484764
6806.553299621957,-0.002552787485127027
6806.554299393881,-0.0023857216701543655
6806.555299165803,-0.0022186547834521764
6806.556298937726,-0.0020516306239337437
6806.557298709648,-0.0018846927331027706
6806.558298481571,-0.0017178843794792482
6806.559298253495,-0.001551248543354883
6806.560298025417,-0.0013848279018803858
6806.56129779734,-0.0012186648144867135
6806.562297569262,-0.0010528013086422078
6806.563297341185,-0.0008872790659474487
6806.564297113107,-0.0007221394085695589
6806.565296885031,-0.0005574232860176548
6806.566296656953,-0.0003931712622611045
6806.567296428876,-0.00022942350319221617
6806.568296200799,-6.62197644349017e-05
6806.569295972721,9.640062049924705e-05
6806.570295744645,0.00025839875170617367
6806.571295516567,0.0004197361740347242
6806.57229528849,0.000580374887881163
6806.573295060412,0.0007402773596319409
6806.574294832335,0.0008994065317538844
6806.5752946042585,0.0010577258325310047
6806.576294376181,0.0012151991854471317
6806.577294148104,0.0013717910182136036
6806.578293920026,0.0015274662714413372
6806.579293691949,0.0016821904069568266
6806.580293463872,0.0018359294157619661
6806.581293235795,0.001988649825638045
6806.582293007717,0.002140318708394754
6806.58329277964,0.002290903686765534
6806.584292551563,0.0024403729409510464
6806.585292323485,0.0025886952148129845
6806.586292095409,0.002735839821720886
6806.587291867331,0.002881776650055059
6806.588291639254,0.003026476168369203
6806.589291411176,0.003169909430216669
6806.590291183099,0.0033120480786445355
6806.591290955023,0.00345286435035966
6806.592290726945,0.00359233107957073
6806.593290498868,0.0037304217015100383
6806.59429027079,0.0038671102556383963
6806.595290042713,0.004002371388536312
6806.596289814635,0.004136180356484339
6806.597289586559,0.0042685130277354405
6806.598289358481,0.004399345884482179
6806.599289130404,0.004528656024521654
6806.600288902327,0.00465642116262122
6806.601288674249,0.0047826196315881786
6806.602288446173,0.004907230383046724
6806.603288218095,0.005030232987925547
6806.604287990018,0.005151607636659473
6806.60528776194,0.005271335139108478
6806.606287533863,0.005389396924197416
6806.6072873057865,0.005505775039279832
6806.608287077709,0.005620452149229337
6806.609286849632,0.005733411535262266
6806.610286621554,0.005844637093495618
6806.611286393477,0.0059541133332446875
6806.6122861654,0.0060618253750652044
6806.613285937323,0.006167758948545263
6806.614285709245,0.006271900389852667
6806.615285481168,0.006374236639043757
6806.616285253091,0.006474755237140092
6806.617285025013,0.006573444322979754
6806.618284796937,0.006670292629850363
6806.619284568859,0.006765289481911202
6806.620284340782,0.006858424790412144
6806.621284112704,0.006949689049717238
6806.622283884627,0.007039073333140898
6806.623283656551,0.007126569288604555
6806.624283428473,0.007212169134121507
6806.625283200396,0.00729586565311741
6806.626282972318,0.007377652189593545
6806.627282744241,0.007457522643139583
6806.628282516163,0.007535471463802155
6806.629282288087,0.007611493646815109
6806.630282060009,0.0076855847271969134
6806.631281831932,0.007757740774220337
6806.632281603855,0.007827958385759311
6806.633281375777,0.007896234682517718
6806.634281147701,0.007962567302144832
6806.635280919623,0.008026954393242138
6806.636280691546,0.008089394609266247
6806.637280463468,0.008149887102332621
6806.638280235391,0.00820843151692482
6806.6392800073145,0.008265027983513936
6806.640279779237,0.008319677112092902
6806.64127955116,0.008372379985630235
6806.642279323082,0.00842313815344779
6806.643279095005,0.008471953624526933
6806.644278866928,0.008518828860747492
6806.645278638851,0.008563766770063626
6806.646278410773,0.008606770699620741
6806.647278182696,0.008647844428817483
6806.648277954619,0.008686992162316923
6806.649277726541,0.008724218523011081
6806.650277498465,0.008759528544942996
6806.651277270387,0.00879292766619064
6806.65227704231,0.008824421721716913
6806.653276814232,0.008854016936189863
6806.654276586155,0.008881719916777107
6806.655276358079,0.008907537645918295
6806.656276130001,0.008931477474079397
6806.657275901924,0.008953547112492598
6806.658275673846,0.008973754625885661
6806.659275445769,0.008992108425204818
6806.660275217692,0.009008617260335335
6806.661274989615,0.009023290212824107
6806.662274761537,0.009036136688608741
6806.66327453346,0.009047166410757741
6806.664274305383,0.00905638941222653
6806.665274077306,0.009063816028634122
6806.666273849229,0.009069456891065301
6806.667273621151,0.009073322918903155
6806.668273393074,0.009075425312696731
6806.669273164996,0.009075775547068532
6806.670272936919,0.009074385363666485
6806.6712727088425,0.009071266764164993
6806.672272480765,0.009066432003319622
6806.673272252688,0.00905989358207987
6806.67427202461,0.00905166424076438
6806.675271796533,0.009041756952302776
6806.676271568456,0.00903018491554807
6806.677271340379,0.009016961548663315
6806.678271112301,0.009002100482585873
6806.679270884224,0.008985615554572305
6806.680270656147,0.008967520801826456
6806.681270428069,0.00894783045521297
6806.682270199993,0.00892655893305808
6806.683269971915,0.008903720835039175
6806.684269743838,0.008879330936164402
6806.68526951576,0.00885340418084327
6806.686269287683,0.008825955677049111
6806.687269059607,0.00879700069057406
6806.688268831529,0.00876655463937709
6806.689268603452,0.008734633088025622
6806.690268375374,0.0087012517422312
6806.691268147297,0.008666426443479798
6806.69226791922,0.008630173163757263
6806.693267691143,0.008592508000370558
6806.694267463065,0.008553447170865454
6806.695267234988,0.008513007008041371
6806.696267006911,0.008471203955064184
6806.697266778834,0.008428054560677823
6806.698266550757,0.008383575474515598
6806.699266322679,0.008337783442512165
6806.700266094602,0.008290695302416974
6806.701265866524,0.00824232797941002
6806.702265638447,0.008192698481820696
6806.7032654103705,0.00814182389695049
6806.704265182293,0.008089721387000297
6806.705264954216,0.00803640818510298
6806.706264726138,0.007981901591461808
6806.707264498061,0.007926218969595118
6806.708264269984,0.007869377742687391
6806.709264041907,0.007811395390046677
6806.710263813829,0.007752289443668102
6806.711263585752,0.007692077484903069
6806.712263357675,0.007630777141233619
6806.713263129598,0.007568406083151398
6806.714262901521,0.007504982021140659
6806.715262673443,0.007440522702764721
6806.716262445366,0.007375045909855269
6806.717262217288,0.007308569455803812
6806.718261989212,0.007241111182954557
6806.719261761135,0.007172688960097798
6806.720261533057,0.0071033206800628235
6806.72126130498,0.007033024257409139
6806.722261076902,0.006961817626214643
6806.723260848825,0.006889718737959213
6806.724260620748,0.0068167455595019915
6806.725260392671,0.006742916071150607
6806.726260164593,0.0066682482648205655
6806.727259936516,0.006592760142283051
6806.728259708439,0.0065164697134994145
6806.729259480362,0.0064393949950406195
6806.730259252285,0.00636155400858989
6806.731259024207,0.006282964779526688
6806.73225879613,0.00620364533558993
6806.733258568052,0.00612361370561808
6806.734258339975,0.006042887918363332
6806.7352581118985,0.005961486001376673
6806.736257883821,0.0058794259799601544
6806.737257655744,0.005796725876182136
6806.738257427666,0.005713403707950858
6806.739257199589,0.005629477488141115
6806.740256971512,0.005544965223768455
6806.741256743435,0.005459884915204967
6806.742256515357,0.005374254555430528
6806.74325628728,0.005288092129313294
6806.744256059203,0.005201415612913249
6806.745255831126,0.005114242972802718
6806.746255603049,0.005026592165397954
6806.747255374971,0.004938481136296118
6806.748255146894,0.004849927819612328
6806.749254918816,0.0047609501373117825
6806.75025469074,0.004671565998532467
6806.751254462663,0.0045817932988943925
6806.752254234585,0.00449164991979184
6806.753254006508,0.004401153727665536
6806.75425377843,0.004310322573252162
6806.755253550353,0.00421917429080894
6806.756253322276,0.004127726697311289
6806.757253094199,0.004035997591621716
6806.758252866121,0.003944004753628188
6806.759252638044,0.0038517659433502244
6806.760252409967,0.003759298900010962
6806.76125218189,0.0036666213410733823
6806.762251953813,0.003573750961238917
6806.763251725735,0.003480705431406643
6806.764251497658,0.0033875023975913263
6806.76525126958,0.003294159479798713
6806.766251041503,0.0032006942708566015
6806.7672508134265,0.003107124335200461
6806.768250585349,0.0030134672076125757
6806.769250357272,0.0029197403919138934
6806.770250129194,0.0028259613596078995
6806.771249901117,0.0027321475484759637
6806.77224967304,0.0026383163611235676
6806.773249444963,0.0025444851634768124
6806.774249216885,0.0024506712832285168
6806.775248988808,0.0023568920082331244
6806.776248760731,0.002263164584849589
6806.777248532654,0.0021695062162314298
6806.778248304577,0.0020759340605632313
6806.779248076499,0.001982465229243023
6806.780247848422,0.0018891167850101586
6806.781247620344,0.0017959057400185178
6806.782247392268,0.0017028490538550445
6806.783247164191,0.0016099636315037985
6806.784246936113,0.001517266321255887
6806.785246708036,0.0014247739125658218
6806.786246479958,0.0013325031338550445
6806.787246251881,0.0012404706502636017
6806.788246023804,0.001148693061351177
6806.789245795727,0.0010571868987489135
6806.790245567649,0.0009659686237636253
6806.791245339572,0.0008750546249361321
6806.792245111495,0.0007844612155555316
6806.793244883418,0.0006942046311312697
6806.794244655341,0.0006043010268248451
6806.795244427263,0.0005147664748428967
6806.796244199186,0.000425616961793297
6806.797243971108,0.00033686838600573984
6806.798243743032,0.00024853655481819203
6806.7992435149545,0.00016063718183048834
6806.800243286877,7.318588412631873e-05
6806.8012430588,-1.380182053510589e-05
6806.802242830722,-0.000100310516556328
6806.803242602646,-0.0001863248933663402
6806.804242374568,-0.00027182974831102357
6806.805242146491,-0.00035680998956746316
6806.806241918413,-0.0004412506390800708
6806.807241690336,-0.0005251368355162285
6806.808241462259,-0.0006084538372389405
6806.809241234182,-0.0006911870252937353
6806.810241006105,-0.0007733219064067735
6806.811240778027,-0.0008548441159907779
6806.81224054995,-0.000935739421155031
6806.813240321872,-0.001015993723715337
6806.814240093796,-0.0010955930631995853
6806.815239865719,-0.0011745236198444412
6806.816239637641,-0.0012527717175787488
6806.817239409564,-0.0013303238269894613
6806.818239181486,-0.0014071665682662364
6806.819238953409,-0.001483286714121199
6806.820238725332,-0.001558671192680729
6806.821238497255,-0.0016333070903464663
6806.822238269177,-0.0017071816546230406
6806.8232380411,-0.0017802822969103468
6806.824237813023,-0.0018525965952584846
6806.825237584946,-0.0019241122970837332
6806.826237356869,-0.0019948173218441063
6806.827237128791,-0.002064699763673092
6806.828236900714,-0.0021337478939701723
6806.829236672636,-0.0022019501639466655
6806.83023644456,-0.0022692952071253756
6806.8312362164825,-0.002335771841792542
6806.832235988405,-0.002401369073400604
6806.833235760328,-0.0024660760969203934
6806.83423553225,-0.0025298822991414852
6806.835235304174,-0.002592777260919662
6806.836235076096,-0.002654750759370674
6806.837234848019,-0.0027157927700097485
6806.838234619941,-0.0027758934688364902
6806.839234391864,-0.002835043234364945
6806.840234163787,-0.00289323264959862
6806.84123393571,-0.0029504525039502094
6806.842233707633,-0.003006693795105745
6806.843233479555,-0.003061947730832844
6806.844233251478,-0.003116205730732772
6806.8452330234,-0.0031694594279361313
6806.846232795324,-0.003221700670742098
6806.847232567247,-0.003272921524201207
6806.848232339169,-0.0033231142716416842
6806.849232111092,-0.003372271416139289
6806.850231883014,-0.003420385681930533
6806.851231654937,-0.0034674500157691316
6806.85223142686,-0.003513457588225527
6806.853231198783,-0.0035584017949293945
6806.854230970705,-0.0036022762577550015
6806.855230742628,-0.0036450748259492178
6806.856230514551,-0.0036867915772017864
6806.857230286474,-0.0037274208186572266
6806.858230058397,-0.003766957087867478
6806.859229830319,-0.003805395153684168
6806.860229602242,-0.0038427300170892254
6806.861229374164,-0.003878956911962481
6806.862229146088,-0.003914071305784913
6806.8632289180105,-0.003948068900276298
6806.864228689933,-0.0039809456319662324
6806.865228461856,-0.0040126976726977456
6806.866228233778,-0.004043321430063047
6806.867228005702,-0.0040728135477712465
6806.868227777624,-0.0041011709059481745
6806.869227549547,-0.0041283906213686284
6806.870227321469,-0.004154470047621526
6806.871227093392,-0.004179406775208498
6806.872226865315,-0.004203198631576454
6806.873226637238,-0.004225843681084611
6806.874226409161,-0.004247340224906398
6806.875226181083,-0.004267686800866581
6806.876225953006,-0.004286882183213879
6806.877225724928,-0.004304925382329213
6806.878225496852,-0.004321815644369669
6806.879225268775,-0.004337552450848202
6806.880225040697,-0.0043521355181491694
6806.88122481262,-0.004365564796979899
6806.882224584542,-0.004377840471758673
6806.883224356466,-0.00438896295993967
6806.884224128388,-0.0043989329112755745
6806.885223900311,-0.00440775120701869
6806.886223672233,-0.00441541895906156
6806.887223444156,-0.004421937509018255
6806.88822321608,-0.004427308427247657
6806.889222988002,-0.004431533511820247
6806.890222759925,-0.004434614787430022
6806.891222531847,-0.004436554504253269
6806.89222230377,-0.004437355136756031
6806.893222075692,-0.004437019382452148
6806.894221847616,-0.004435550160613769
6806.8952216195385,-0.004432950610936238
6806.896221391461,-0.004429224092159185
6806.897221163384,-0.004424374180645579
6806.898220935306,-0.004418404668920364
6806.89922070723,-0.004411319564170115
6806.900220479152,-0.004403123086704946
6806.901220251075,-0.004393819668383631
6806.902220022997,-0.004383413951002582
6806.90321979492,-0.0043719107846491335
6806.904219566843,-0.004359315226019269
6806.905219338766,-0.004345632536699863
6806.906219110689,-0.004330868181415364
6806.907218882611,-0.004315027826238884
6806.908218654534,-0.004298117336767585
6806.909218426456,-0.004280142776262294
6806.91021819838,-0.004261110403751189
6806.911217970303,-0.004241026672097362
6806.912217742225,-0.004219898226029935
6806.913217514148,-0.0041977319001382735
6806.91421728607,-0.004174534716828723
6806.915217057994,-0.004150313884243185
6806.916216829916,-0.004125076794138768
6806.917216601839,-0.004098831019727661
6806.918216373761,-0.0040715843134763625
6806.919216145684,-0.0040433446048634076
6806.920215917608,-0.004014119998094836
6806.92121568953,-0.0039839187697767765
6806.922215461453,-0.003952749366544735
6806.923215233375,-0.003920620402649436
6806.924215005298,-0.0038875406574993905
6806.92521477722,-0.00385351907316065
6806.926214549144,-0.0038185647518145546
6806.9272143210665,-0.0037826869531745622
6806.928214092989,-0.0037458950918635163
6806.929213864912,-0.0037081987347529306
6806.930213636834,-0.003669607598266041
6806.931213408758,-0.0036301315456464906
6806.93221318068,-0.0035897805841945724
6806.933212952603,-0.0035485648624729057
6806.934212724525,-0.003506494667483359
6806.935212496448,-0.0034635804218168934
6806.936212268372,-0.00341983268077787
6806.937212040294,-0.003375262129484231
6806.938211812217,-0.003329879579944888
6806.939211584139,-0.0032836959681155917
6806.940211356062,-0.00323672235093453
6806.941211127985,-0.0031889699033389386
6806.942210899908,-0.0031404499152640664
6806.943210671831,-0.003091173788626015
6806.944210443753,-0.003041153034290182
6806.945210215676,-0.0029903992690272787
6806.946209987598,-0.0029389242124591244
6806.947209759522,-0.0028867396839965397
6806.948209531444,-0.0028338575997717405
6806.949209303367,-0.002780289969567556
6806.950209075289,-0.0027260488937457072
6806.951208847212,-0.0026711465601762054
6806.952208619136,-0.0026155952411698203
6806.953208391058,-0.0025594072904154925
6806.954208162981,-0.002502595139924572
6806.955207934903,-0.002445171296983779
6806.956207706826,-0.002387148341118821
6806.957207478748,-0.0023285389210705994
6806.958207250672,-0.00226935575178586
6806.9592070225945,-0.002209611611424045
6806.960206794517,-0.0021493193383819447
6806.96120656644,-0.0020884918283375865
6806.962206338362,-0.002027142031314614
6806.963206110286,-0.001965282948768228
6806.964205882208,-0.0019029276306935547
6806.965205654131,-0.001840089172757109
6806.966205426053,-0.001776780713451851
6806.967205197976,-0.0017130154312761795
6806.9682049699,-0.0016488065419371218
6806.969204741822,-0.0015841672955779018
6806.970204513745,-0.0015191109740300664
6806.971204285667,-0.001453650888090352
6806.97220405759,-0.0013878003748225437
6806.973203829513,-0.0013215727948846629
6806.974203601436,-0.0012549815298819528
6806.975203373358,-0.0011880399797462903
6806.976203145281,-0.0011207615601428228
6806.977202917204,-0.0010531596999047682
6806.978202689126,-0.0009852478384973975
6806.97920246105,-0.0009170394235122237
6806.980202232972,-0.0008485479081923354
6806.981202004895,-0.0007797867489896574
6806.982201776817,-0.0007107694031547275
6806.98320154874,-0.000641509326359404
6806.984201320664,-0.0005720199703527744
6806.985201092586,-0.0005023147806504597
6806.986200864509,-0.000432407194257506
6806.987200636431,-0.0003623106374251162
6806.988200408354,-0.0002920385234415677
6806.989200180276,-0.00022160425045777675
6806.9901999522,-0.00015102119934807444
6806.991199724122,-8.030273160687619e-05
6806.992199496045,-9.462187282060305e-06
6806.993199267968,6.148711705395162e-05
6806.99419903989,0.00013253189029420465
6806.995198811814,0.00020365886874686422
6806.996198583736,0.00027485481804283946
6806.997198355659,0.00034610653499953566
6806.998198127581,0.00041740084943884317
6806.999197899504,0.0004887246259575586
6807.000197671428,0.0005600647656486562
6807.00119744335,0.0006314082077721343
6807.002197215273,0.0007027419313745093
6807.003196987195,0.000774052956856368
6807.004196759118,0.0008453283474877065
6807.005196531041,0.0009165552108710535
6807.006196302964,0.0009877207003525913
6807.007196074886,0.0010588120163816266
6807.008195846809,0.0011298164078188569
6807.009195618732,0.0012007211731939525
6807.010195390654,0.0012715136619130243
6807.011195162578,0.0013421812754165696
6807.0121949345,0.0014127114682884632
6807.013194706423,0.0014830917493164686
6807.014194478345,0.0015533096825046332
6807.015194250268,0.0016233528880378206
6807.016194022192,0.0016932090431985595
6807.017193794114,0.0017628658832363664
6807.018193566037,0.0018323112021897297
6807.019193337959,0.0019015328536610148
6807.020193109882,0.0019705187515446504
6807.021192881805,0.0020392568707090545
6807.022192653728,0.002107735247632873
6807.02319242565,0.0021759419809961843
6807.024192197573,0.002243865232227418
6807.025191969496,0.0023114932260068066
6807.026191741419,0.0023788142507272887
6807.027191513342,0.002445816658913891
6807.028191285264,0.0025124888676027
6807.029191057187,0.0025788193586806533
6807.030190829109,0.0026447966791874346
6807.031190601032,0.002710409441580883
6807.032190372956,0.002775646323967428
6807.033190144878,0.002840496070299203
6807.034189916801,0.002904947490539593
6807.035189688723,0.0029689894607990357
6807.036189460646,0.003032610923442886
6807.037189232569,0.0030958008871731155
6807.038189004492,0.0031585484270855277
6807.039188776414,0.0032208426847040684
6807.040188548337,0.0032826728679936296
6807.04118832026,0.003344028251352627
6807.042188092182,0.003404898175586475
6807.043187864106,0.0034652720478630023
6807.044187636028,0.003525139341650804
6807.045187407951,0.0035844895966415636
6807.046187179873,0.0036433124186574257
6807.047186951796,0.0037015974795445955
6807.04818672372,0.0037593345170544136
6807.049186495642,0.003816513334713163
6807.050186267565,0.0038731238016818737
6807.051186039487,0.0039291558526073755
6807.05218581141,0.003984599487465905
6807.053185583333,0.0040394447714006574
6807.054185355256,0.004093681834554811
6807.055185127178,0.004147300871901699
6807.056184899101,0.004200292143073947
6807.057184671024,0.004252645972193487
6807.058184442947,0.00430435274770442
6807.05918421487,0.0043554029222107144
6807.060183986792,0.004405787012320701
6807.061183758715,0.004455495598500317
6807.062183530637,0.004504519324937035
6807.06318330256,0.004552848899416424
6807.064183074484,0.00460047509321328
6807.065182846406,0.004647388740999198
6807.066182618329,0.004693580740768373
6807.067182390251,0.004739042053783256
6807.068182162174,0.004783763704541583
6807.069181934097,0.004827736780766121
6807.07018170602,0.004870952433418478
6807.071181477942,0.004913401876738261
6807.072181249865,0.00495507638830891
6807.073181021788,0.004995967309151496
6807.074180793711,0.005036066043847793
6807.075180565634,0.00507536406069387
6807.076180337556,0.00511385289188534
6807.077180109479,0.005151524133735308
6807.078179881401,0.005188369446925824
6807.079179653325,0.005224380556793478
6807.080179425248,0.005259549253649548
6807.08117919717,0.005293867393134952
6807.082178969093,0.005327326896610154
6807.083178741015,0.0053599197515800095
6807.084178512938,0.005391638012153505
6807.085178284861,0.005422473799538217
6807.086178056784,0.005452419302569324
6807.087177828706,0.005481466778272955
6807.088177600629,0.005509608552463709
6807.089177372552,0.005536837020376259
6807.090177144475,0.005563144647330974
6807.091176916398,0.005588523969433632
6807.09217668832,0.005612967594309292
6807.093176460243,0.005636468201870554
6807.094176232165,0.00565901854512049
6807.095176004088,0.005680611450990619
6807.096175776012,0.005701239821214439
6807.097175547934,0.005720896633237077
6807.098175319857,0.005739574941161715
6807.099175091779,0.005757267876733481
6807.100174863702,0.005773968650361592
6807.101174635625,0.005789670552180543
6807.102174407548,0.005804366953151095
6807.10317417947,0.0058180513062018446
6807.104173951393,0.00583071714741211
6807.105173723316,0.00584235809723686
6807.106173495239,0.0058529678617743105
6807.107173267162,0.005862540234076817
6807.108173039084,0.005871069095505522
6807.109172811007,0.005878548417129101
6807.110172582929,0.005884972261166841
6807.111172354853,0.005890334782476153
6807.112172126776,0.0058946302300845205
6807.113171898698,0.0058978529487657624
6807.114171670621,0.005899997380660437
6807.115171442543,0.005901058066940104
6807.116171214466,0.005901029649515156
6807.117170986389,0.005899906872785881
6807.118170758312,0.005897684585436415
6807.119170530234,0.005894357742271297
6807.120170302157,0.005889921406094284
6807.12117007408,0.005884370749629088
6807.122169846003,0.005877701057481616
6807.123169617926,0.005869907728143294
6807.124169389848,0.0058609862760349235
6807.125169161771,0.005850932333590459
6807.126168933693,0.005839741653379984
6807.127168705616,0.0058274101102711185
6807.12816847754,0.005813933703628066
6807.129168249462,0.005799308559547439
6807.130168021385,0.005783530933129972
6807.131167793307,0.0057665972107871204
6807.13216756523,0.00574850391258147
6807.133167337153,0.0057292476945996745
6807.134167109076,0.0057088253513565435
6807.135166880998,0.005687233818228693
6807.136166652921,0.005664470173916053
6807.137166424844,0.00564053164292943
6807.138166196767,0.005615415598102223
6807.13916596869,0.005589119563124368
6807.140165740612,0.005561641215096562
6807.141165512535,0.005532978387102793
6807.142165284457,0.005503129070799252
6807.143165056381,0.005472091419017733
6807.144164828304,0.005439863748381713
6807.145164600226,0.005406444541933401
6807.146164372149,0.005371832451770153
6807.147164144071,0.005336026301688789
6807.148163915994,0.0052990250898364
6807.149163687917,0.005260827991366428
6807.15016345984,0.005221434361098848
6807.151163231762,0.0051808437361834485
6807.152163003685,0.005139055838765284
6807.153162775608,0.005096070578651539
6807.154162547531,0.005051888055979064
6807.155162319454,0.005006508563881879
6807.156162091376,0.004959932591157905
6807.157161863299,0.004912160824934068
6807.158161635221,0.0048631941533287685
6807.159161407145,0.004813033668110569
6807.160161179068,0.004761680667351794
6807.16116095099,0.004709136658075615
6807.162160722913,0.004655403358895023
6807.163160494835,0.004600482702641983
6807.164160266759,0.0045443768389848765
6807.165160038681,0.0044870881370322295
6807.166159810604,0.004428619187920623
6807.167159582526,0.004368972807384637
6807.168159354449,0.0043081520383067414
6807.169159126372,0.004246160153245065
6807.170158898295,0.004183000656937159
6807.171158670218,0.004118677288778009
6807.17215844214,0.004053194025270712
6807.173158214063,0.003986555082448423
6807.174157985985,0.003918764918266218
6807.175157757909,0.003849828234961594
6807.176157529832,0.0037797499813822825
6807.177157301754,0.003708535355280011
6807.178157073677,0.0036361898055687894
6807.179156845599,0.003562719034546268
6807.180156617522,0.0034881290000767207
6807.181156389445,0.0034124259177342508
6807.182156161368,0.0033356162629049222
6807.18315593329,0.0032577067728466187
6807.184155705213,0.0031787044487055264
6807.185155477136,0.003098616557488192
6807.186155249059,0.0030174506339880596
6807.187155020982,0.002935214482665326
6807.188154792904,0.002851916179478818
6807.189154564827,0.002767564073668469
6807.190154336749,0.002682166789486823
6807.191154108673,0.0025957332278778423
6807.192153880596,0.002508272568101129
6807.193153652518,0.0024197942692995235
6807.194153424441,0.0023303080720079774
6807.195153196363,0.0022398239996015727
6807.196152968287,0.002148352359680626
6807.197152740209,0.0020559037453908827
6807.198152512132,0.0019624890366769197
6807.199152284054,0.001868119401466992
6807.200152055977,0.0017728062967876997
6807.2011518279,0.0016765614698070269
6807.202151599823,0.0015793969588044586
6807.203151371746,0.0014813250940670162
6807.204151143668,0.0013823584987101127
6807.205150915591,0.0012825100894221654
6807.206150687513,0.0011817930771319532
6807.207150459437,0.0010802209675977784
6807.20815023136,0.0009778075619175835
6807.209150003282,0.0008745669569592342
6807.210149775205,0.000770513545710167
6807.211149547127,0.0006656620175454922
6807.21214931905,0.0005600273584134627
6807.213149090973,0.0004536248509369833
6807.214148862896,0.0003464700744295866
6807.215148634818,0.00023857890482404688
6807.216148406741,0.00012996751451158458
6807.217148178664,2.0652372089425377e-05
6807.218147950587,-8.934975798567119e-05
6807.21914772251,-0.00020002181584042724
6807.220147494432,-0.00031134644672725024
6807.221147266355,-0.00042330600166841706
6807.222147038277,-0.0005358825382051908
6807.223146810201,-0.0006490578212549817
6807.224146582124,-0.0007628133240798037
6807.225146354046,-0.0008771302293693871
6807.226146125969,-0.0009919894304423825
6807.227145897891,-0.0011073715325691184
6807.228145669815,-0.0012232568544193712
6807.229145441737,-0.001339625429638555
6807.23014521366,-0.0014564570085556655
6807.231144985582,-0.0015737310600262133
6807.232144757505,-0.0016914267734132976
6807.233144529428,-0.001809523060709876
6807.234144301351,-0.0019279985588051825
6807.235144073274,-0.002046831631898141
6807.236143845196,-0.0021660003740604896
6807.237143617119,-0.0022854826119522277
6807.238143389041,-0.0024052559076919245
6807.239143160965,-0.0025252975618844094
6807.240142932888,-0.00264558461680837
6807.24114270481,-0.0027660938597663613
6807.242142476733,-0.0028868018265996538
6807.243142248655,-0.0030076848053701795
6807.244142020579,-0.0031287188402115765
6807.245141792501,-0.00324987973535104
6807.246141564424,-0.0033711430593033986
6807.247141336346,-0.0034924841492386238
6807.248141108269,-0.0036138781155238267
6807.2491408801925,-0.0037352998464407192
6807.250140652115,-0.0038567240130794873
6807.251140424038,-0.003978125074409987
6807.25214019596,-0.0040994772825311285
6807.253139967883,-0.004220754688099272
6807.254139739805,-0.004341931145936333
6807.255139511729,-0.004462980320818217
6807.256139283652,-0.004583875693444084
6807.257139055574,-0.004704590566586822
6807.258138827497,-0.004825098071425008
6807.259138599419,-0.004945371174056492
6807.260138371343,-0.005065382682193628
6807.261138143265,-0.005185105252040013
6807.262137915188,-0.005304511395348492
6807.26313768711,-0.005423573486660054
6807.264137459033,-0.005542263770723103
6807.265137230956,-0.00566055437009244
6807.266137002879,-0.005778417292907084
6807.267136774802,-0.005895824440845801
6807.268136546724,-0.006012747617258988
6807.269136318647,-0.006129158535475193
6807.270136090569,-0.00624502882728027
6807.271135862493,-0.006360330051566975
6807.272135634416,-0.006475033703152563
6807.273135406338,-0.006589111221761941
6807.274135178261,-0.0067025340011738835
6807.275134950183,-0.006815273398527878
6807.276134722107,-0.00692730074378925
6807.277134494029,-0.007038587349370274
6807.278134265952,-0.007149104519905053
6807.279134037874,-0.007258823562175927
6807.280133809797,-0.007367715795189146
6807.2811335817205,-0.007475752560397412
6807.282133353643,-0.007582905232066763
6807.283133125566,-0.00768914522778506
6807.284132897488,-0.007794444019109069
6807.285132669411,-0.007898773142346835
6807.286132441333,-0.008002104209471646
6807.287132213257,-0.008104408919163605
6807.28813198518,-0.008205659067974515
6807.289131757102,-0.008305826561611489
6807.290131529025,-0.008404883426334567
6807.291131300947,-0.008502801820463451
6807.292131072871,-0.008599554045988283
6807.293130844793,-0.008695112560279241
6807.294130616716,-0.00878944998788956
6807.295130388638,-0.008882539132446372
6807.296130160561,-0.008974352988623627
6807.2971299324845,-0.009064864754191201
6807.298129704407,-0.009154047842134243
6807.29912947633,-0.009241875892836678
6807.300129248252,-0.009328322786322733
6807.301129020175,-0.009413362654550233
6807.302128792098,-0.009496969893749294
6807.303128564021,-0.009579119176799914
6807.304128335944,-0.009659785465641736
6807.305128107866,-0.00973894402370918
6807.306127879789,-0.009816570428384906
6807.307127651711,-0.009892640583464394
6807.308127423635,-0.009967130731624297
6807.309127195557,-0.010040017466887
6807.31012696748,-0.010111277747073683
6807.311126739402,-0.010180888906237999
6807.312126511325,-0.010248828667072371
6807.3131262832485,-0.010315075153278784
6807.314126055171,-0.010379606901895821
6807.315125827094,-0.010442402875573594
6807.316125599016,-0.010503442474788004
6807.317125370939,-0.010562705549985594
6807.318125142861,-0.010620172413650014
6807.319124914785,-0.010675823852280874
6807.320124686708,-0.01072964113827553
6807.32112445863,-0.010781606041704127
6807.322124230553,-0.010831700841968031
6807.323124002475,-0.01087990833933167
6807.324123774399,-0.010926211866317592
6807.325123546321,-0.010970595298954442
6807.326123318244,-0.011013043067867254
6807.327123090166,-0.011053540169199325
6807.328122862089,-0.011092072175354711
6807.3291226340125,-0.01112862524555011
6807.330122405935,-0.011163186136164772
6807.331122177858,-0.011195742210876896
6807.33212194978,-0.011226281450574796
6807.333121721703,-0.011254792463031116
6807.334121493626,-0.011281264492328226
6807.335121265549,-0.011305687428022817
6807.336121037472,-0.011328051814037772
6807.337120809394,-0.011348348857269224
6807.338120581317,-0.011366570435896745
6807.339120353239,-0.011382709107384488
6807.340120125163,-0.01139675811616101
6807.341119897085,-0.011408711400965478
6807.342119669008,-0.011418563601847906
6807.34311944093,-0.01142631006681103
6807.344119212853,-0.011431946858081568
6807.3451189847765,-0.011435470757998735
6807.346118756699,-0.01143687927450809
6807.347118528622,-0.011436170646249032
6807.348118300544,-0.011433343847224615
6807.349118072467,-0.011428398591042622
6807.350117844389,-0.01142133533471721
6807.351117616313,-0.011412155282020742
6807.352117388236,-0.011400860386375613
6807.353117160158,-0.011387453353276112
6807.354116932081,-0.011371937642230516
6807.355116704003,-0.011354317468213828
6807.356116475927,-0.011334597802621863
6807.357116247849,-0.01131278437371768
6807.358116019772,-0.01128888366656177
6807.359115791694,-0.01126290292241773
6807.360115563617,-0.011234850137625589
6807.3611153355405,-0.011204734061935307
6807.362115107463,-0.011172564196293323
6807.363114879386,-0.011138350790075352
6807.364114651308,-0.01110210483775911
6807.365114423231,-0.011063838075031059
6807.366114195154,-0.01102356297432196
6807.367113967077,-0.01098129273976672
6807.368113738999,-0.010937041301584972
6807.369113510922,-0.010890823309879777
6807.370113282845,-0.010842654127852886
6807.371113054767,-0.010792549824435975
6807.372112826691,-0.010740527166338356
6807.373112598613,-0.010686603609512662
6807.374112370536,-0.01063079729004101
6807.375112142458,-0.010573127014445311
6807.376111914381,-0.01051361224942656
6807.3771116863045,-0.010452273111039398
6807.378111458227,-0.010389130353309803
6807.37911123015,-0.010324205356305445
6807.380111002072,-0.010257520113670128
6807.381110773995,-0.010189097219635746
6807.382110545918,-0.010118959855527285
6807.383110317841,-0.010047131775778616
6807.384110089763,-0.009973637293479084
6807.385109861686,-0.009898501265473075
6807.386109633609,-0.009821749077036937
6807.387109405532,-0.009743406626159497
6807.388109177455,-0.009663500307454156
6807.389108949377,-0.00958205699573188
6807.3901087213,-0.009499104029265435
6807.391108493222,-0.009414669192775995
6807.392108265145,-0.009328780700173662
6807.3931080370685,-0.009241467177083655
6807.394107808991,-0.009152757643189782
6807.395107580914,-0.009062681494426472
6807.396107352836,-0.008971268485049984
6807.397107124759,-0.008878548709618576
6807.398106896682,-0.008784552584910368
6807.399106668605,-0.008689310831806647
6807.400106440527,-0.00859285445716716
6807.40110621245,-0.008495214735722852
6807.402105984373,-0.008396423192010321
6807.403105756295,-0.008296511582371078
6807.404105528219,-0.00819551187703732
6807.405105300141,-0.008093456242324682
6807.406105072064,-0.007990377022950971
6807.407104843986,-0.007886306724498512
6807.408104615909,-0.007781277996036275
6807.4091043878325,-0.007675323612916556
6807.410104159755,-0.00756847645975969
6807.411103931678,-0.007460769513639
6807.4121037036,-0.007352235827477023
6807.413103475523,-0.007242908513662913
6807.414103247446,-0.007132820727899927
6807.415103019369,-0.007022005653290932
6807.416102791291,-0.006910496484669032
6807.417102563214,-0.0067983264131795795
6807.418102335137,-0.006685528611119068
6807.41910210706,-0.00657213621703561
6807.420101878983,-0.006458182321094976
6807.421101650905,-0.006343699950715549
6807.422101422828,-0.006228722056474954
6807.42310119475,-0.006113281498290654
6807.424100966673,-0.005997411031876367
6807.4251007385965,-0.005881143295475802
6807.426100510519,-0.0057645107968749025
6807.427100282442,-0.005647545900693469
6807.428100054364,-0.005530280815956776
6807.429099826287,-0.005412747583947561
6807.43009959821,-0.005294978066338512
6807.431099370133,-0.005177003933605129
6807.432099142055,-0.005058856653718588
6807.433098913978,-0.004940567481117908
6807.434098685901,-0.004822167445960452
6807.435098457824,-0.004703687343649513
6807.436098229747,-0.00458515772463749
6807.437098001669,-0.004466608884503
6807.438097773592,-0.0043480708543001565
6807.439097545514,-0.0042295733911782585
6807.440097317438,-0.004111145969270156
6807.4410970893605,-0.003992817770847654
6807.442096861283,-0.0038746176777424077
6807.443096633206,-0.0037565742630308627
6807.444096405128,-0.0036387157829817743
6807.445096177051,-0.0035210701692648554
6807.446095948974,-0.0034036650214190342
6807.447095720897,-0.0032865275995787777
6807.448095492819,-0.003169684817456921
6807.449095264742,-0.0030531632355824474
6807.450095036665,-0.0029369890547916912
6807.451094808588,-0.002821188109971431
6807.452094580511,-0.00270578586405235
6807.453094352433,-0.002590807402251312
6807.454094124356,-0.002476277426560853
6807.455093896278,-0.0023622202504842574
6807.456093668201,-0.002248659794014534
6807.4570934401245,-0.002135619578855547
6807.458093212047,-0.002023122723883525
6807.45909298397,-0.0019111919408470821
6807.460092755892,-0.0017998495303037988
6807.461092527815,-0.0016891173777913112
6807.462092299738,-0.001579016950230731
6807.463092071661,-0.001469569292560149
6807.464091843583,-0.0013607950245959357
6807.465091615506,-0.0012527143381195842
6807.466091387429,-0.0011453469941879134
6807.467091159352,-0.0010387123206645605
6807.468090931275,-0.0009328292099707955
6807.469090703197,-0.000827716117053799
6807.47009047512,-0.0007233910575706068
6807.471090247042,-0.0006198716062859574
6807.472090018966,-0.0005171748956822777
6807.4730897908885,-0.0004153176147800286
6807.474089562811,-0.00031431600816663146
6807.475089334734,-0.00021418587523218478
6807.476089106656,-0.00011494256961015327
6807.477088878579,-1.6600998821136596e-05
6807.478088650502,8.082437588231136e-05
6807.479088422425,0.0001773195394720317
6807.480088194347,0.0002728709229042275
6807.48108796627,0.0003674654026857456
6807.482087738193,0.0004610903002496085
6807.483087510116,0.0005537333811429313
6807.484087282039,0.0006453828540304977
6807.485087053961,0.0007360273695173352
6807.486086825884,0.0008256560187936434
6807.487086597806,0.0009142583321053862
6807.488086369729,0.0010018242770537993
6807.4890861416525,0.0010883442567269689
6807.490085913575,0.0011738091076665333
6807.491085685498,0.001258210097672451
6807.49208545742,0.0013415389234486955
6807.493085229343,0.0014237877080926992
6807.494085001266,0.0015049489984313605
6807.495084773189,0.0015850157622064633
6807.496084545111,0.0016639813851123887
6807.497084317034,0.0017418396676890427
6807.498084088957,0.0018185848220729614
6807.49908386088,0.001894211468609582
6807.500083632803,0.0019687146323296577
6807.501083404725,0.0020420897392927355
6807.502083176648,0.0021143326128005087
6807.50308294857,0.0021854394694827144
6807.504082720494,0.002255406915258078
6807.5050824924165,0.002324231941172686
6807.506082264339,0.002391911919118091
6807.507082036262,0.002458444597431459
6807.508081808184,0.002523828096380179
6807.509081580107,0.002588060903533508
6807.51008135203,0.0026511418690241123
6807.511081123953,0.0027130702007027154
6807.512080895875,0.002773845459189517
6807.513080667798,0.0028334675528265425
6807.514080439721,0.0028919367325355664
6807.515080211644,0.0029492535865866913
6807.516079983567,0.0030054190352829034
6807.517079755489,0.003060434325566033
6807.518079527412,0.003114301025549472
6807.519079299334,0.003167021018982789
6807.520079071258,0.0032185964996530422
6807.5210788431805,0.003269029965727246
6807.522078615103,0.003318324214040013
6807.523078387026,0.003366482334330005
6807.524078158948,0.003413507703428488
6807.525077930872,0.0034594039794030285
6807.526077702794,0.0035041750956592566
6807.527077474717,0.003547825255003558
6807.528077246639,0.0035903589236696365
6807.529077018562,0.0036317808253119636
6807.530076790485,0.0036720959349692338
6807.531076562408,0.003711309473001041
6807.532076334331,0.003749426899001049
6807.533076106253,0.003786453905689965
6807.534075878176,0.0038223964127916243
6807.535075650098,0.0038572605608955105
6807.536075422022,0.003891052705308995
6807.5370751939445,0.003923779409902612
6807.538074965867,0.003955447440951661
6807.53907473779,0.003986063760977431
6807.540074509712,0.004015635522591314
6807.541074281635,0.004044170062345038
6807.542074053558,0.004071674894590138
6807.543073825481,0.0040981577053497515
6807.544073597403,0.00412362634620572
6807.545073369326,0.004148088828203933
6807.546073141249,0.004171553315780724
6807.547072913172,0.004194028120713124
6807.548072685095,0.004215521696095648
6807.549072457017,0.004236042630346327
6807.55007222894,0.004255599641244655
6807.551072000862,0.004274201570004176
6807.552071772786,0.00429185737538251
6807.5530715447085,0.004308576127831722
6807.554071316631,0.004324367003692049
6807.555071088554,0.004339239279432156
6807.556070860476,0.00435320232593921
6807.5570706324,0.00436626560286225
6807.558070404322,0.004378438653012452
6807.559070176245,0.0043897310968239985
6807.560069948167,0.004400152626879284
6807.56106972009,0.0044097130025021955
6807.562069492013,0.004418422044423082
6807.563069263936,0.004426289629518986
6807.564069035859,0.004433325685632631
6807.565068807781,0.004439540186473629
6807.566068579704,0.004444943146605329
6807.567068351626,0.004449544616520675
6807.56806812355,0.004453354677810355
6807.5690678954725,0.00445638343842641
6807.570067667395,0.004458641028044331
6807.571067439318,0.004460137593526499
6807.57206721124,0.00446088329448967
6807.573066983163,0.004460888298978962
6807.574066755086,0.004460162779250567
6807.575066527009,0.004458716907665126
6807.576066298931,0.004456560852693335
6807.577066070854,0.004453704775035014
6807.578065842777,0.004450158823852517
6807.5790656147,0.004445933133119044
6807.580065386623,0.004441037818082101
6807.581065158545,0.004435482971842152
6807.582064930468,0.004429278662046303
6807.58306470239,0.0044224349276968
6807.584064474314,0.004414961776074051
6807.5850642462365,0.004406869179773966
6807.586064018159,0.004398167073859443
6807.587063790082,0.004388865353125967
6807.588063562004,0.004378973869481349
6807.589063333928,0.004368502429439757
6807.59006310585,0.004357460791730293
6807.591062877773,0.0043458586650204495
6807.592062649695,0.004333705705754824
6807.593062421618,0.004321011516109483
6807.594062193541,0.004307785642062308
6807.595061965464,0.004294037571579458
6807.596061737387,0.004279776732917841
6807.597061509309,0.004265012493043101
6807.598061281232,0.004249754156162246
6807.599061053154,0.004234010962369621
6807.600060825078,0.0042177920864045725
6807.6010605970005,0.004201106636518861
6807.602060368923,0.004183963653451681
6807.603060140846,0.0041663721095100545
6807.604059912768,0.004148340907752333
6807.605059684692,0.004129878881272584
6807.606059456614,0.004110994792583661
6807.607059228537,0.0040916973330967395
6807.608059000459,0.004071995122695089
6807.609058772382,0.004051896709399804
6807.6100585443055,0.004031410569125151
6807.611058316228,0.00401054510552113
6807.612058088151,0.003989308649900847
6807.613057860073,0.003967709461250266
6807.614057631996,0.003945755726318019
6807.615057403918,0.00392345555978305
6807.616057175842,0.0039008170044980504
6807.6170569477645,0.003877848031806788
6807.618056719687,0.0038545565419335647
6807.61905649161,0.0038309503644431424
6807.620056263532,0.0038070372587695883
6807.621056035456,0.003782824914812572
6807.622055807378,0.0037583209535996813
6807.623055579301,0.0037335329280132824
6807.624055351223,0.0037084683235802697
6807.625055123146,0.003683134559322822
6807.626054895069,0.0036575389886679883
6807.627054666992,0.003631688900413665
6807.628054438915,0.0036055915197482904
6807.629054210837,0.0035792540093214096
6807.63005398276,0.003552683470362129
6807.631053754682,0.003525886943842393
6807.632053526606,0.0034988714116819465
6807.6330532985285,0.0034716437979918765
6807.634053070451,0.003444210970353644
6807.635052842374,0.0034165797411306186
6807.636052614296,0.0033887568688092404
6807.63705238622,0.003360749059367104
6807.638052158142,0.0033325629676654064
6807.639051930065,0.0033042051988633543
6807.640051701987,0.003275682309852231
6807.64105147391,0.0032470008107069017
6807.6420512458335,0.0032181671661525154
6807.643051017756,0.0031891877970441048
6807.644050789679,0.0031600690818566275
6807.645050561601,0.0031308173581828004
6807.646050333524,0.0031014389242358656
6807.647050105446,0.003071940040354236
