Time,Filtered_EMG_Bicep,Filtered_EMG_Tricep
6700.956064619441,0.002278258252744227,0.0016780020234797126
6700.957064391657,0.002332072247624693,0.0017015944623162643
6700.958064163872,0.0023869454578519197,0.0017251833599570474
6700.959063936088,0.002442606293549514,0.0017486450019389148
6700.960063708302,0.002498782976614287,0.001771861483329829
6700.961063480518,0.002555208347444896,0.0017947225127971326
6700.962063252733,0.0026116244416466666,0.0018171269606688462
6700.9630630249485,0.0026677866371437576,0.0018389841524782096
6700.964062797164,0.002723467202441601,0.0018602149225277974
6700.965062569379,0.0027784581111935367,0.001880752425314436
6700.966062341594,0.0028325730069504894,0.0019005426692105458
6700.967062113809,0.002885648198729478,0.0019195447017756476
6700.968061886025,0.002937542565101898,0.0019377303520357585
6700.96906165824,0.002988136287152113,0.0019550834399582676
6700.970061430456,0.003037328444933483,0.001971598409370842
6700.97106120267,0.0030850336688366497,0.0019872784094110635
6700.972060974886,0.003131178170697468,0.0020021329039634334
6700.973060747101,0.0031756955407739786,0.002016174915426132
6700.9740605193165,0.003218522685990493,0.0020294180309814373
6700.975060291532,0.003259596232132774,0.0020418733390203197
6700.976060063746,0.0032988496407139168,0.002053546512743132
6700.977059835962,0.0033362112078277805,0.002064435288382135
6700.978059608177,0.00337160302656032,0.002074527577077032
6700.979059380393,0.003404940918530461,0.0020838004026777052
6700.980059152608,0.003436135275553647,0.0020922197829485465
6700.981058924823,0.0034650926920937915,0.0020997415818623803
6700.982058697038,0.003491718219046033,0.002106313272578727
6700.983058469254,0.003515918054032697,0.0021118764795574566
6700.984058241469,0.003537602512841989,0.002116370120271239
6700.9850580136845,0.003556689171262597,0.002119733941446458
6700.9860577859,0.003573106082252402,0.0021219122399413043
6700.987057558114,0.003586794940321473,0.002122857570818397
6700.98805733033,0.0035977139993151994,0.00212253426868584
6700.989057102545,0.003605840496390085,0.002120921635916126
6700.990056874761,0.0036111723461645525,0.002118016676959574
6700.991056646976,0.0036137289689668717,0.0021138362827068467
6700.992056419191,0.0036135512805299547,0.002108418801866223
6700.993056191406,0.003610701034654844,0.0021018249784726267
6700.994055963622,0.003605259810731375,0.0020941382674137567
6700.995055735837,0.0035973279482734767,0.0020854645451531743
6700.996055508052,0.0035870236751350515,0.002075931217940235
6700.997055280268,0.0035744825974984187,0.0020656857204389375
6700.998055052482,0.0035598576388508915,0.0020548934122920433
6700.999054824698,0.0035433194255214424,0.002043734916603201
6701.000054596913,0.0035250570082934834,0.0020324029840845348
6701.001054369129,0.003505278695331654,0.002021098989328251
6701.002054141344,0.0034842126905654807,0.0020100291646892926
6701.003053913559,0.003462107226411622,0.0019994006619693163
6701.004053685774,0.0034392299581865273,0.0019894175195739783
6701.00505345799,0.0034158665083570228,0.0019802766165330243
6701.006053230205,0.003392318148305372,0.0019721637101558446
6701.00705300242,0.003368898645849153,0.0019652496578427864
6701.008052774636,0.0033459303050576445,0.001959686901164616
6701.00905254685,0.003323739229530775,0.001955606260103633
6701.010052319066,0.0033026498773991676,0.0019531140774474364
6701.011052091281,0.0032829790297300584,0.001952289768317533
6701.012051863497,0.00326502934199755,0.001953183841472798
6701.013051635712,0.003249082693862525,0.001955816455556978
6701.014051407927,0.003235393603975025,0.001960176567848158
6701.015051180142,0.0032241830230109528,0.0019662217323428784
6701.016050952358,0.003215632841528801,0.001973878596340253
6701.017050724573,0.0032098814395055087,0.001983044120422798
6701.018050496788,0.003207020556050225,0.0019935875110232075
6701.019050269004,0.0032070936696938874,0.0020053528167685917
6701.020050041218,0.003210095963214758,0.0020181621027680354
6701.021049813434,0.0032159758252673933,0.002031819082033217
6701.022049585649,0.0032246377374421306,0.0020461130572832003
6701.023049357865,0.003235946323292082,0.0020608230194299033
6701.02404913008,0.0032497313006969453,0.002075721759991824
6701.025048902295,0.003265793079645438,0.002090579871096056
6701.02604867451,0.003283908765271111,0.002105169520744171
6701.0270484467255,0.0033038383264644617,0.0021192679035341097
6701.028048218941,0.0033253306583170914,0.0021326602833640143
6701.029047991156,0.0033481292316259854,0.002145142578096233
6701.030047763372,0.00337197703828269,0.002156523497820041
6701.031047535586,0.0033966206368970064,0.0021666263211689214
6701.032047307802,0.00342181325429269,0.0021752904371873535
6701.033047080017,0.0034473170430491754,0.0021823727685435397
6701.034046852233,0.0034729046778543657,0.00218774913820392
6701.035046624448,0.003498360485719135,0.0021913155775586325
6701.036046396663,0.003523481283221086,0.002192989523473508
6701.037046168878,0.003548077073417149,0.002192710825390429
6701.0380459410935,0.003571971735627357,0.002190442484913703
6701.039045713309,0.003595003800281098,0.0021861710771968004
6701.040045485524,0.0036170273251002645,0.002179906844172567
6701.041045257739,0.003637912790472415,0.002171683485889114
6701.042045029954,0.0036575478525297037,0.00216155769452176
6701.04304480217,0.0036758377847750387,0.0021496084758437237
6701.044044574385,0.0036927055194626293,0.0021359362938273034
6701.045044346601,0.0037080913179273435,0.0021206620607402585
6701.046044118815,0.003721952171663161,0.00210392597322976
6701.047043891031,0.0037342610174014635,0.002085886162465387
6701.048043663246,0.0037450057668190705,0.0020667171003101456
6701.0490434354615,0.003754188078284617,0.002046607710109554
6701.050043207677,0.0037618217934849347,0.002025759173197796
6701.051042979892,0.003767931032390904,0.0020043824726223313
6701.052042752107,0.003772548053201051,0.0019826957466643116
6701.053042524322,0.00377571109615491,0.0019609215316470324
6701.054042296538,0.003777462494613236,0.0019392839611735472
6701.055042068753,0.0037778473191434478,0.0019180059614407436
6701.056041840969,0.0037769127312046575,0.0018973064517693796
6701.057041613183,0.0037747081138281846,0.0018773975469276987
6701.058041385399,0.003771285958556219,0.0018584817729250308
6701.059041157614,0.0037667034199068156,0.0018407493344337227
6701.0600409298295,0.003761024379619305,0.001824375482541328
6701.061040702045,0.003754321785959212,0.0018095180167786507
6701.06204047426,0.0037466799647128232,0.001796314932668553
6701.063040246475,0.0037381965685041414,0.0017848822205497317
6701.06404001869,0.003728983866361223,0.001775311842770177
6701.065039790906,0.003719169173592814,0.0017676699525140066
6701.066039563121,0.003708894339447945,0.0017619954476208576
6701.067039335337,0.0036983142886906615,0.0017582989651047133
6701.068039107551,0.0036875946317497764,0.0017565624188895894
6701.069038879767,0.0036769083526316925,0.0017567391675530712
6701.070038651982,0.003666431609344855,0.0017587548658063383
6701.0710384241975,0.003656338760077137,0.001762509002578959
6701.072038196413,0.003646796839244912,0.0017678770771571309
6701.073037968628,0.003637959811056894,0.0017747133361784868
6701.074037740843,0.0036299629859646303,0.0017828539919698839
6701.075037513058,0.0036229179744679926,0.0017921208470532283
6701.076037285274,0.003616908478985759,0.0018023252421595806
6701.077037057489,0.0036119871217439063,0.0018132722236527392
6701.078036829705,0.0036081734149571343,0.001824764794931126
6701.079036601919,0.0036054529160336676,0.0018366080788846286
6701.080036374135,0.0036037775599605487,0.001848613190260287
6701.08103614635,0.003603067101804853,0.0018606006274954627
6701.082035918565,0.0036032115374072353,0.0018724030591237932
6701.083035690781,0.0036040743218752266,0.001883867474164481
6701.084035462996,0.0036054961893199297,0.0018948567375495105
6701.085035235211,0.0036072993948455174,0.001905250613356513
6701.086035007426,0.003609292232268183,0.0019149463081830549
6701.087034779642,0.003611273688804225,0.0019238585777970737
6701.088034551857,0.003613038059043977,0.0019319194477760294
6701.089034324073,0.0036143792875629366,0.001939077620530898
6701.090034096287,0.00361509480271043,0.0019452976686862241
6701.091033868503,0.0036149886776981784,0.0019505591372345878
6701.092033640718,0.00361387409893109,0.0019548556837620007
6701.093033412933,0.003611575288115849,0.001958194375115457
6701.094033185149,0.003607929147218102,0.001960595232556905
6701.095032957364,0.003602786929609059,0.00196209107304276
6701.096032729579,0.0035960162000535554,0.001962727628301937
6701.097032501794,0.0035875032746484517,0.001962563845585371
6701.09803227401,0.0035771562487423316,0.0019616722098140076
6701.099032046225,0.003564908617208466,0.0019601389023932137
6701.100031818441,0.003550723366907486,0.001958063633318555
6701.101031590655,0.0035345972945757366,0.0019555590319450416
6701.102031362871,0.003516565198966086,0.0019527495355713353
6701.103031135086,0.0034967035413833152,0.0019497697675997482
6701.104030907301,0.003475133189137775,0.001946762450168949
6701.105030679517,0.0034520209476943753,0.0019438759437913364
6701.106030451731,0.0034275797002067654,0.0019412615382207738
6701.107030223947,0.0034020670482664476,0.0019390706264396822
6701.108029996162,0.0033757823726875834,0.0019374518738259235
6701.109029768378,0.003349062252931584,0.001936548457200077
6701.110029540593,0.003322274252202569,0.0019364954159655084
6701.111029312808,0.0032958092089653544,0.0019374171425420874
6701.112029085023,0.0032700723469256854,0.0019394250330685681
6701.113028857239,0.003245473666215673,0.0019426153103049822
6701.114028629454,0.0032224181491945056,0.0019470670233129178
6701.115028401669,0.0032012962879960543,0.0019528402370000645
6701.116028173885,0.0031824753559006247,0.0019599744522622326
6701.117027946099,0.0031662917488743257,0.001968487327280803
6701.118027718315,0.0031530446308919184,0.0019783737787112264
6701.11902749053,0.0031429910141227923,0.001989605518941969
6701.120027262746,0.003136342282977952,0.0020021310435322888
6701.121027034961,0.003133262035557776,0.0020158760408037152
6701.122026807176,0.0031338649908860816,0.0020307441684525394
6701.123026579391,0.003138216632615207,0.0020466181376974477
6701.124026351607,0.003146333262901076,0.002063361064733165
6701.125026123822,0.003158182227593155,0.0020808180800695724
6701.126025896037,0.0031736822048199563,0.0020988182044645635
6701.127025668253,0.003192703556728695,0.002117176492566485
6701.128025440467,0.003215068788522379,0.0021356964270968486
6701.129025212683,0.003240553161302719,0.0021541725402613896
6701.130024984898,0.00326888551902371,0.002172393245764812
6701.131024757114,0.003299749442647465,0.002190143863761797
6701.132024529329,0.003332784920288349,0.0022072097989103753
6701.133024301544,0.0033675907886054194,0.00222337980300131
6701.134024073759,0.0034037282321254156,0.002238449247780515
6701.135023845975,0.0034407256040488166,0.0022522233610182685
6701.13602361819,0.0034780847468908692,0.0022645204183724416
6701.137023390405,0.0035152888621298307,0.0022751749043930115
6701.138023162621,0.003551811840107894,0.0022840406433259413
6701.139022934835,0.0035871288373844567,0.002290993857705992
6701.140022707051,0.003620727776513882,0.002295936054228425
6701.141022479266,0.003652121336955855,0.002298796585539669
6701.142022251482,0.0036808589190867155,0.0022995347203576934
6701.143022023697,0.0037065380256055313,0.0022981410826281535
6701.144021795912,0.003728814536019249,0.0022946383733028143
6701.145021568127,0.0037474114378321954,0.002289081336009414
6701.146021340343,0.003762125681809576,0.0022815559595322347
6701.147021112558,0.003772832910501913,0.002272177933930517
6701.148020884773,0.003779489863958189,0.002261090402728591
6701.149020656989,0.0037821343261252426,0.0022484610818266923
6701.150020429203,0.003780882581194543,0.0022344788416215574
6701.151020201419,0.003775924506462198,0.0022193498697747798
6701.152019973634,0.0037675165927269416,0.002203293550148675
6701.15301974585,0.003755973302687969,0.002186538207647248
6701.154019518065,0.0037416572336108835,0.0021693168731778843
6701.15501929028,0.003724968550325298,0.0021518632157806034
6701.156019062495,0.0037063341104220807,0.0021344077737310064
6701.157018834711,0.0036861966363910567,0.0021171745905954817
6701.158018606926,0.003665004235192634,0.0021003783160197472
6701.159018379141,0.0036432005447382507,0.0020842217659177123
6701.160018151357,0.0036212157729813336,0.002068893876261302
6701.161017923571,0.0035994588449353177,0.0020545679578495577
6701.162017695787,0.003578310781515857,0.0020414001732980214
6701.163017468002,0.003558119341208961,0.002029528192889844
6701.164017240218,0.003539194896081052,0.0020190700240861896
6701.165017012433,0.0035218074841389356,0.002010123048859225
6701.166016784648,0.003506184950558827,0.0020027633398942888
6701.167016556863,0.0034925120374898378,0.0019970453412334957
6701.168016329079,0.0034809302157749046,0.0019930019783122948
6701.169016101294,0.0034715380145098566,0.00199064521970953
6701.170015873509,0.003464391633759218,0.0019899670698540184
6701.171015645724,0.0034595057168048922,0.0019909409392063725
6701.172015417939,0.0034568542712751713,0.001993523320488793
6701.173015190155,0.003456371823157578,0.0019976556996678255
6701.17401496237,0.0034579549374929228,0.0020032666453584703
6701.175014734586,0.003461464238113356,0.00201027403827109
6701.1760145068,0.003466727031617197,0.002018587406890877
6701.177014279016,0.0034735406250583005,0.0020281103142450567
6701.178014051231,0.0034816764227147265,0.0020387426978506827
6701.179013823446,0.003490884854375749,0.002050383024879289
6701.180013595662,0.0035009010999235554,0.002062930114741532
6701.181013367877,0.0035114514541724445,0.002076284515254511
6701.182013140092,0.003522260067933452,0.0020903493903366094
6701.183012912307,0.0035330557433245996,0.002105030961874083
6701.184012684523,0.003543578464301375,0.002120238609805049
6701.185012456738,0.003553585385615809,0.002135884747913395
6701.186012228954,0.0035628560459021264,0.002151884568622567
6701.187012001168,0.003571196590078848,0.00216815572332287
6701.188011773384,0.0035784427988286146,0.0021846179951356703
6701.189011545599,0.0035844617726013047,0.0022011930164069615
6701.190011317814,0.003589152229299808,0.0022178040685656027
6701.19101109003,0.0035924435213197745,0.002234375982899858
6701.192010862245,0.0035942936079934634,0.0022508351483346437
6701.19301063446,0.0035946863051192464,0.002267109624839822
6701.194010406675,0.0035936281687264037,0.0022831293536332404
6701.195010178891,0.0035911453547141804,0.0022988264511699386
6701.196009951106,0.003587280738821694,0.002314135577421402
6701.197009723322,0.003582091508735842,0.002328994376746531
6701.198009495536,0.003575647372939537,0.002343343997024146
6701.199009267752,0.0035680294618440174,0.002357129702665094
6701.200009039967,0.003559329905761965,0.002370301612005559
6701.201008812182,0.0035496519643300824,0.002382815595686133
6701.202008584398,0.0035391104879362438,0.00239463434951877
6701.203008356613,0.003527832452001685,0.0024057286032568835
6701.204008128828,0.0035159573282117743,0.0024160783687263475
6701.205007901043,0.003503637115138343,0.0024256740895873216
6701.206007673259,0.0034910359021327435,0.0024345175432117635
6701.207007445474,0.003478328859580206,0.002442622369109887
6701.20800721769,0.0034657005455991916,0.0024500141494230203
6701.209006989904,0.003453342430850132,0.002456730019112202
6701.21000676212,0.0034414496022469403,0.002462817815259571
6701.211006534335,0.0034302167172106423,0.0024683347856228376
6701.21200630655,0.0034198334149078253,0.0024733458798788708
6701.213006078766,0.00341047950241864,0.0024779216596241133
6701.214005850981,0.003402320277771025,0.0024821358895456623
6701.215005623196,0.003395502315314898,0.00248606289512884
6701.216005395411,0.003390149954978334,0.0024897747739563276
6701.217005167627,0.0033863626605670186,0.0024933385359434076
6701.218004939842,0.003384213370414305,0.00249681324501795
6701.2190047120575,0.0033837479361099316,0.002500247244565445
6701.220004484272,0.0033849856974468065,0.002503675554926955
6701.221004256488,0.003387921161495732,0.0025071175255861294
6701.222004028703,0.0033925266536230883,0.002510574818350505
6701.223003800918,0.0033987557173057775,0.002514029799336622
6701.224003573134,0.0034065469890150533,0.0025174444174202596
6701.225003345349,0.003415828272173008,0.0025207596298483324
6701.226003117564,0.003426520551166153,0.0025238954037080817
6701.227002889779,0.003438541683741628,0.0025267512938000965
6701.228002661995,0.003451809488760366,0.002529207584441966
6701.22900243421,0.003466243955835117,0.0025311269770035777
6701.2300022064255,0.0034817683855650292,0.0025323567957987753
6701.23100197864,0.0034983094083606216,0.002532731671306118
6701.232001750856,0.0035157959739570838,0.002532076646966164
6701.233001523071,0.0035341575121066934,0.0025302106498381475
6701.234001295286,0.0035533215266502017,0.0025269502647874173
6701.235001067502,0.003573210906911311,0.0025221137461753406
6701.236000839716,0.003593741232797697,0.002515525184656323
6701.237000611932,0.0036148183267277613,0.002507018727679417
6701.238000384147,0.003636336281032391,0.002496442741460133
6701.239000156363,0.003658176164306892,0.0024836638042018207
6701.239999928578,0.0036802055665902723,0.002468570436673974
6701.240999700793,0.003702279068001252,0.002451076504763808
6701.241999473008,0.0037242396206787535,0.002431124259286614
6701.242999245224,0.003745920749968489,0.0024086869979687213
6701.243999017439,0.0037671494344353866,0.0023837713376749997
6701.244998789654,0.0037877495184988085,0.0023564190757801055
6701.24599856187,0.0038075455172130843,0.0023267086028440757
6701.246998334084,0.0038263666486271146,0.002294755807748289
6701.2479981063,0.003844050864509547,0.002260714401031042
6701.248997878515,0.0038604485874763643,0.0022247755861982002
6701.249997650731,0.003875425867124054,0.0021871670350025155
6701.250997422946,0.003888866766385539,0.002148151157638728
6701.251997195161,0.0039006749408122795,0.0021080226841149498
6701.252996967376,0.0039107745069299335,0.002067105580775757
6701.253996739592,0.003919110368606579,0.002025749325789512
6701.254996511807,0.003925648184792981,0.001984324574098858
6701.255996284022,0.00393037414480884,0.0019432182552236031
6701.256996056238,0.003933294691531092,0.0019028281561900018
6701.257995828452,0.003934436299300228,0.0018635570500464863
6701.258995600668,0.003933845359920965,0.0018258064516115853
6701.259995372883,0.003931588154426602,0.0017899701164267423
6701.260995145099,0.003927750804508069,0.0017564274308692813
6701.261994917314,0.003922439032040643,0.001725536861273835
6701.262994689529,0.00391577753784902,0.001697629642476781
6701.263994461744,0.003907908851357887,0.0016730038957467185
6701.264994233959,0.003898991572679471,0.0016519193656245458
6701.265994006175,0.0038891979832746336,0.0016345929475715362
6701.26699377839,0.0038787110214752074,0.0016211951469798775
6701.267993550606,0.003867720625212671,0.0016118475712761776
6701.26899332282,0.0038564194714435854,0.0016066215112365675
6701.269993095036,0.003844998207734672,0.001605537615803551
6701.270992867251,0.003833640364911431,0.0016085666110706547
6701.271992639467,0.0038225172303409534,0.0016156309626640657
6701.272992411682,0.003811783017061915,0.0016266073357225062
6701.273992183897,0.0038015706646093816,0.0016413296788347896
6701.274991956112,0.0037919885575118453,0.0016595927613779608
6701.275991728327,0.0037831183759310058,0.0016811560287631482
6701.276991500543,0.003775014224862429,0.0017057476888960997
6701.277991272758,0.0037677031160872365,0.001733068983750705
6701.278991044974,0.0037611867782401305,0.0017627986226229342
6701.279990817188,0.0037554446478926047,0.0017945973565881756
6701.280990589404,0.003750437777948243,0.001828112658169239
6701.281990361619,0.00374611331904618,0.0018629834477095833
6701.282990133835,0.003742409204028206,0.0018988447943794418
6701.28398990605,0.003739258696959027,0.0019353325163192926
6701.2849896782645,0.003736594533246291,0.00197208759903338
6701.28598945048,0.003734352435298398,0.002008760339955157
6701.286989222695,0.003732473812954887,0.0020450141231974236
6701.287988994911,0.0037309074706865474,0.002080528748627352
6701.288988767126,0.0037296101998551437,0.0021150032870618693
6701.289988539342,0.003728546260972788,0.002148158491953043
6701.290988311556,0.003727685919170026,0.0021797388373812412
6701.291988083772,0.003727003321825912,0.0022095142499212036
6701.292987855987,0.003726474065828141,0.0022372815635806564
6701.293987628203,0.0037260727954577474,0.0022628656821553354
6701.294987400418,0.003725771120386592,0.0022861204098499383
6701.2959871726325,0.0037255360721071564,0.0023069289146504333
6701.296986944848,0.0037253292478362245,0.0023252038039209585
6701.297986717063,0.003725106727544243,0.0023408868001352306
6701.298986489279,0.0037248197785288203,0.002353948007443809
6701.299986261494,0.0037244162738589884,0.002364384772906712
6701.300986033709,0.0037238426581409395,0.0023722201745329653
6701.301985805924,0.003723046220205629,0.002377501194647532
6701.30298557814,0.003721977396616037,0.0023802966434886092
6701.303985350355,0.0037205918378584242,0.00238069488708485
6701.3049851225705,0.003718852008463155,0.0023788014211158213
6701.305984894785,0.0037167281406057916,0.002374736323350055
6701.3069846670005,0.0037141984047790663,0.002368631604290458
6701.307984439216,0.003711248205575573,0.0023606284644531
6701.308984211431,0.003707868569802973,0.0023508744777297583
6701.309983983647,0.003704053683691817,0.00233952075777053
6701.310983755862,0.003699797760216127,0.0023267192055181863
6701.311983528077,0.003695091549671619,0.002312619957334344
6701.312983300292,0.0036899188935245295,0.002297369147045992
6701.313983072508,0.0036842537261390193,0.0022811070638350858
6701.314982844723,0.0036780578627342644,0.0022639667422490843
6701.3159826169385,0.0036712798178755827,0.00224607298329569
6701.316982389153,0.003663854812620491,0.002227541793031748
6701.3179821613685,0.0036557060583495902,0.00220848022718705
6701.318981933584,0.0036467473349976113,0.0021889866230360255
6701.319981705799,0.0036368867884318513,0.0021691511755213186
6701.320981478015,0.0036260317522446937,0.0021490567860193983
6701.32198125023,0.003614094275996298,0.002128780089555931
6701.322981022445,0.0036009969509026717,0.0021083925523550447
6701.32398079466,0.0035866785952047738,0.0020879615305312996
6701.324980566876,0.003571099400226817,0.002067551195497917
6701.325980339091,0.003554245215403935,0.0020472232600132465
6701.3269801113065,0.0035361307214204097,0.0020270374792998825
6701.327979883521,0.0035168012830863703,0.00200705194967767
6701.3289796557365,0.0034963333116469764,0.0019873232662037795
6701.329979427952,0.003474833047131137,0.0019679066163709583
6701.330979200167,0.003452433813348848,0.0019488558830662965
6701.331978972383,0.0034292919650706966,0.0019302238174765095
6701.332978744598,0.0034055818791683865,0.001912062319898174
6701.333978516813,0.0033814904044989873,0.0018944228274692047
6701.334978289028,0.0033572111829392685,0.0018773567615212965
6701.335978061244,0.0033329392089574204,0.0018609159543301298
6701.336977833459,0.0033088659298066295,0.0018451529673455531
6701.3379776056745,0.003285175113718772,0.0018301212266552782
6701.338977377889,0.003262039625703819,0.001815874931242719
6701.3399771501045,0.0032396191461558834,0.001802468736364651
6701.34097692232,0.0032180587623545876,0.0017899572720379707
6701.341976694535,0.0031974882905253217,0.0017783946041821132
6701.342976466751,0.0031780221726301536,0.0017678337621513656
6701.343976238966,0.0031597598299567308,0.0017583264364716053
6701.344976011181,0.003142786399861637,0.0017499229044650232
6701.345975783396,0.003127173783375721,0.0017426721830685614
6701.346975555612,0.0031129818835528645,0.0017366223516471426
6701.347975327827,0.0031002598647307516,0.001731820946758204
6701.3489751000425,0.0030890472653485857,0.001728315313428902
6701.349974872257,0.003079374858259833,0.001726152799941407
6701.350974644472,0.0030712652341965516,0.0017253806976898454
6701.351974416688,0.0030647331500423015,0.0017260458551194443
6701.352974188903,0.003059785723453923,0.001728193940068608
6701.353973961119,0.0030564225704505345,0.0017318683806330807
6701.354973733334,0.0030546359775197015,0.001737109059740283
6701.355973505549,0.0030544111850613876,0.0017439508571632702
6701.356973277764,0.0030557268446037753,0.0017524221284179594
6701.35797304998,0.0030585557014263624,0.0017625431969084588
6701.358972822195,0.003062865541147588,0.0017743249234437187
6701.3599725944105,0.0030686204073526392,0.0017877674099979859
6701.360972366625,0.0030757820375977856,0.0018028588925458667
6701.36197213884,0.003084311396684941,0.0018195748739973565
6701.362971911056,0.0030941701453349956,0.0018378775334116693
6701.363971683271,0.0031053218822216394,0.0018577154221573315
6701.364971455487,0.003117733015631257,0.0018790234322163246
6701.365971227701,0.00313137312942266,0.0019017230045669732
6701.366970999917,0.003146214700215827,0.001925722535596901
6701.367970772132,0.0031622320209238057,0.0019509179343561664
6701.368970544348,0.0031793992273562053,0.0019771932830755694
6701.369970316563,0.003197687431915982,0.0020044215558215716
6701.370970088778,0.003217061122330819,0.0020324653565810184
6701.371969860993,0.003237474134274514,0.002061177658237462
6701.372969633208,0.003258865609318069,0.0020904025619785664
6701.373969405424,0.003281156383301786,0.0021199761375763496
6701.374969177639,0.003304246219094872,0.0021497274262924047
6701.375968949855,0.003328012222154116,0.002179479678652149
6701.376968722069,0.003352308676413636,0.00220905186299658
6701.377968494285,0.003376968416566442,0.002238260433522536
6701.3789682665,0.0034018057120850176,0.002266921310480552
6701.379968038716,0.0034266204943418405,0.0022948520140393222
6701.380967810931,0.003451203637908311,0.0023218738997953883
6701.3819675831455,0.0034753429333316726,0.0023478144482200116
6701.382967355361,0.0034988293748844626,0.0023725095511110874
6701.383967127576,0.0035214634325364917,0.002395805718192163
6701.384966899792,0.00354306105504412,0.002417562103899425
6701.385966672007,0.003563459209378123,0.0024376522345024485
6701.386966444223,0.003582520765402353,0.002455965305868057
6701.387966216437,0.003600138503858797,0.0024724069337255542
6701.388965988653,0.0036162380219423693,0.002486899286237277
6701.389965760868,0.0036307793766094418,0.002499380616653692
6701.390965533084,0.003643757429320751,0.002509804316862585
6701.391965305299,0.003655200994267626,0.00251813768810705
6701.3929650775135,0.0036651710032096275,0.002524360650304388
6701.393964849729,0.0036737579539285288,0.0025284646002048726
6701.394964621944,0.0036810789040592194,0.0025304516021489587
6701.39596439416,0.0036872742366516483,0.0025303340514141784
6701.396964166375,0.003692504380248372,0.0025281348799979413
6701.397963938591,0.0036969466047670606,0.002523888290384291
6701.398963710805,0.0037007919254897857,0.0025176409279794153
6701.399963483021,0.0037042420542345023,0.0025094533482173343
6701.400963255236,0.0037075062761303423,0.0024994016027003263
6701.401963027452,0.0037107981198376116,0.002487578766233772
6701.402962799667,0.00371433172768918,0.002474096249344761
6701.4039625718815,0.0037183179095362597,0.0024590847695005213
6701.404962344097,0.003722959946403282,0.0024426948780067385
6701.405962116312,0.0037284492463772107,0.002425096967998008
6701.406961888528,0.0037349609264328443,0.0024064807277199536
6701.407961660743,0.003742649341525391,0.0023870540379401393
6701.408961432959,0.003751643567042816,0.0023670413296797334
6701.409961205173,0.0037620428850843064,0.0023466814251299384
6701.410960977389,0.003773912409240885,0.002326224891251606
6701.411960749604,0.00378727907762029,0.002305930944514789
6701.41296052182,0.003802128322512248,0.00228606395949314
6701.413960294035,0.0038184017548234805,0.002266889654709889
6701.4149600662495,0.003835996160638823,0.0022486710467244284
6701.415959838465,0.0038547640117938767,0.002231664271147899
6701.41695961068,0.003874515588813219,0.0022161143743829096
6701.417959382896,0.003895022737798151,0.0022022511895281455
6701.418959155111,0.003916024221421341,0.0021902854200661374
6701.419958927327,0.00393723253908645,0.002180405056668358
6701.420958699541,0.0039583419685458,0.002172772236400354
6701.421958471757,0.003979037452383425,0.0021675206164541326
6701.422958243972,0.003999003867018514,0.0021647532889187125
6701.423958016188,0.004017935200417997,0.002164541228757604
6701.424957788403,0.004035543222157301,0.002166922247651991
6701.4259575606175,0.004051565315622466,0.002171900406584311
6701.426957332833,0.004065771208521608,0.0021794458109020945
6701.427957105048,0.004077968368349826,0.002189494688709366
6701.428956877264,0.00408800585436217,0.0022019496604281544
6701.429956649479,0.0040957764802694785,0.0022166801404835037
6701.430956421694,0.004101217259281694,0.0022335228407840287
6701.431956193909,0.004104308261401047,0.002252282360574551
6701.432955966125,0.004105070176519685,0.002272731878656982
6701.43395573834,0.004103560994926121,0.0022946140298162458
6701.434955510556,0.004099872246584195,0.0023176421140022607
6701.435955282771,0.004094125177757373,0.0023415018100739044
6701.436955054985,0.004086467122096902,0.002365853542571126
6701.437954827201,0.004077068189871138,0.002390335607311874
6701.438954599416,0.004066118288938934,0.002414568116905891
6701.439954371632,0.004053824415366864,0.0024381577780014973
6701.440954143847,0.004040408102573864,0.002460703455671361
6701.441953916062,0.004026102889943776,0.0024818024239597666
6701.442953688277,0.0040111516726187195,0.002501057149512329
6701.443953460493,0.003995803833273268,0.0025180824033754034
6701.444953232708,0.003980312124282789,0.0025325124462684608
6701.445953004924,0.0039649293287348335,0.0025440080007405395
6701.446952777138,0.003949904744286352,0.0025522627305602226
6701.447952549353,0.003935480503465843,0.00255700900322121
6701.448952321569,0.003921887705115989,0.0025580227995312477
6701.449952093784,0.003909342331584575,0.002555127717398009
6701.450951866,0.0038980409913388454,0.002548198065859683
6701.451951638215,0.003888156642277467,0.0025371610613664415
6701.45295141043,0.003879834563844652,0.0025219981413026316
6701.453951182645,0.003873188900321565,0.0025027454146990943
6701.454950954861,0.0038683000761128637,0.0024794932798141225
6701.455950727076,0.003865213308896687,0.002452385248005586
6701.456950499291,0.0038639383488430976,0.00242161601569414
6701.457950271506,0.0038644504708527858,0.002387428818179496
6701.458950043721,0.003866692652035267,0.00235011208653171
6701.459949815937,0.0038705787819411507,0.0023099954236692863
6701.460949588152,0.0038759976748427303,0.002267444929522154
6701.461949360368,0.003882817583249745,0.0022228579379473803
6701.462949132583,0.0038908908747073137,0.0021766572600477514
6701.463948904798,0.003900058567622205,0.002129285037281988
6701.464948677013,0.003910154529014491,0.0020811963010542614
6701.465948449229,0.003921009256001139,0.0020328523461963276
6701.466948221444,0.003932453212289813,0.0019847140639313253
6701.467947993659,0.003944319645730886,0.0019372354171002834
6701.468947765874,0.003956446727957783,0.001890857249849575
6701.469947538089,0.003968678826502748,0.0018460016047696017
6701.470947310305,0.003980866806262227,0.0018030666815820739
6701.47194708252,0.003992867437423936,0.001762422522558287
6701.472946854736,0.00400454216746448,0.001724407463120216
6701.473946626951,0.004015755615071265,0.0016893253472752814
6701.474946399166,0.004026374152326209,0.0016574434757096186
6701.475946171381,0.004036264890002795,0.0016289912334829593
6701.476945943597,0.004045295297849717,0.001604159338298389
6701.477945715812,0.0040533335943643166,0.0015830996515707068
6701.478945488027,0.004060249942723024,0.0015659254913873576
6701.479945260242,0.004065918397483195,0.0015527123781571028
6701.480945032457,0.004070219460516021,0.0015434991395996236
6701.481944804673,0.004073043038574866,0.001538289306530162
6701.482944576888,0.004074291581372791,0.001537052735858574
6701.483944349104,0.004073883230172852,0.001539727390777665
6701.484944121319,0.004071754878778918,0.0015462211914281214
6701.485943893534,0.004067865070183879,0.0015564138357900307
6701.486943665749,0.004062196592557983,0.0015701584966152453
6701.4879434379645,0.00405475853768583,0.001587283336917353
6701.48894321018,0.00404558752278055,0.0016075928463142122
6701.489942982395,0.004034747816996775,0.0016308690542552553
6701.49094275461,0.004022330264013461,0.001656872700484165
6701.491942526825,0.004008450095173113,0.001685344446996587
6701.492942299041,0.0039932438959024,0.0017160062234735372
6701.493942071256,0.003976866053636392,0.001748562812765067
6701.494941843472,0.003959484971900213,0.0017827037848994697
6701.495941615686,0.003941279238590803,0.001818105863772405
6701.496941387902,0.003922433855791118,0.0018544357664073872
6701.497941160117,0.003903136600714585,0.001891353504034722
6701.4989409323325,0.0038835745742156545,0.0019285160854438388
6701.499940704548,0.0038639309770554845,0.0019655815225088605
6701.500940476763,0.0038443821249303034,0.00200221301639414
6701.501940248978,0.003825094685747609,0.0020380832068108063
6701.502940021193,0.0038062231251644696,0.0020728783817035527
6701.503939793409,0.0037879073887455345,0.0021063025462403693
6701.504939565624,0.003770270898617632,0.0021380812335934905
6701.50593933784,0.0037534189470787896,0.002167964928154594
6701.506939110054,0.0037374375075739986,0.0021957319835333275
6701.50793888227,0.003722392388915761,0.002221190945086814
6701.508938654485,0.0037083285982540595,0.002244182209441789
6701.5099384267005,0.003695269800494074,0.0022645789684803187
6701.510938198916,0.0036832178642736135,0.0022822874081775283
6701.5119379711305,0.0036721526209335686,0.0022972461682698253
6701.512937743346,0.0036620320723923646,0.002309425102616183
6701.513937515561,0.003652793322415811,0.0023188234059292236
6701.514937287777,0.003644354465196466,0.0023254671981749113
6701.515937059992,0.003636617570349258,0.0023294066806873056
6701.516936832208,0.0036294727915160765,0.002330712985323723
6701.517936604422,0.003622803523442386,0.002329474833480403
6701.518936376638,0.0036164924465323304,0.0023257951248751127
6701.519936148853,0.0036104282208336605,0.002319787594840523
6701.5209359210685,0.0036045125136018397,0.0023115737016045205
6701.521935693284,0.0035986669700497687,0.0023012799179408868
6701.522935465498,0.0035928396916223757,0.00228903559980846
6701.523935237714,0.003587010801367339,0.002274971582657958
6701.524935009929,0.0035811967536500573,0.0022592196062752087
6701.525934782145,0.0035754531465376563,0.002241912595344413
6701.52693455436,0.003569875869872295,0.002223185743637505
6701.527934326576,0.0035646004558973717,0.0022031782820290374
6701.52893409879,0.00355979953110147,0.0021820357558639406
6701.529933871006,0.0035556783550151558,0.0021599125857471755
6701.530933643221,0.003552468589506705,0.002136974640420939
6701.5319334154365,0.0035504206210542196,0.002113401536655473
6701.532933187652,0.00354979488532048,0.0020893884207067934
6701.533932959866,0.003550852681232473,0.002065147069097067
6701.534932732082,0.0035538469261924698,0.002040906237863165
6701.535932504297,0.0035590132363481153,0.0020169112521325853
6701.536932276513,0.00356656165131563,0.0019934228464841977
6701.537932048728,0.0035766692704472707,0.0019707152587231194
6701.538931820944,0.00358947401148875,0.0019490735797385848
6701.539931593158,0.0036050696246325703,0.0019287903847042761
6701.540931365374,0.0036235019980734415,0.0019101616978723832
6701.541931137589,0.003644766698020433,0.0018934823521852772
6701.542930909804,0.003668807626211023,0.0018790408021540127
6701.54393068202,0.0036955166697435703,0.0018671134610820715
6701.544930454234,0.0037247342491302958,0.0018579586727428437
6701.54593022645,0.0037562506957842363,0.0018518104733625197
6701.546929998665,0.0037898083705160614,0.0018488723252275156
6701.547929770881,0.003825104381527089,0.0018493110012409296
6701.548929543096,0.0038617937234378605,0.001853250786480843
6701.549929315312,0.003899492672405879,0.001860768161238961
6701.550929087526,0.003937782334989033,0.0018718871490761358
6701.551928859742,0.003976212342507539,0.0018865755389908736
6701.552928631957,0.004014304787062954,0.0019047421972223121
6701.553928404172,0.004051558581635417,0.0019262356581756046
6701.554928176388,0.004087454463921937,0.001950844135117821
6701.555927948602,0.004121460840680977,0.001978297036487946
6701.556927720818,0.004153040604842971,0.0020082680188342177
6701.557927493033,0.0041816589736073774,0.002040379551325369
6701.558927265249,0.004206792294713654,0.0020742089120939305
6701.559927037464,0.0042279376510005635,0.0021092954887682405
6701.560926809679,0.004244622981902959,0.002145149216858431
6701.561926581894,0.004256417364428941,0.0021812599583424775
6701.56292635411,0.0042629410699052475,0.002217107593508297
6701.563926126325,0.004263875031603558,0.0022521725672588195
6701.56492589854,0.0042589694027826185,0.002285946600615231
6701.565925670756,0.004248050921045505,0.0023179432598148734
6701.56692544297,0.0042310287909426356,0.0023477080737835734
6701.567925215186,0.004207898759168519,0.0023748279001906407
6701.568924987401,0.004178745043666997,0.0023989392558366168
6701.569924759617,0.004143739851667173,0.0024197353513047293
6701.570924531832,0.004103140391933952,0.002436971606332391
6701.571924304047,0.004057283506432709,0.002450469473004668
6701.572924076262,0.004006578245973007,0.002460118463834176
6701.5739238484775,0.003951496836439602,0.002465876372953762
6701.574923620693,0.0038925645144416363,0.0024677677751309746
6701.575923392908,0.0038303486892215465,0.0024658809683813917
6701.576923165123,0.003765447856970221,0.0024603635911379517
6701.577922937338,0.0036984806669405927,0.0024514172016331525
6701.578922709554,0.0036300754935955615,0.002439291141848599
6701.579922481769,0.0035608607795161234,0.0024242759975184273
6701.580922253985,0.0034914562800020675,0.002406696908360452
6701.5819220262,0.0034224651959547793,0.002386906902150014
6701.582921798415,0.003354467077173818,0.0023652803458916664
6701.58392157063,0.0032880113490574114,0.002342206540370652
6701.5849213428455,0.0032236113573896916,0.0023180834396974432
6701.585921115061,0.0031617388952841522,0.0022933114641770186
6701.586920887276,0.003102819220624328,0.002268287397223237
6701.587920659491,0.0030472265682477797,0.002243398403079624
6701.588920431706,0.0029952801323288604,0.002219016245698191
6701.589920203922,0.0029472404845683965,0.0021954918138462603
6701.590919976137,0.002903306426247397,0.0021731500657094257
6701.591919748353,0.002863612344971041,0.0021522854998984025
6701.592919520568,0.002828226243628825,0.0021331582355445045
6701.593919292783,0.002797148692921763,0.0021159907530406154
6701.594919064998,0.002770312983638365,0.0021009653331718514
6701.5959188372135,0.0027475867055026565,0.0020882222416650645
6701.596918609429,0.002728774884964253,0.002077858712484135
6701.597918381644,0.002713624717376779,0.002069928759288947
6701.598918153859,0.0027018318532627253,0.002064443793317913
6701.599917926074,0.00269304813970098,0.0020613739713462504
6701.60091769829,0.0026868906580608284,0.002060650159162352
6701.601917470505,0.0026829518315014565,0.002062166383057767
6701.602917242721,0.002680810315666044,0.002065782651921016
6701.603917014936,0.0026800423521052587,0.0020713280517641844
6701.604916787151,0.0026802332514603918,0.0020786040285018085
6701.605916559366,0.0026809886606183856,0.002087387780498727
6701.6069163315815,0.0026819452454913593,0.0020974356852873828
6701.607916103797,0.002682780406151441,0.002108486694821389
6701.608915876012,0.0026832206635967444,0.002120265661631432
6701.609915648227,0.0026830484332001033,0.002132486602626037
6701.610915420442,0.0026821070155243383,0.0021448559503459462
6701.611915192658,0.00268030375791198,0.0021570758668356055
6701.612914964873,0.0026776114404480004,0.002168847696209997
6701.613914737089,0.0026740680045640145,0.002179875607560276
6701.614914509304,0.0026697747774616434,0.002189870439036048
6701.615914281519,0.002664893367629428,0.002198553714348846
6701.616914053734,0.002659641427120057,0.0022056617742395143
6701.6179138259495,0.002654287491748868,0.0022109499422645197
6701.618913598165,0.002649145111683906,0.002214196619380809
6701.61991337038,0.002644566464297248,0.0022152071812833883
6701.620913142595,0.002640935595875591,0.002213817554984614
6701.62191291481,0.0026386613777443393,0.0022098973896993107
6701.622912687026,0.002638170207038777,0.002203352797828291
6701.623912459241,0.002639898453052079,0.0021941286870472672
6701.624912231457,0.0026442846464221153,0.0021822107054964048
6701.625912003671,0.002651761406300327,0.0021676267841898448
6701.626911775887,0.0026627470804075713,0.0021504482122642037
6701.627911548102,0.002677637053044308,0.0021307901489226143
6701.6289113203175,0.0026967947052021287,0.0021088114747731626
6701.629911092533,0.0027205421161814462,0.002084713907543628
6701.630910864748,0.0027491507450316775,0.0020587403298045334
6701.631910636963,0.0027828324506778625,0.0020311722847066943
6701.632910409178,0.00282173125136446,0.002002326600359247
6701.633910181394,0.0028659161961729785,0.0019725511285533038
6701.634909953609,0.0029153756716719203,0.0019422196387898867
6701.635909725825,0.0029700134307034482,0.0019117259746608542
6701.636909498039,0.003029646600381925,0.0018814776286452766
6701.637909270255,0.0030940058674557153,0.0018518889150730673
6701.63890904247,0.0031627379315835023,0.0018233739272884265
6701.639908814685,0.0032354101778597033,0.0017963394599513174
6701.640908586901,0.0033115173815079406,0.001771178063715925
6701.641908359115,0.003390490138611251,0.0017482613811524185
6701.642908131331,0.003471704623971005,0.001727933892243027
6701.643907903546,0.003554493228497618,0.0017105071774023135
6701.644907675762,0.0036381556459252435,0.001696254792746697
6701.645907447977,0.0037219700462527957,0.0016854078514229114
6701.646907220193,0.0038052040320839644,0.0016781514080015962
6701.647906992407,0.003887125084649829,0.0016746217345942544
6701.648906764623,0.003967010198073295,0.0016749045520826952
6701.649906536838,0.004044154440350812,0.001679034245552315
6701.650906309053,0.004117878305046478,0.001686994056738668
6701.651906081269,0.004187533903485041,0.0016987172057362579
6701.652905853483,0.004252510225003381,0.0017140888476847931
6701.653905625699,0.004312237799770204,0.0017329487312269622
6701.654905397914,0.0043661931152570044,0.0017550944170901008
6701.65590517013,0.004413903085880284,0.0017802849416562393
6701.656904942345,0.0044549497855879035,0.0018082448455030336
6701.657904714561,0.004488975538784537,0.0018386684992899823
6701.658904486775,0.004515688332938709,0.0018712246442461739
6701.659904258991,0.004534867382472782,0.0019055610431938004
6701.660904031206,0.004546368559948413,0.00194130913507414
6701.661903803421,0.004550129336883876,0.0019780886114267086
6701.662903575637,0.004546172859019747,0.0020155118786729315
6701.663903347851,0.004534610823967174,0.002053188415337114
6701.664903120067,0.004515644907947824,0.0020907290615403387
6701.665902892282,0.00448956655247262,0.0021277502853933785
6701.666902664498,0.004456754939864757,0.002163878462458624
6701.667902436713,0.00441767298437336,0.0021987541844646955
6701.668902208929,0.004372861206175613,0.0022320365836370174
6701.669901981143,0.004322929481076117,0.0022634076251520532
6701.670901753359,0.004268546854080545,0.0022925762934568636
6701.671901525574,0.004210429804211772,0.0023192825860053694
6701.672901297789,0.004149329473004196,0.0023433012284019747
6701.673901070005,0.004086018381798829,0.00236444503021248
6701.674900842219,0.0040212770935246275,0.0023825678034835587
6701.675900614435,0.003955881196267213,0.0023975667666402893
6701.67690038665,0.00389058895077064,0.0024093843616904177
6701.677900158866,0.003826129940900589,0.0024180094208137008
6701.678899931081,0.003763195041023608,0.0024234776177177687
6701.6798997032965,0.003702427928385753,0.002425871130109502
6701.680899475511,0.003644418231757555,0.0024253174414241613
6701.681899247727,0.0035896962654983606,0.0024219872367990942
6701.682899019942,0.003538729199887539,0.00241609139429633
6701.683898792157,0.0034919184870842073,0.0024078771218314404
6701.684898564373,0.0034495983772879577,0.002397623331305364
6701.685898336587,0.0034120353721030098,0.002385635371501967
6701.686898108803,0.003379428438481638,0.002372239263333543
6701.687897881018,0.003351909765066543,0.002357775593664462
6701.688897653234,0.003329545837006217,0.002342593226037381
6701.689897425449,0.0033123386746134573,0.002327042988310216
6701.690897197664,0.003300227214804869,0.0023114715043269767
6701.691896969879,0.0032930889562765597,0.002296215331807725
6701.692896742095,0.0032907420779861433,0.002281595531012333
6701.69389651431,0.0032929482511977674,0.002267912726004908
6701.694896286525,0.0032994163235073436,0.0022554426660829625
6701.695896058741,0.0033098070058850937,0.002244432278148183
6701.696895830955,0.0033237386628144497,0.002235096221125836
6701.697895603171,0.0033407942679360672,0.002227613987879686
6701.698895375386,0.0033605295073944677,0.0022221276278167916
6701.699895147602,0.003382481887038451,0.0022187401758714345
6701.700894919817,0.0034061805589063326,0.002217514867983217
6701.701894692032,0.003431156461869188,0.0022184752005753425
6701.702894464247,0.00345695229274351,0.0022216058552008444
6701.703894236463,0.0034831318012441366,0.0022268544603177352
6701.704894008678,0.003509287941042306,0.0022341340995283153
6701.705893780893,0.0035350494979310343,0.0022433264054024737
6701.706893553108,0.003560085924333798,0.002254285022032479
6701.707893325323,0.0035841102132391717,0.002266839210506127
6701.708893097539,0.003606879750948929,0.0022807974213573806
6701.709892869754,0.0036281952230516144,0.0022959507378964156
6701.71089264197,0.0036478978170165982,0.0023120761652824858
6701.711892414185,0.0036658651278766194,0.0023289397901493196
6701.7128921864,0.003682006271245842,0.0023462998690744136
6701.713891958615,0.0036962567127452124,0.002363909916568455
6701.714891730831,0.003708573258368669,0.002381521845137187
6701.715891503046,0.003718929562499162,0.002398889166494616
6701.716891275261,0.003727312428735836,0.0024157702134598624
6701.717891047476,0.0037337191032969495,0.002431931302281661
6701.718890819691,0.003738155675059822,0.002447149731835339
6701.719890591907,0.0037406365889748653,0.002461216516647084
6701.720890364122,0.0037411851582695665,0.0024739387800648306
6701.721890136338,0.0037398348504837104,0.002485141781601185
6701.722889908553,0.0037366310504308806,0.0024946705981871505
6701.723889680768,0.003731632982669142,0.0025023915074710466
6701.724889452983,0.0037249154982767958,0.0025081931234337486
6701.725889225198,0.00371657047323548,0.002511987311453681
6701.726888997414,0.0037067076061980194,0.0025137098829416667
6701.727888769629,0.003695454429578573,0.002513321067160241
6701.728888541844,0.003682955368610981,0.0025108057808024007
6701.729888314059,0.0036693697314060278,0.002506173736016051
6701.730888086275,0.003654868622076161,0.0024994594266342708
6701.73188785849,0.0036396309348311613,0.0024907220180167017
6701.732887630706,0.003623838756046691,0.002480045145559925
6701.733887402921,0.0036076726009456393,0.00246753660045384
6701.734887175136,0.003591306907719156,0.0024533278589897395
6701.735886947351,0.003574906135985974,0.002437573407126367
6701.736886719566,0.003558621723883075,0.002420449820651263
6701.737886491782,0.0035425900716712024,0.0024021545670007425
6701.738886263997,0.0035269316249703433,0.0023829044870753774
6701.739886036212,0.0035117510107554686,0.002362933896955318
6701.740885808427,0.0034971380439142523,0.0023424922414278953
6701.741885580643,0.0034831693130234808,0.0023218412625122726
6701.742885352858,0.003469910019111723,0.002301251719517569
6701.743885125074,0.0034574157907125568,0.0022809997742838524
6701.744884897289,0.003445734285226005,0.002261363187825835
6701.745884669504,0.003434906441673204,0.002242617445638101
6701.746884441719,0.0034249672454866806,0.0022250318610950236
6701.747884213934,0.0034159458429566113,0.0022088656387132524
6701.74888398615,0.0034078648727344485,0.0021943638398171724
6701.749883758365,0.0034007389977484966,0.002181753192880416
6701.75088353058,0.003394572789216905,0.0021712377306211885
6701.751883302795,0.003389358265936459,0.002162994306731365
6701.752883075011,0.003385072472381313,0.002157168123850163
6701.753882847226,0.003381675476431021,0.002153868468035972
6701.754882619442,0.003379109107909561,0.0021531648834602155
6701.755882391656,0.0033772966793614834,0.0021550840304011072
6701.756882163872,0.003376143848958801,0.0021596074468652644
6701.757881936087,0.0033755406957535466,0.002166670382696704
6701.758881708302,0.003375364969347787,0.002176161804496635
6701.759881480518,0.003375486358565065,0.002187925591048885
6701.760881252733,0.0033757715229260706,0.002201762863489025
6701.761881024948,0.0033760895673250494,0.0022174353319238125
6701.762880797163,0.003376317618581209,0.0022346694971577177
6701.763880569379,0.0033763461764867255,0.0022531615287860723
6701.764880341594,0.0033760839483707055,0.0022725826496156655
6701.7658801138095,0.0033754619122858564,0.002292584874496304
6701.766879886024,0.003374436369910531,0.0023128069583937764
6701.76787965824,0.0033729907583290863,0.00233288040746726
6701.768879430455,0.003371136036935438,0.0023524354211517736
6701.76987920267,0.003368909585461,0.002371106671612215
6701.770878974886,0.0033663727220839107,0.002388538871599774
6701.7718787471,0.0033636071251648275,0.002404392109075073
6701.772878519316,0.003360710571823916,0.002418346930990034
6701.773878291531,0.0033577924585257964,0.0024301091511430206
6701.774878063747,0.0033549695303342454,0.0024394143483794767
6701.775877835962,0.003352362135222965,0.002446032010746928
6701.7768776081775,0.0033500911765408726,0.0024497692684958467
6701.777877380392,0.003348275795807633,0.0024504741538702666
6701.778877152608,0.0033470317047667743,0.002448038336351344
6701.779876924823,0.0033464700160088217,0.0024423993015189696
6701.780876697038,0.0033466963933616667,0.0024335419548959566
6701.781876469254,0.0033478103371502427,0.002421499630636286
6701.782876241468,0.00334990442313384,0.0024063544711268284
6701.783876013684,0.003353063336346274,0.0023882371221508637
6701.784875785899,0.00335736258709697,0.002367325658459995
6701.785875558115,0.0033628668416849465,0.002343843619093008
6701.78687533033,0.0033696278153261296,0.0023180570112201313
6701.7878751025455,0.003377681670557576,0.0022902701655742198
6701.78887487476,0.0033870458897982646,0.002260820405927536
6701.789874646976,0.003397715675509657,0.0022300716057299364
6701.790874419191,0.003409660050229929,0.0021984068079792135
6701.791874191406,0.0034228179318955784,0.0021662201570499507
6701.792873963622,0.003437094520789752,0.002133908434280077
6701.793873735836,0.003452358352970012,0.0021018625113677796
6701.794873508052,0.00346843935523492,0.0020704590445047855
6701.795873280267,0.00348512818266485,0.0020400527281994574
6701.796873052483,0.0035021770392523626,0.002010969399196181
6701.797872824698,0.0035193020860048905,0.0019835002166968233
6701.7988725969135,0.0035361874448288856,0.001957897054656077
6701.799872369128,0.0035524907244268485,0.001934369151936251
6701.800872141344,0.0035678499282204854,0.0019130809996452348
6701.801871913559,0.003581891550616343,0.001894151408309666
6701.802871685774,0.0035942396285419567,0.0018776536841741097
6701.80387145799,0.003604525490815705,0.0018636168446423851
6701.804871230204,0.0036123979294510724,0.0018520278062581618
6701.80587100242,0.003617533488508601,0.0018428344711297212
6701.806870774635,0.0036196465164239316,0.0018359496168428404
6701.807870546851,0.0036184985650606406,0.001831255474001295
6701.808870319066,0.0036139066773638612,0.001828608863820442
6701.8098700912815,0.0036057501294479463,0.0018278467576415532
6701.810869863496,0.0035939753019134614,0.0018287921035526078
6701.811869635711,0.003578598523758359,0.0018312597520180607
6701.812869407927,0.003559706902922861,0.0018350623106811645
6701.813869180142,0.0035374572745137797,0.0018400157566611534
6701.814868952358,0.003512073437787425,0.0018459446222388977
6701.815868724572,0.0034838418354100694,0.0018526865619602581
6701.816868496788,0.0034531057975422724,0.0018600961268431847
6701.817868269003,0.0034202584665118936,0.0018680476105480217
6701.818868041219,0.0033857345468884126,0.0018764368760100477
6701.819867813434,0.0033500010756460172,0.0018851821186816886
6701.820867585649,0.0033135474499567516,0.0018942235847396619
6701.821867357864,0.003276874970107056,0.0019035223333499322
6701.822867130079,0.003240486162692827,0.001913058187227774
6701.823866902295,0.0032048741639909544,0.0019228270401766224
6701.82486667451,0.0031705124625964827,0.0019328376928559436
6701.825866446726,0.003137845296180534,0.001943108385451345
6701.82686621894,0.003107278947633255,0.001953663195010037
6701.827865991156,0.0030791741025910373,0.001964528465286163
6701.828865763371,0.003053839348186556,0.001975729435457143
6701.829865535587,0.0030315258393236654,0.001987287225070619
6701.830865307802,0.003012423145224834,0.001999216310656544
6701.8318650800165,0.0029966563174820874,0.0020115225974104436
6701.832864852232,0.002984284274776867,0.0020242021554785594
6701.833864624447,0.0029752996361497343,0.0020372406577984924
6701.834864396663,0.002969630116314017,0.002050613519715803
6701.835864168878,0.002967141527138315,0.0020642866927829697
6701.836863941093,0.002967642345754004,0.002078218006290814
6701.837863713308,0.002970889742139395,0.0020923588902415995
6701.838863485524,0.0029765969094553753,0.0021066562699730215
6701.839863257739,0.002984441488504903,0.002121054413080806
6701.840863029955,0.0029940748067555823,0.0021354965439431394
6701.84186280217,0.003005131575701455,0.002149926115723976
6701.8428625743845,0.0030172396492965923,0.002164287719222193
6701.8438623466,0.0030300294770663552,0.0021785276748416777
6701.844862118815,0.0030431429836011684,0.002192594376578611
6701.845861891031,0.003056241717908198,0.002206438446625744
6701.846861663246,0.0030690141753729645,0.0022200127413545003
6701.847861435461,0.0030811821800599674,0.002233272238588593
6701.848861207676,0.0030925061671205566,0.0022461738363762124
6701.849860979892,0.0031027891877113177,0.0022586761043319682
6701.850860752107,0.0031118795058144195,0.0022707390402100878
6701.851860524323,0.0031196717588913517,0.00228232388113785
6701.852860296538,0.0031261067789138007,0.0022933929938772656
6701.8538600687525,0.0031311702741871096,0.0023039098308465333
6701.854859840968,0.0031348906177850987,0.0023138389105558533
6701.855859613183,0.0031373359692901883,0.0023231457821930182
6701.856859385399,0.003138610907287064,0.0023317969605068517
6701.857859157614,0.0031388527096251648,0.002339759844295745
6701.858858929829,0.003138227390846676,0.002347002644584394
6701.859858702044,0.0031369255703567753,0.0023534943555475448
6701.86085847426,0.0031351581966235376,0.0023592048134878094
6701.861858246475,0.0031331521177762433,0.002364104900695464
6701.8628580186905,0.003131145492458753,0.0023681669471616287
6701.863857790906,0.003129383070769489,0.0023713653560240968
6701.8648575631205,0.0031281114116385226,0.0023736774332432176
6701.865857335336,0.0031275741076545946,0.002375084360387575
6701.866857107551,0.0031280070509219567,0.0023755722423831355
6701.867856879767,0.003129633716411461,0.0023751331974654405
6701.868856651982,0.003132660407281383,0.002373766501931212
6701.869856424197,0.0031372714354534897,0.002371479816222568
6701.870856196412,0.0031436242977952154,0.0023682904944997054
6701.871855968628,0.0031518450141216634,0.002364226944445467
6701.872855740843,0.003162023871880815,0.002359329981976659
6701.8738555130585,0.003174211850477569,0.0023536541165008326
6701.874855285274,0.0031884179775818846,0.002347268693233064
6701.8758550574885,0.0032046078121705634,0.0023402588040971274
6701.876854829704,0.0032227031700472414,0.0023327258659543272
6701.877854601919,0.0032425831285132684,0.0023247877654237986
6701.878854374135,0.0032640862819841077,0.0023165784849368955
6701.87985414635,0.0032870141610198797,0.0023082471522641685
6701.880853918565,0.0033111356579539394,0.0022999564957863748
6701.88185369078,0.003336192235940584,0.002291880732691656
6701.882853462996,0.0033619036730497564,0.0022842029475877734
6701.883853235211,0.0033879741236071017,0.0022771120191595264
6701.8848530074265,0.003414098332210427,0.0022707991245106774
6701.885852779641,0.003439967865624553,0.002265453818025178
6701.8868525518565,0.0034652772117729196,0.002261259678439399
6701.887852324072,0.003489729541132854,0.0022583895576566053
6701.888852096287,0.003513041872071378,0.0022570005218537376
6701.889851868503,0.003534949384167987,0.0022572286186286683
6701.890851640718,0.0035552087163184818,0.002259183636729333
6701.891851412933,0.003573600248926447,0.002262944069565741
6701.892851185148,0.003589929537589134,0.0022685525490067798
6701.893850957364,0.0036040281738312,0.002276012051865779
6701.894850729579,0.0036157543716194796,0.0022852831717266485
6701.8958505017945,0.003624993539417898,0.0022962826943222435
6701.896850274009,0.0036316590325265077,0.0023088836347616914
6701.897850046224,0.0036356932043091626,0.0023229168048729443
6701.89884981844,0.003637068783369623,0.0023381738819444487
6701.899849590655,0.0036357904954904966,0.00235441184781151
6701.900849362871,0.0036318967384905048,0.0023713585718727606
6701.901849135085,0.003625461032626591,0.002388719241793389
6701.902848907301,0.0036165929379455594,0.002406183312584941
6701.903848679516,0.0036054381669285256,0.002423431650135545
6701.904848451732,0.003592177708701709,0.002440143585379555
6701.905848223947,0.003577025873866107,0.0024560036608548856
6701.9068479961625,0.003560227223523696,0.0024707079298096814
6701.907847768377,0.0035420523609710065,0.002483969743870904
6701.908847540592,0.0035227925847769407,0.002495525018033774
6701.909847312808,0.003502753479355275,0.0025051369778437116
6701.910847085023,0.003482247660025884,0.0025126003794378954
6701.911846857239,0.0034615870429746233,0.0025177451637871076
6701.912846629453,0.0034410751122223365,0.0025204394716855706
6701.913846401669,0.003420999674980916,0.002520591914540259
6701.914846173884,0.0034016265428096393,0.002518152987037084
6701.9158459461,0.003383194478096591,0.0025131155453702713
6701.916845718315,0.003365911629810382,0.0025055143577081564
6701.91784549053,0.003349953560260057,0.0024954248198452537
6701.918845262745,0.0033354628392806454,0.002482960972799248
6701.91984503496,0.0033225500597043028,0.002468272955007111
6701.920844807176,0.003311296014658153,0.00245154399678084
6701.921844579391,0.0033017546845087527,0.002432987045005479
6701.922844351607,0.003293956635115477,0.0024128411001117485
6701.923844123821,0.0032879124538376047,0.002391367344588051
6701.924843896037,0.0032836159342464876,0.0023688451276698023
6701.925843668252,0.0032810468148924076,0.0023455678462897165
6701.926843440468,0.0032801729332744495,0.0023218387436622044
6701.927843212683,0.003280951669232195,0.0022979666396288493
6701.928842984898,0.003283330565479623,0.0022742616024421444
6701.929842757113,0.003287247076404448,0.0022510305686313436
6701.930842529328,0.0032926275203997634,0.002228572930667199
6701.931842301544,0.0032993854580276715,0.002207176149382414
6701.932842073759,0.0033074198291129214,0.00218711149317063
6701.933841845975,0.0033166132175295087,0.002168630037369763
6701.934841618189,0.0033268305777449025,0.002151959070869988
6701.935841390405,0.0033379186853326865,0.0021372990558486513
6701.93684116262,0.0033497064917428787,0.002124821264790338
6701.937840934836,0.0033620064825099446,0.0021146661699702578
6701.938840707051,0.00337461706695895,0.0021069425898926027
6701.939840479266,0.0033873259699368206,0.002101727519845465
6701.940840251481,0.003399914533668257,0.0020990665046981484
6701.941840023696,0.003412162751414995,0.00209897436461831
6701.942839795912,0.0034238547669275857,0.0021014360733452517
6701.943839568127,0.003434784536952283,0.002106407621645963
6701.944839340343,0.0034447613845685217,0.002113816762054382
6701.945839112557,0.0034536152227087487,0.0021235635991080043
6701.946838884773,0.0034612012436348867,0.002135521048888629
6701.947838656988,0.0034674038501723973,0.002149535246475499
6701.948838429204,0.003472139605389671,0.0021654260326684667
6701.949838201419,0.0034753590534878976,0.0021829876924966576
6701.9508379736335,0.0034770474062599662,0.0022019901325851417
6701.951837745849,0.003477224232916185,0.002222180667635971
6701.952837518064,0.0034759423814322127,0.0022432865479024336
6701.95383729028,0.0034732863841090028,0.0022650183089110436
6701.954837062495,0.003469370573596604,0.002287073960648259
6701.955836834711,0.0034643370801248994,0.0023091439557324303
6701.956836606925,0.0034583538156392744,0.002330916797208121
6701.957836379141,0.0034516124888463165,0.0023520850860253954
6701.958836151356,0.0034443266406535933,0.002372351778208193
6701.959835923572,0.003436729639360736,0.002391436420643284
6701.960835695787,0.0034290725316525514,0.002409081152649716
6701.9618354680015,0.0034216216205861178,0.0024250562848275523
6701.962835240217,0.0034146556425624056,0.0024391652824637903
6701.963835012432,0.003408462439664333,0.0024512489854974025
6701.964834784648,0.0034033350659850967,0.0024611889095150696
6701.965834556863,0.0033995673097875928,0.0024689095128649402
6701.966834329078,0.00339744863272302,0.0024743793816412907
6701.967834101293,0.0033972585222903544,0.002477611354892637
6701.968833873509,0.003399260257255813,0.0024786616656329867
6701.969833645724,0.0034036941299278923,0.002477628204095369
6701.97083341794,0.003410770260890762,0.0024746480245141016
6701.971833190155,0.0034206612662630196,0.0024698942201339088
6701.9728329623695,0.003433495157462701,0.002463572286124196
6701.973832734585,0.003449348915993253,0.002455916080130725
6701.9748325068,0.003468243160921514,0.002447183473159723
6701.975832279016,0.0034901382343952726,0.002437651754760578
6701.976832051231,0.0035149319150866165,0.002427612820464004
6701.977831823446,0.0035424588599212523,0.0024173681415780197
6701.978831595661,0.0035724917784958335,0.0024072235147005695
6701.979831367877,0.0036047442608933117,0.0023974836146675137
6701.980831140092,0.003638875104333054,0.0023884464161824125
6701.981830912308,0.00367449391961656,0.0023803975869566914
6701.982830684523,0.0037111677617531593,0.0023736049773823388
6701.983830456737,0.0037484285371008645,0.0023683133347995803
6701.984830228953,0.003785780978310024,0.002364739355362455
6701.985830001168,0.0038227110026471827,0.0023630671604295255
6701.986829773384,0.003858694241264488,0.0023634442607403335
6701.987829545599,0.0038932044617478,0.0023659780663151902
6701.988829317814,0.003925721569653331,0.0023707330221211915
6701.989829090029,0.0039557389268991975,0.0023777284871031984
6701.990828862245,0.003982769862831287,0.002386937493142897
6701.99182863446,0.00400635341300471,0.002398286492143226
6701.992828406676,0.004026059432061501,0.00241165613039208
6701.993828178891,0.004041493265844022,0.0024268830183017706
6701.994827951105,0.004052300151692081,0.0024437624257820935
6701.995827723321,0.0040581694735601455,0.00246205182773017
6701.996827495536,0.004058838949117912,0.002481475219692559
6701.997827267752,0.004054098772336036,0.002501728100590048
6701.998827039967,0.00404379566795614,0.002522482989359146
6701.999826812182,0.004027836730761619,0.0025433953309455686
6702.000826584397,0.0040061928437371,0.002564109665585015
6702.001826356613,0.003978901429647418,0.0025842659676438063
6702.002826128828,0.003946068310195296,0.002603506073925003
6702.003825901044,0.003907868516274732,0.002621480099004051
6702.004825673259,0.0038645459763418212,0.002637852694449879
6702.005825445473,0.003816412059771064,0.0026523089852542214
6702.006825217689,0.003763842941051507,0.0026645600294133813
6702.007824989904,0.003707275707192068,0.0026743476810325018
6702.00882476212,0.0036472031239740943,0.002681448764051704
6702.009824534335,0.0035841670532990606,0.0026856784708931803
6702.01082430655,0.0035187506587039765,0.002686892901697015
6702.011824078765,0.0034515696932944976,0.002684990674035084
6702.012823850981,0.0033832632777102624,0.0026799135653212073
6702.013823623196,0.003314484611989156,0.0026716461897619134
6702.014823395411,0.0032458920212701356,0.002660214741200322
6702.015823167626,0.0031781406341947244,0.0026456848436454098
6702.016822939841,0.0031118748694859578,0.002628158549938356
6702.017822712057,0.0030477217917159356,0.002607770537578313
6702.018822484272,0.0029862853082842484,0.002584683595040752
6702.019822256488,0.0029281411159240824,0.002559083575910692
6702.020822028703,0.002873832261937121,0.002531174086943606
6702.021821800918,0.002823865168605179,0.0025011712236406667
6702.022821573133,0.0027787059910384868,0.002469298657150906
6702.023821345349,0.0027387772353622383,0.0024357833264032247
6702.024821117564,0.0027044546236042848,0.0024008519234169057
6702.025820889779,0.0026760642135615193,0.002364728290269167
6702.026820661994,0.0026538797523742034,0.0023276317721721636
6702.027820434209,0.0026381201885569286,0.0022897764882659328
6702.028820206425,0.0026289472420480894,0.002251371398188768
6702.02981997864,0.002626462978729403,0.0022126209814422996
6702.030819750856,0.002630707450000513,0.002173726326574051
6702.03181952307,0.002641656588703426,0.0021348864423862946
6702.032819295286,0.0026592206479807107,0.002096299631524804
6702.033819067501,0.002683243503843985,0.0020581647915255854
6702.0348188397165,0.0027135031094290803,0.0020206825231188358
6702.035818611932,0.002749713299712012,0.0019840559281263
6702.036818384147,0.0027915270309510614,0.0019484909780817185
6702.037818156362,0.0028385410370079162,0.0019141963488943506
6702.038817928577,0.0028903018110296923,0.0018813826589477007
6702.039817700793,0.002946312759645901,0.0018502611113536947
6702.040817473008,0.003006042304553204,0.0018210416026299481
6702.041817245224,0.0030689326251146045,0.0017939303939147467
6702.042817017438,0.003134408673553982,0.0017691274394261453
6702.043816789654,0.003201887081587408,0.0017468234496988036
6702.044816561869,0.0032707846251425515,0.0017271967607708216
6702.0458163340845,0.0033405260011442543,0.0017104100919166124
6702.0468161063,0.003410550747390177,0.001696607289037016
6702.047815878515,0.003480319166203989,0.0016859101551662213
6702.04881565073,0.003549317113412774,0.0016784154680456371
6702.049815422945,0.0036170595436587293,0.0016741922849310485
6702.050815195161,0.0036830928025335563,0.0016732796294162534
6702.051814967376,0.003746995819516472,0.0016756846334244249
6702.052814739592,0.0038083805298961305,0.0016813811759247227
6702.053814511806,0.0038668919632565747,0.0016903090341991093
6702.054814284022,0.003922208433091842,0.0017023735468694515
6702.055814056237,0.00397404216079591,0.0017174457721859766
6702.0568138284525,0.004022140520612716,0.001735363112873364
6702.057813600668,0.004066287944131733,0.0017559303870826194
6702.058813372883,0.004106308390887434,0.0017789213591662832
6702.059813145098,0.004142068178739826,0.0018040807823019155
6702.060812917313,0.004173478876504295,0.0018311270182747473
6702.061812689529,0.004200499901139464,0.0018597552779927903
6702.062812461744,0.0042231404498212,0.0018896414799106297
6702.06381223396,0.004241460442841292,0.0019204466714092556
6702.064812006174,0.004255570238918772,0.0019518219225635237
6702.06581177839,0.004265628971885941,0.0019834135988049204
6702.066811550605,0.004271841418876185,0.002014868940899207
6702.0678113228205,0.004274453354363162,0.002045841896480373
6702.068811095036,0.004273745413446534,0.002075999132235962
6702.069810867251,0.004270025614774474,0.002105026112223844
6702.070810639466,0.004263620861396323,0.0021326330759754725
6702.071810411681,0.0042548678853274735,0.002158560710583209
6702.072810183897,0.004244104171618509,0.0021825853001240774
6702.073809956112,0.004231659376927714,0.0022045231605191066
6702.074809728328,0.0042178476732753585,0.002224234214893322
6702.075809500542,0.004202961335854788,0.002241624607774477
6702.076809272758,0.004187265774086636,0.0022566482863454586
6702.077809044973,0.004170996082661623,0.002269307505227481
6702.0788088171885,0.004154355073476005,0.002279652244992404
6702.079808589404,0.0041375126579831605,0.002287778568509158
6702.080808361618,0.004120606392254551,0.002293825971161282
6702.081808133834,0.004103742971041506,0.0022979738102258665
6702.082807906049,0.004087000461963396,0.002300436917066822
6702.083807678265,0.004070431104945516,0.0023014604970050777
6702.08480745048,0.00405406453912655,0.0023013144113371705
6702.085807222696,0.0040379113176639905,0.0023002869262288895
6702.08680699491,0.004021966516187543,0.0022986780133586364
6702.087806767126,0.004006213169052192,0.0022967922974308657
6702.088806539341,0.003990625240344667,0.0022949317593994154
6702.0898063115565,0.003975169899408977,0.0022933883189835405
6702.090806083772,0.00395980902480396,0.0022924364418270486
6702.091805855986,0.003944500058686825,0.0022923259481829696
6702.092805628202,0.00392919650074127,0.002293275233402592
6702.093805400417,0.003913848402504813,0.0022954651363411164
6702.094805172633,0.003898403183650843,0.002299033702841666
6702.095804944848,0.003882806982983821,0.0023040720757719233
6702.096804717063,0.0038670066395727386,0.0023106216908326087
6702.097804489278,0.0038509523066055863,0.002318672877005457
6702.098804261494,0.0038346006233484398,0.0023281648778998485
6702.099804033709,0.003817918280425235,0.0023389872526817066
6702.100803805924,0.003800885701658437,0.002350982594182495
6702.10180357814,0.0037835004660842116,0.0023639505027075306
6702.102803350354,0.003765780061750187,0.0023776527480038885
6702.10380312257,0.0037477636280071,0.002391819521049651
6702.104802894785,0.003729512481177302,0.0024061566260706667
6702.105802667001,0.0037111093627687935,0.002420353408832951
6702.106802439216,0.0036926564344218495,0.0024340911762000855
6702.107802211431,0.0036742720578392864,0.002447051837895677
6702.108801983646,0.003656086395030519,0.0024589264848837162
6702.109801755862,0.0036382359146042826,0.0024694236031926513
6702.110801528077,0.0036208570162586523,0.00247827661766909
6702.111801300292,0.0036040791481034107,0.002485250483414293
6702.112801072508,0.003588017923410003,0.0024901470939456
6702.113800844722,0.0035727687939397785,0.0024928093407510675
6702.114800616938,0.0035584017922154257,0.002493123732409156
6702.115800389153,0.0035449577352599623,0.0024910215652138895
6702.116800161369,0.0035324461233526977,0.0024864787225081465
6702.117799933584,0.0035208448042135404,0.0024795142431214045
6702.118799705799,0.003510101333799339,0.0024701878241198756
6702.119799478014,0.0035001358652395806,0.0024585964190576297
6702.1207992502295,0.0034908453338172636,0.002444870089403481
6702.121799022445,0.003482108664377892,0.0024291672859534513
6702.12279879466,0.0034737927057154707,0.002411669770559588
6702.123798566876,0.003465758604239718,0.0023925774084133647
6702.12479833909,0.0034578683607127156,0.0023721030549560948
6702.125798111306,0.0034499913337170257,0.002350467742173062
6702.126797883521,0.0034420104260636324,0.0023278963474295078
6702.127797655737,0.0034338276238168783,0.002304613895458702
6702.128797427952,0.0034253685140799286,0.0022808425879279107
6702.129797200167,0.0034165854562659462,0.002256799578012995
6702.130796972382,0.0034074592344269985,0.0022326954294958398
6702.1317967445975,0.003397999219858839,0.0022087331448904634
6702.132796516813,0.003388242249207233,0.0021851076248368658
6702.133796289028,0.003378250524147945,0.0021620054238523497
6702.134796061244,0.003368108852649905,0.0021396046867286794
6702.135795833458,0.0033579215059880607,0.002118075180997506
6702.136795605674,0.0033478089067731256,0.0020975783713528236
6702.137795377889,0.0033379043184078748,0.002078267494918819
6702.138795150105,0.0033283506674974036,0.0020602875889756678
6702.13979492232,0.003319297575656741,0.0020437754076434527
6702.140794694535,0.0033108985965791785,0.002028859159028878
6702.14179446675,0.0033033085661526816,0.002015658013189372
6702.1427942389655,0.0032966809169636337,0.0020042813717943966
6702.143794011181,0.003291164814779017,0.001994827936361777
6702.144793783396,0.003286902037985282,0.001987384647548048
6702.145793555612,0.0032840235996343184,0.0019820255821264895
6702.146793327826,0.0032826461582266047,0.001978810881795495
6702.147793100042,0.0032828682619084454,0.001977785755370046
6702.148792872257,0.0032847664498337047,0.0019789795573755173
6702.149792644473,0.003288391239880862,0.001982404915786481
6702.150792416688,0.0032937630858160425,0.001988056875869799
6702.151792188903,0.003300868476080513,0.001995912056308524
6702.152791961118,0.0033096564423294706,0.0020059278641975467
6702.1537917333335,0.0033200358188420808,0.0020180418547601857
6702.154791505549,0.0033318736136197127,0.0020321713273555348
6702.155791277764,0.0033449948018182928,0.0020482132235083612
6702.156791049979,0.0033591837485246706,0.002066044356495148
6702.157790822194,0.003374187352372983,0.00208552198139534
6702.15879059441,0.0033897199061733033,0.002106484718353813
6702.159790366625,0.003405469592408674,0.0021287538554292254
6702.160790138841,0.0034211064425364542,0.002152135063765053
6702.161789911055,0.003436291471917836,0.0021764205522930933
6702.162789683271,0.0034506865765342367,0.0022013916696941227
6702.163789455486,0.003463964698916645,0.002226821923947506
6702.1647892277015,0.0034758197872528287,0.002252480341004755
6702.165788999917,0.0034859761674861556,0.0022781350423192364
6702.166788772132,0.0034941970476422544,0.0023035569004460515
6702.167788544347,0.0035002919198245715,0.0023285231313036714
6702.168788316562,0.0035041226334848333,0.0023528206877014234
6702.169788088778,0.003505607934886865,0.0023762493229353065
6702.170787860993,0.0035047263305383286,0.0023986242055826575
6702.171787633209,0.0035015172317166194,0.0024197780018978964
6702.172787405423,0.003496080448918228,0.0024395623938736634
6702.173787177639,0.0034885741925316485,0.002457849047579019
6702.174786949854,0.0034792117702735757,0.0024745300826897573
6702.1757867220695,0.0034682571614314288,0.0024895181302960387
6702.176786494285,0.0034560196283430536,0.00250274609649056
6702.1777862665,0.0034428475142461493,0.0025141667538872213
6702.178786038715,0.003429121360929678,0.0025237522608529835
6702.17978581093,0.003415246447466497,0.0025314936811584596
6702.180785583146,0.003401644806620636,0.00253740056043173
6702.181785355361,0.0033887467294516525,0.0025415006018847715
6702.182785127577,0.0033769817413925114,0.0025438394570668162
6702.183784899791,0.003366769051450735,0.002544480606781633
6702.184784672007,0.003358507545412659,0.002543505261815949
6702.185784444222,0.0033525654814016525,0.002541012169305393
6702.186784216437,0.003349270107592263,0.002537117175748667
6702.187783988653,0.0033488974438668816,0.00253195238425318
6702.188783760868,0.003351662483659626,0.0025256647585206243
6702.189783533083,0.0033577101222066813,0.002518414065054828
6702.190783305298,0.0033671072041705085,0.00251037010137348
6702.191783077514,0.0033798361581769925,0.002501709226263105
6702.192782849729,0.0033957906964467246,0.002492610278639934
6702.193782621945,0.0034147739930083733,0.00248325003160382
6702.194782394159,0.0034364996391441755,0.002473798369422816
6702.195782166375,0.003460595542551813,0.002464413395471463
6702.19678193859,0.0034866108070979234,0.0024552366801252434
6702.197781710805,0.0035140255036232295,0.0024463888428037503
6702.198781483021,0.0035422631063869586,0.0024379656373728488
6702.199781255236,0.003570705216158071,0.0024300346808636504
6702.200781027451,0.003598708032094709,0.0024226329361624025
6702.201780799666,0.0036256199046110454,0.0024157650352988826
6702.202780571882,0.003650799242475063,0.0024094025170185987
6702.203780344097,0.0036736320825734364,0.0024034840451774087
6702.204780116313,0.0036935487346309256,0.0023979166533748876
6702.205779888527,0.0037100390142764104,0.0023925780123531313
6702.206779660743,0.0037226656165277915,0.0023873196511986624
6702.207779432958,0.0037310751714564427,0.002381971008290639
6702.208779205173,0.0037350065395756926,0.0023763441623723034
6702.209778977389,0.003734296011117967,0.0023702390961846476
6702.210778749604,0.0037288792751749944,0.002363449357882961
6702.211778521819,0.0037187902689628308,0.0023557679925619635
6702.212778294034,0.0037041572249571627,0.0023469936083556887
6702.21377806625,0.0036851963450999564,0.0023369364187219408
6702.214777838465,0.003662203550786128,0.0023254240815529154
6702.215777610681,0.0036355447412482716,0.0023123071594774226
6702.216777382895,0.003605644989450859,0.002297464054236532
6702.217777155111,0.003572977116813215,0.002280805301779199
6702.218776927326,0.003538050089883084,0.0022622771436759696
6702.219776699541,0.0035013976488978468,0.0022418643150187226
6702.220776471757,0.0034635675037434604,0.002219592002737624
6702.221776243971,0.003425111332699396,0.0021955269239364726
6702.222776016187,0.003386575722902329,0.002169777459176596
6702.223775788402,0.003348494121392812,0.0021424927697106496
6702.224775560618,0.0033113798196478797,0.002113860843253266
6702.225775332833,0.0032757199512133237,0.0020841054447406147
6702.226775105048,0.0032419704252413892,0.0020534819832210356
6702.227774877263,0.0032105516546278314,0.002022272345462841
6702.228774649479,0.003181844894922774,0.001990778804522542
6702.229774421694,0.0031561890238741056,0.0019593171779360005
6702.230774193909,0.003133877670763632,0.0019282094524924332
6702.231773966125,0.0031151567159664892,0.0018977760989651099
6702.232773738339,0.0031002222693164417,0.0018683282949089653
6702.233773510555,0.003089219266643251,0.001840160280130818
6702.23477328277,0.0030822408024016945,0.0018135420825489393
6702.235773054986,0.0030793282698690964,0.001788712851358649
6702.236772827201,0.003080472332160109,0.0017658750093802287
6702.237772599416,0.003085614706179698,0.0017451893937475496
6702.238772371631,0.003094650706799542,0.0017267715053388966
6702.239772143847,0.0031074324639391825,0.001710688938697764
6702.240771916062,0.0031237726814077704,0.0016969600203668596
6702.241771688277,0.0031434487530296418,0.0016855536552720701
6702.242771460493,0.0031662070119539846,0.0016763903753947713
6702.243771232707,0.003191766894895226,0.0016693445921723423
6702.244771004923,0.0032198248565344883,0.0016642480531054026
6702.245770777138,0.003250057931193789,0.0016608944809277826
6702.246770549354,0.0032821268656806827,0.001659045330900388
6702.247770321569,0.0033156787398950713,0.001658436549088852
6702.248770093784,0.0033503490016013777,0.0016587861674679347
6702.249769865999,0.0033857629197474723,0.0016598025393299918
6702.250769638215,0.00342153660358402,0.0016611929941235102
6702.25176941043,0.003457277887496484,0.0016626726613523184
6702.252769182645,0.0034925874832169683,0.0016639731798090845
6702.253768954861,0.0035270608203579732,0.0016648509915993402
6702.254768727075,0.0035602909350168624,0.0016650949379955913
6702.255768499291,0.003591872646707607,0.001664532921559867
6702.256768271506,0.00362140811291461,0.0016630374543146603
6702.257768043722,0.003648513694368201,0.001660529954003792
6702.258767815937,0.003672827923627154,0.0016569836737366393
6702.259767588152,0.0036940202480814986,0.0016524251686847102
6702.260767360367,0.0037118001086599746,0.0016469342394673165
6702.261767132583,0.0037259258308981256,0.0016406423525689138
6702.262766904798,0.0037362127864887873,0.0016337296066303273
6702.263766677013,0.003742540355720904,0.0016264203670515254
6702.264766449229,0.0037448573508985375,0.0016189777221556347
6702.265766221443,0.0037431856714222906,0.001611696928929735
6702.266765993659,0.0037376219972154972,0.001604898027473227
6702.267765765874,0.0037283373095139158,0.0015989178248302126
6702.26876553809,0.003715574042168355,0.0015941014861018982
6702.269765310305,0.0036996407826653858,0.0015907940064939824
6702.27076508252,0.003680904646125806,0.0015893318445457895
6702.271764854735,0.0036597816550519523,0.0015900349657877436
6702.27276462695,0.003636725593817448,0.0015931994961528328
6702.273764399166,0.003612215845757168,0.0015990911414061094
6702.274764171381,0.003586744692933284,0.0016079395033913068
6702.275763943597,0.003560804517503618,0.0016199334051190401
6702.276763715811,0.003534875324474335,0.0016352173059270018
6702.277763488027,0.0035094130027083083,0.0016538888386235292
6702.278763260242,0.003484838718640789,0.0016759974419720887
6702.279763032458,0.003461529765439283,0.0017015440085295813
6702.280762804673,0.0034398120736206794,0.001730481430416225
6702.281762576888,0.003419954459862952,0.0017627159068464974
6702.282762349103,0.0034021645830587294,0.001798108871373358
6702.283762121318,0.003386586509777645,0.0018364793957919988
6702.284761893534,0.0033732997633555985,0.0018776069317832968
6702.285761665749,0.0033623197165142727,0.0019212342685598707
6702.286761437964,0.0033535991558012504,0.001967070616367885
6702.287761210179,0.003347030796534953,0.002014794762411627
6702.288760982395,0.0033424505017451184,0.0020640582794670746
6702.28976075461,0.0033396410073460343,0.0021144887949468296
6702.290760526826,0.003338336080578891,0.0021656933461873355
6702.29176029904,0.003338225178067676,0.002217261856928705
6702.292760071256,0.003338958745093304,0.0022687707794258253
6702.293759843471,0.0033401542807865673,0.0023197869621158817
6702.294759615686,0.0033414032229038236,0.002369871813989226
6702.295759387902,0.003342278635453076,0.002418585827131029
6702.296759160117,0.0033423436337620283,0.0024654934847326156
6702.297758932332,0.0033411604419923495,0.0025101685336209258
6702.298758704547,0.0033382999312776334,0.002552199546935359
6702.299758476763,0.0033333514310366955,0.002591195644597474
6702.300758248978,0.0033259325542387285,0.002626792182003417
6702.301758021194,0.003315698744488164,0.002658656181450411
6702.302757793408,0.0033023522432410633,0.002686491284617814
6702.303757565624,0.0032856501886173685,0.002710042040266912
6702.304757337839,0.0032654115998965306,0.002729097381521044
6702.305757110054,0.003241523073011531,0.002743493173187628
6702.30675688227,0.003213943082679267,0.002753113731427801
6702.307756654485,0.003182704822194362,0.002757892262509078
6702.3087564267,0.003147917515542741,0.0027578102449366984
6702.309756198915,0.0031097661408179705,0.002752895868963996
6702.310755971131,0.0030685095312961187,0.002743221720438718
6702.311755743346,0.0030244768745859214,0.002728901939486263
6702.312755515562,0.002978062707233975,0.002710089095758135
6702.313755287776,0.0029297205860295624,0.002686970997199634
6702.314755059992,0.002879955680662195,0.0026597675909391634
6702.315754832207,0.002829316557823833,0.0026287280370962548
6702.316754604422,0.002778386416441769,0.002594127959189089
6702.317754376638,0.0027277740008493797,0.002556266815888574
6702.318754148853,0.0026781043806141367,0.0025154653066909835
6702.319753921068,0.002630009753228851,0.0024720627234835995
6702.320753693283,0.0025841203929659585,0.002426414199533184
6702.321753465499,0.002541055825730006,0.0023788878834939842
6702.322753237714,0.002501416265611018,0.002329862143429406
6702.3237530099295,0.00246577432898168,0.0022797229385388513
6702.324752782144,0.002434667050985915,0.0022288614683285716
6702.32575255436,0.002408588238273701,0.002177672141728413
6702.326752326575,0.0023879811750065977,0.0021265508342064713
6702.32775209879,0.002373231672515091,0.002075893341630111
6702.328751871006,0.002364661462213983,0.002026093906118201
6702.329751643221,0.002362522002795878,0.001977543681460953
6702.330751415436,0.002366988883050922,0.001930629013384686
6702.331751187651,0.002378157096028458,0.0018857294188325947
6702.332750959867,0.002396037496136405,0.0018432151527513698
6702.333750732082,0.002420554722979397,0.0018034442599899586
6702.3347505042975,0.0024515468051348223,0.0017667590430333756
6702.335750276512,0.0024887665668225983,0.001733481945192812
6702.336750048728,0.0025318848656576596,0.0017039109407044574
6702.337749820943,0.002580495599655686,0.0016783146074257388
6702.338749593158,0.002634122342059969,0.0016569271135828336
6702.339749365374,0.002692226393256443,0.0016399433764407723
6702.340749137589,0.0027542159760749613,0.0016275146533281143
6702.341748909804,0.002819456249546964,0.0016197448072938858
6702.342748682019,0.002887279797109744,0.0016166874546266578
6702.343748454235,0.0029569972724309288,0.001618344154153305
6702.34474822645,0.0030279079434142506,0.0016246637416350838
6702.3457479986655,0.0030993099221922307,0.0016355428499946212
6702.34674777088,0.0031705098739855946,0.001650827592470835
6702.347747543096,0.00324083197261284,0.0016703163242043704
6702.348747315311,0.0033096258711642007,0.0016937633390341266
6702.349747087526,0.003376273529642633,0.0017208833090398264
6702.350746859742,0.003440194878041579,0.0017513562510459543
6702.351746631956,0.0035008524446756375,0.0017848328178836233
6702.352746404172,0.003557755196729841,0.0018209397496964294
6702.353746176387,0.003610461887595007,0.0018592853554175255
6702.354745948603,0.0036585841693312694,0.0018994649148373446
6702.355745720818,0.0037017896305412694,0.0019410659050106676
6702.356745493033,0.0037398048101474858,0.0019836729711229643
6702.357745265248,0.003772418154175952,0.0020268725885580195
6702.358745037463,0.0037994828238788465,0.0020702574058144058
6702.359744809679,0.003820919205213775,0.002113430309344512
6702.360744581894,0.0038367169030058997,0.0021560082867664626
6702.36174435411,0.003846935949739635,0.00219762616648954
6702.362744126324,0.003851706953198348,0.0022379402820741287
6702.36374389854,0.0038512299631586755,0.0022766320582629394
6702.364743670755,0.003845771927756752,0.0023134114514167022
6702.365743442971,0.003835662681205192,0.0023480201142634747
6702.366743215186,0.003821289424858422,0.002380234113497628
6702.367742987401,0.0038030896602528437,0.002409866022417628
6702.368742759616,0.003781542566671587,0.002436766233211864
6702.369742531831,0.0037571589197558965,0.0024608233688347705
6702.370742304047,0.0037304697990158315,0.0024819637270691707
6702.371742076262,0.0037020144829001435,0.002500149779978926
6702.372741848478,0.003672328043344471,0.0025153778695503008
6702.373741620692,0.0036419292051849297,0.0025276753285133264
6702.374741392908,0.0036113090188026596,0.0025370972700624332
6702.375741165123,0.0035809208170528148,0.002543723250058605
6702.376740937339,0.0035511718173615813,0.0025476539609597627
6702.377740709554,0.003522416608525264,0.002549008089094964
6702.378740481769,0.0034949526355322977,0.002547919443017814
6702.379740253984,0.0034690176686592083,0.0025445344321248092
6702.380740026199,0.0034447891283717652,0.002539009946455547
6702.381739798415,0.003422385053064711,0.0025315116598618407
6702.38273957063,0.0034018664542819215,0.0025222127416182683
6702.383739342846,0.003383240806054586,0.0025112929177769435
6702.38473911506,0.0033664664507049827,0.002498937790206196
6702.385738887276,0.0033514577426485242,0.002485338314442301
6702.386738659491,0.0033380907576776257,0.002470690353118865
6702.387738431707,0.003326209359122959,0.002455194235749422
6702.388738203922,0.003315631369192302,0.0024390542449300705
6702.3897379761365,0.0033061545984466273,0.0024224779177607954
6702.390737748352,0.003297562569540676,0.0024056750370130644
6702.391737520567,0.0032896299104556363,0.0023888562275712097
6702.392737292783,0.0032821275225263465,0.0023722311638630206
6702.393737064998,0.00327482768873297,0.0023560064813484107
6702.394736837214,0.003267509262921527,0.0023403835228809995
6702.395736609428,0.003259963002790522,0.0023255560392693533
6702.396736381644,0.003251997023736146,0.002311707932577324
6702.397736153859,0.0032434422808107883,0.0022990110985508933
6702.398735926075,0.0032341579279298515,0.0022876233908092694
6702.39973569829,0.003224036345614986,0.00227768669676633
6702.4007354705045,0.003213007572628489,0.0022693250955346336
6702.40173524272,0.0032010428366764307,0.0022626430713275363
6702.402735014935,0.003188156871310148,0.002257723782559403
6702.403734787151,0.0031744087434145136,0.002254627427197024
6702.404734559366,0.003159900997479367,0.0022533897818794763
6702.405734331582,0.0031447770253130052,0.0022540210097992505
6702.406734103796,0.0031292166640373965,0.0022565048266093785
6702.407733876012,0.003113430110247204,0.002260798095849019
6702.408733648227,0.0030976503399724395,0.0022668309088946944
6702.4097334204425,0.0030821243529654406,0.002274507192178175
6702.410733192658,0.003067103685816613,0.0022837058699842765
6702.4117329648725,0.003052834719961762,0.0022942825873898303
6702.412732737088,0.003039549333650035,0.0023060719653832024
6702.413732509303,0.0030274564205690717,0.002318890327534924
6702.414732281519,0.003016734729680616,0.0023325388110799036
6702.415732053734,0.0030075273752107894,0.002346806755942956
6702.416731825949,0.0029999382358357847,0.0023614752556816603
6702.417731598164,0.0029940303283871286,0.0023763207567790404
6702.41873137038,0.0029898261179714765,0.0023911186060009137
6702.419731142595,0.0029873096146014466,0.002405646470772137
6702.4207309148105,0.0029864300031320983,0.0024196875968299377
6702.421730687025,0.0029871064628773764,0.0024330339145362547
6702.4227304592405,0.0029892337732699225,0.002445489043332687
6702.423730231456,0.0029926882960318894,0.002456871252449828
6702.424730003671,0.0029973339791435527,0.002467016405685317
6702.425729775887,0.0030030281140280587,0.0024757808625005843
6702.426729548102,0.003009626647360258,0.0024830442536310114
6702.427729320317,0.0030169888801693137,0.0024887120139445535
6702.428729092532,0.003024981397736864,0.0024927175393925395
6702.429728864748,0.0030334810979097096,0.002495023831641026
6702.430728636963,0.0030423772438334194,0.002495624496199633
6702.4317284091785,0.0030515725597758873,0.002494543969718046
6702.432728181393,0.00306098349315542,0.002491836882760259
6702.4337279536085,0.0030705398428903315,0.0024875865215713755
6702.434727725824,0.0030801839756911683,0.002481902422055941
6702.435727498039,0.0030898698282238795,0.0024749171946175127
6702.436727270255,0.003099561857441202,0.0024667827383682986
6702.43772704247,0.0031092340705027094,0.002457666059574795
6702.438726814685,0.0031188692309267697,0.0024477449484814886
6702.4397265869,0.003128458285341001,0.002437203770491506
6702.440726359116,0.003137999981076043,0.002426229588625568
6702.441726131331,0.0031475005610385057,0.00241500877322609
6702.4427259035465,0.0031569733612620094,0.0024037241945888675
6702.443725675761,0.003166438131170768,0.0023925530385517724
6702.444725447976,0.0031759199458566917,0.0023816652213735534
6702.445725220192,0.0031854476450763974,0.002371222305053186
6702.446724992407,0.0031950517756246587,0.002361376747673891
6702.447724764623,0.003204762027463746,0.002352271291224349
6702.448724536838,0.0032146041723543836,0.0023440382992830425
6702.449724309053,0.003224596574101729,0.002336798898248845
6702.450724081268,0.0032347464419098244,0.0023306618338203894
6702.451723853484,0.0032450461009204176,0.0023257220189824915
6702.452723625699,0.0032554696131105363,0.002322058815995067
6702.4537233979145,0.0032659700862418322,0.002319734156503389
6702.454723170129,0.0032764779744485022,0.0023187906453471883
6702.455722942344,0.003286900620601097,0.002319249802210422
6702.45672271456,0.003297123225478751,0.002321110580364713
6702.457722486775,0.003307011343489935,0.0023243482852707623
6702.458722258991,0.0033164148866974183,0.0023289140068673713
6702.459722031206,0.0033251734791006505,0.002334734670827754
6702.460721803421,0.003333122879476653,0.0023417137939453817
6702.461721575636,0.00334010211182347,0.0023497329896691867
6702.462721347852,0.003345960898641932,0.002358654215572397
6702.463721120067,0.003350566962838593,0.0023683226968993026
6702.4647208922825,0.0033538127542038507,0.0023785704048686004
6702.465720664497,0.0033556211884600267,0.002389219915602469
6702.466720436712,0.003355950062885537,0.002400088437930484
6702.467720208928,0.0033547949106190757,0.0024109917983289614
6702.468719981143,0.003352190157180046,0.0024217482131244895
6702.469719753359,0.003348208549030958,0.0024321817349621023
6702.470719525574,0.0033429589484273033,0.00244212529981706
6702.471719297789,0.003336582728592212,0.0024514233168532163
6702.472719070004,0.00332924912294874,0.0024599337568031333
6702.47371884222,0.0033211499379435746,0.0024675297202652402
6702.474718614435,0.003312494018841566,0.00247410049640302
6702.47571838665,0.003303501789871104,0.002479552142619143
6702.476718158865,0.0032944001146762423,0.002483807631948983
6702.47771793108,0.003285417660271463,0.0024868066328674054
6702.478717703296,0.0032767808904397232,0.0024885049931044185
6702.479717475511,0.0032687107473914666,0.002488873983455758
6702.480717247727,0.003261420000030395,0.0024878993341009327
6702.481717019941,0.0032551111574017945,0.0024855800896628724
6702.482716792157,0.003249974791911212,0.002481927323403241
6702.483716564372,0.0032461881111228302,0.0024769627668901465
6702.484716336588,0.0032439136607055486,0.002470717417000885
6702.485716108803,0.0032432981018858573,0.0024632301823760915
6702.4867158810175,0.0032444710346531363,0.0024545466298264494
6702.487715653233,0.003247543812000865,0.0024447178807741887
6702.488715425448,0.0032526082455578754,0.0024337996892457455
6702.489715197664,0.003259735099920422,0.0024218517192853943
6702.490714969879,0.0032689723475263044,0.0024089370328451054
6702.491714742095,0.003280343292105465,0.0023951217815326438
6702.492714514309,0.003293844803853285,0.0023804750587543347
6702.493714286525,0.003309445972696872,0.0023650688350154796
6702.49471405874,0.0033270874516615327,0.002348977895879706
6702.495713830956,0.0033466816612269376,0.0023322797259873055
6702.496713603171,0.0033681139079324604,0.0023150543061729962
6702.4977133753855,0.003391244372000724,0.0022973837989133904
6702.498713147601,0.003415910853386592,0.0022793521002288193
6702.499712919816,0.003441932132034603,0.0022610442465669234
6702.500712692032,0.0034691117864162242,0.002242545678847555
6702.501712464247,0.0034972423116847134,0.0022239413736596138
6702.502712236463,0.003526109374877862,0.0022053148574178298
6702.503712008677,0.0035554960355669847,0.0021867471303631393
6702.504711780893,0.003585186746757689,0.0021683155402277094
6702.505711553108,0.0036149709328807886,0.0021500926531827047
6702.506711325324,0.003644645917529712,0.002132145169290635
6702.507711097539,0.003674018954507932,0.0021145329221558735
6702.5087108697535,0.0037029081409747856,0.002097307997202532
6702.509710641969,0.0037311420988166114,0.002080514010118169
6702.510710414184,0.0037585584863392848,0.0020641855990000155
6702.5117101864,0.003785001585714283,0.002048348181577111
6702.512709958615,0.0038103193444712696,0.002033018005949934
6702.513709730831,0.0038343603080728734,0.002018202489466735
6702.514709503045,0.0038569708710167842,0.002003900807673414
6702.515709275261,0.0038779932179906196,0.0019901046699266523
6702.516709047476,0.00389726424915575,0.0019767992050973605
6702.517708819692,0.003914615701108253,0.001963963889771061
6702.518708591907,0.003929875592462257,0.0019515734902423735
6702.5197083641215,0.003942871034993828,0.0019395990464892402
6702.520708136337,0.003953432348357385,0.0019280089697236672
6702.521707908552,0.003961398300315737,0.0019167703281313564
6702.522707680768,0.003966622188451713,0.0019058503551137316
6702.523707452983,0.003968978413952706,0.0018952181474075484
6702.524707225199,0.003968369183340006,0.0018848464473308387
6702.525706997413,0.003964730988442365,0.001874713341735301
6702.526706769629,0.003958040521891375,0.0018648036797789362
6702.527706541844,0.003948319666936811,0.0018551100327575565
6702.52870631406,0.003935639185166846,0.0018456330938629118
6702.529706086275,0.003920120775933897,0.0018363815127967493
6702.5307058584895,0.0039019373308324876,0.001827371235630288
6702.531705630705,0.003881311414274832,0.0018186244548929046
6702.53270540292,0.003858512181388099,0.0018101682835522065
6702.533705175136,0.0038338510386932137,0.001802033271343516
6702.534704947351,0.00380767636017949,0.0017942518853221875
6702.535704719567,0.0037803675247236987,0.0017868570671027693
6702.536704491781,0.00375232847949401,0.0017798809547542242
6702.537704263997,0.003723980988636142,0.001773353828439798
6702.538704036212,0.003695757706472705,0.0017673033141948303
6702.539703808428,0.0036680952011905786,0.0017617538601120695
6702.540703580643,0.0036414270237814053,0.0017567264817481593
6702.541703352857,0.003616176873525256,0.0017522387580213696
6702.542703125073,0.0035927518922834563,0.0017483050455982766
6702.543702897288,0.003571536146935172,0.0017449368704364938
6702.544702669504,0.003552884404349362,0.0017421434501919773
6702.545702441719,0.0035371163120192796,0.001739932298477684
6702.546702213934,0.0035245110480091363,0.001738309862975059
6702.547701986149,0.0035153024364148315,0.0017372821585044866
6702.548701758365,0.003509674508324951,0.0017368553659328025
6702.54970153058,0.00350775755777827,0.0017370363621744855
6702.550701302796,0.0035096248631820742,0.0017378331280079216
6702.55170107501,0.00351529034168666,0.0017392549714494445
6702.552700847225,0.003524707426121209,0.0017413125157979285
6702.553700619441,0.003537769409531155,0.0017440174247893272
6702.554700391656,0.00355431142675081,0.0017473818672284625
6702.555700163872,0.0035741141521405976,0.001751417757489259
6702.556699936087,0.00359690918388655,0.0017561358304085996
6702.557699708302,0.003622385959266673,0.0017615446043019918
6702.558699480517,0.003650199912435574,0.001767649265217286
6702.559699252733,0.00367998145750613,0.0017744504940424618
6702.560699024948,0.0037113452700658026,0.0017819432640900049
6702.561698797163,0.0037438992774353314,0.001790115651030159
6702.562698569378,0.0037772527875463203,0.001798947714948866
6702.563698341593,0.0038110233067687707,0.0018084105425773549
6702.564698113809,0.0038448417864453536,0.0018184655750191805
6702.565697886024,0.003878356217054249,0.0018290643700855072
6702.56669765824,0.003911233596168273,0.0018401489338096897
6702.567697430455,0.003943160346871935,0.0018516527008078756
6702.56869720267,0.003973841321730546,0.0018635021672383561
6702.569696974885,0.004002997633682011,0.0018756191084011915
6702.570696747101,0.004030363696309686,0.0018879232645967682
6702.571696519316,0.00405568398789478,0.0019003353541502288
6702.572696291531,0.004078710126644292,0.0019127802521990925
6702.573696063746,0.004099198825048534,0.0019251901431250168
6702.574695835961,0.0041169111833010445,0.0019375074244760411
6702.575695608177,0.004131613621970054,0.0019496871357372997
6702.576695380392,0.004143080581458177,0.0019616987180433015
6702.577695152608,0.004151098948308886,0.0019735269715442563
6702.578694924823,0.004155474006972073,0.0019851721476770094
6702.579694697038,0.004156036557244039,0.0019966491802823894
6702.580694469253,0.004152650688643426,0.0020079861155599724
6702.5816942414685,0.004145221594647357,0.002019221842791981
6702.582694013684,0.00413370279342923,0.002030403252419528
6702.583693785899,0.004118102224767718,0.0020415819528550334
6702.584693558114,0.004098486873846355,0.002052810664337648
6702.585693330329,0.004074985737475131,0.00206413939027716
6702.586693102545,0.004047791022148094,0.0020756114682497838
6702.58769287476,0.0040171574532122155,0.0020872596401299887
6702.588692646976,0.00398339955928765,0.0020991023364744974
6702.589692419191,0.003946886856099715,0.002111140404204841
6702.590692191406,0.0039080370067343115,0.00212335449815548
6702.591691963621,0.0038673072324641195,0.0021357033188114318
6702.5926917358365,0.0038251844190293114,0.002148122828456977
6702.593691508052,0.0037821744582257097,0.0021605265209150345
6702.594691280267,0.0037387913726740518,0.0021728067585116634
6702.595691052482,0.0036955467145868997,0.002184837128969874
6702.596690824697,0.003652939640134842,0.0021964757151756976
6702.597690596913,0.00361144795813114,0.0022075691134332584
6702.598690369128,0.003571520339441979,0.002217956993044008
6702.599690141344,0.0035335697658487484,0.00222747697511947
6702.600689913559,0.003497968221370144,0.0022359696220595367
6702.601689685774,0.0034650425952383436,0.002243283364977212
6702.602689457989,0.0034350717501347773,0.0022492792496285603
6702.6036892302045,0.0034082846816403637,0.002253835437509132
6702.60468900242,0.0033848596480049787,0.0022568514278381636
6702.605688774635,0.0033649240935208734,0.002258251947427282
6702.60668854685,0.0033485551325467817,0.0022579904020090832
6702.607688319065,0.0033357803142440093,0.0022560517295961004
6702.608688091281,0.0033265783773164664,0.0022524544716331983
6702.609687863496,0.0033208797672574296,0.002247251891061577
6702.610687635712,0.003318566836937339,0.0022405320160934685
6702.611687407926,0.003319473842981266,0.0022324165641113675
6702.612687180142,0.0033233870117244883,0.002223058782695735
6702.613686952357,0.003330045022741279,0.0022126403130747294
6702.6146867245725,0.0033391402384991063,0.0022013672247409894
6702.615686496788,0.0033503209350751895,0.002189465396281601
6702.6166862690025,0.003363194707247925,0.002177175440223204
6702.617686041218,0.0033773331495778485,0.0021647473868516695
6702.618685813433,0.003392277849031217,0.002152435337811445
6702.619685585649,0.0034075476608967513,0.0021404922710664795
6702.620685357864,0.003422647174964148,0.00212916514010205
6702.62168513008,0.0034370762028684467,0.002118690374802583
6702.622684902294,0.0034503400321598465,0.0021092898549046764
6702.62368467451,0.0034619601266638396,0.0021011673796641882
6702.624684446725,0.0034714849282602624,0.002094505599669274
6702.6256842189405,0.003478500410546872,0.0020894633228238156
6702.626683991156,0.0034826400112557983,0.0020861730818001723
6702.62768376337,0.0034835935324675593,0.0020847388762269938
6702.628683535586,0.0034811145955349018,0.0020852340728521996
6702.629683307801,0.0034750263076126177,0.0020876995242825355
6702.630683080017,0.0034652249270768565,0.002092142016360499
6702.631682852232,0.0034516814667778623,0.002098533166736094
6702.632682624448,0.003434441308610579,0.00210680888289179
6702.633682396662,0.0034136219920520893,0.002116869459959977
6702.634682168878,0.003389409375972332,0.002128580368754231
6702.635681941093,0.0033620523816331868,0.0021417737611730265
6702.6366817133085,0.003331856544247611,0.0021562507028972514
6702.637681485524,0.003299176646375357,0.002171784122207487
6702.638681257738,0.0032644087525122733,0.002188122432032644
6702.639681029954,0.0032279819671076847,0.002204993744308833
6702.640680802169,0.003190350181580427,0.002222110560717448
6702.641680574385,0.0031519839827223012,0.0022391747991626415
6702.6426803466,0.0031133628039329,0.002255883005333121
6702.643680118816,0.003074967347030091,0.002271931604812847
6702.64467989103,0.0030372723030021895,0.00228702207005328
6702.645679663246,0.0030007394338678627,0.002300865900176233
6702.646679435461,0.0029658110960491062,0.0023131893323018312
6702.647679207676,0.0029329042612530106,0.002323737715591031
6702.648678979892,0.002902405042701753,0.0023322794793709145
6702.649678752106,0.002874663699223429,0.0023386096170691065
6702.650678524322,0.0028499900889109664,0.0023425526017261567
6702.651678296537,0.002828649578680152,0.002343964657689753
6702.652678068753,0.002810859467204412,0.002342735331770713
6702.653677840968,0.0027967860132640824,0.0023387883257684956
6702.654677613184,0.0027865421593844036,0.0023320815703752116
6702.655677385398,0.002780186017221689,0.0023226065394740315
6702.656677157614,0.0027777201688498226,0.002310386820753736
6702.657676929829,0.0027790918488481394,0.002295475977282943
6702.658676702044,0.00278419408922894,0.0022779547680528145
6702.65967647426,0.002792867909621748,0.0022579278459130664
6702.660676246474,0.0028049056061420375,0.0022355201015889547
6702.66167601869,0.002820055130787207,0.002210872855016202
6702.662675790905,0.00283802546648504,0.0021841401077814593
6702.663675563121,0.0028584928176849825,0.0021554850628863658
6702.664675335336,0.0028811073862356614,0.002125077082074896
6702.665675107552,0.002905500493009071,0.0020930891859283133
6702.666674879766,0.002931291806682653,0.002059696125989912
6702.6676746519815,0.002958096428170211,0.002025072995189211
6702.668674424197,0.0029855315741763246,0.001989394305880392
6702.669674196412,0.003013222647482211,0.0019528334523800969
6702.670673968628,0.003040808577850495,0.0019155624787432662
6702.671673740842,0.003067946424020846,0.0018777520891913183
6702.672673513058,0.003094315300300787,0.0018395718672141567
6702.673673285273,0.00311961971547208,0.0018011906968124828
6702.674673057489,0.0031435924045820967,0.0017627773847270958
6702.675672829704,0.003165996730455687,0.0017245014623465129
6702.676672601919,0.003186628746397517,0.0016865341169953918
6702.677672374134,0.0032053190220033534,0.0016490491757293513
6702.6786721463495,0.0032219343146978837,0.0016122240381802842
6702.679671918565,0.003236379124152926,0.001576240431614455
6702.68067169078,0.0032485971098897095,0.0015412848560179525
6702.681671462995,0.0032585722874591315,0.0015075486064231778
6702.68267123521,0.003266329855468749,0.0014752272922246097
6702.683671007426,0.003271936476966666,0.001444519805588904
6702.684670779641,0.0032754998663727664,0.0014156267250423345
6702.685670551857,0.0032771675911713056,0.0013887481868491349
6702.686670324072,0.003277125034624678,0.0013640813169901692
6702.687670096287,0.003275592462258023,0.0013418173721148172
6702.688669868502,0.0032728211219767616,0.0013221387627604436
6702.6896696407175,0.0032690883328527318,0.0013052161157228698
6702.690669412933,0.0032646915999978545,0.0012912054877654208
6702.691669185148,0.0032599419098033643,0.0012802457920243504
6702.692668957363,0.0032551564643094368,0.0012724564576832979
6702.693668729578,0.0032506511650037214,0.0012679353229655664
6702.694668501794,0.0032467331496606982,0.001266756765670539
6702.695668274009,0.003243693652670463,0.0012689700960011596
6702.696668046225,0.0032418014315163616,0.0012745982563948603
6702.69766781844,0.003241296980130309,0.0012836368814128961
6702.698667590655,0.0032423877129870928,0.0012960537638883989
6702.69966736287,0.0032452442364385484,0.0013117887504790024
6702.7006671350855,0.0032499977305664196,0.0013307540569485906
6702.701666907301,0.003256738374984753,0.0013528349653588185
6702.702666679516,0.003265514704482984,0.001377890850272028
6702.703666451731,0.0032763337866606548,0.0014057564727632248
6702.704666223946,0.003289162142044035,0.0014362434695478702
6702.705665996162,0.003303927334823657,0.0014691419511773333
6702.706665768377,0.003320520131697381,0.0015042221209246173
6702.707665540593,0.003338797072179779,0.0015412358477709086
6702.708665312808,0.0033585832549645365,0.0015799181738674333
6702.709665085023,0.003379675161219432,0.0016199887919944999
6702.710664857238,0.0034018434182397266,0.0016611535663971957
6702.7116646294535,0.0034248355324409964,0.0017031061799684293
6702.712664401669,0.003448378742255297,0.001745529985478397
6702.713664173884,0.003472183201560084,0.0017881001352813058
6702.714663946099,0.003495945670295388,0.0018304860588276648
6702.715663718314,0.003519353790326758,0.0018723543348530046
6702.71666349053,0.003542090930379649,0.0019133719636237544
6702.717663262745,0.0035638415351587306,0.0019532099972037887
6702.718663034961,0.003584296891618414,0.001991547442151616
6702.719662807176,0.003603161183628829,0.0020280753121052616
6702.720662579391,0.0036201576265359795,0.002062500683217403
6702.721662351606,0.0036350343887845914,0.002094550603263882
6702.7226621238215,0.003647569976408956,0.002123975728748856
6702.723661896037,0.003657577803440318,0.0021505536029289484
6702.724661668252,0.0036649097642346405,0.0021740915220706055
6702.725661440467,0.0036694587021405996,0.002194428951694356
6702.726661212682,0.0036711596979521893,0.002211439445822988
6702.727660984898,0.003669990097244604,0.002225032004116264
6702.728660757113,0.003665968207473996,0.0022351518016748397
6702.729660529329,0.003659150664235679,0.0022417802611167507
6702.730660301544,0.0036496285943752402,0.0022449344870009106
6702.731660073759,0.003637522860767615,0.0022446661103302477
6702.732659845974,0.0036229788111322163,0.002241059583699024
6702.733659618189,0.0036061610249783225,0.0022342299516814545
6702.734659390405,0.0035872485397255393,0.002224320126811042
6702.73565916262,0.0035664309543321595,0.002211497733993288
6702.736658934835,0.003543905680816589,0.002195951626195287
6702.73765870705,0.003519876454769444,0.002177888196261623
6702.738658479266,0.0034945530357997543,0.002157527600291293
6702.739658251481,0.00346815184497444,0.0021350999773730303
6702.740658023697,0.003440897126607804,0.002110841726883123
6702.741657795911,0.003413022133087079,0.0020849919086283458
6702.742657568127,0.0033847698661611763,0.002057788852152355
6702.743657340342,0.0033563930697917427,0.0020294670677669865
6702.744657112557,0.0033281533794096924,0.0020002545290293263
6702.745656884773,0.0033003196806183945,0.0019703703639625055
6702.746656656987,0.003273165764440487,0.0019400229751125775
6702.747656429203,0.0032469673219597925,0.0019094086065743765
6702.748656201418,0.003221998282907696,0.0018787103716096842
6702.749655973634,0.0031985265340006334,0.0018480977369970248
6702.750655745849,0.0031768091470756603,0.0018177264380615822
6702.751655518065,0.0031570873422883,0.0017877387888275147
6702.752655290279,0.003139581458926672,0.0017582643612855684
6702.753655062495,0.003124486209234669,0.0017294210224669106
6702.75465483471,0.0031119664726082003,0.001701316318317545
6702.755654606925,0.003102153852463856,0.001674049173696917
6702.756654379141,0.003095144161355312,0.0016477118472636497
6702.757654151355,0.0030909959341515044,0.0016223920510029131
6702.758653923571,0.003089730012834097,0.0015981751259083066
6702.759653695786,0.0030913301976775755,0.0015751461607432869
6702.760653468002,0.0030957449002746227,0.0015533919438118595
6702.761653240217,0.0031028896614267555,0.0015330026389782949
6702.762653012433,0.0031126503394020926,0.001514073075874039
6702.763652784647,0.0031248867647703034,0.001496703547220824
6702.764652556863,0.0031394366944919286,0.0014810000166936772
6702.765652329078,0.0031561199377236927,0.0014670736593505036
6702.766652101293,0.0031747425281570887,0.0014550396894103094
6702.767651873509,0.0031951007840825547,0.0014450154788366119
6702.768651645723,0.0032169850718434976,0.001437118022481893
6702.769651417939,0.0032401831174057724,0.0014314608490629582
6702.770651190154,0.0032644827970324287,0.0014281505121307258
6702.77165096237,0.0032896744401382555,0.0014272828252420732
6702.772650734585,0.003315552753678502,0.0014289390269769013
6702.773650506801,0.003341918511289301,0.001433182065543516
6702.774650279015,0.0033685801410062556,0.001440053175816931
6702.775650051231,0.0033953553029219563,0.0014495688903500483
6702.776649823446,0.003422072497024074,0.00146171859224506
6702.777649595661,0.003448572706908231,0.0014764626915138063
6702.778649367877,0.0034747110701840445,0.001493731490177875
6702.779649140091,0.0035003585485711346,0.0015134247876796036
6702.780648912307,0.0035254035283954497,0.0015354122546364574
6702.781648684522,0.003549753227741456,0.0015595345622371362
6702.782648456738,0.00357333476228557,0.0015856052000793766
6702.783648228953,0.003596095754940158,0.001613412859410993
6702.7846480011685,0.003618004441911295,0.0016427242204317986
6702.785647773383,0.0036390492759595895,0.001673286977930396
6702.786647545599,0.0036592380215068523,0.0017048329670139686
6702.787647317814,0.003678596287126194,0.001737081290301811
6702.788647090029,0.0036971653979464654,0.0017697413839706324
6702.789646862245,0.0037149995301579,0.0018025159909264919
6702.790646634459,0.003732162140032323,0.001835104038388737
6702.791646406675,0.00374872189426705,0.00186720344634379
6702.79264617889,0.0037647484727345183,0.0018985139216763662
6702.793645951106,0.003780308692877677,0.0019287398116041709
6702.794645723321,0.003795463373712965,0.00195759308889333
6702.7956454955365,0.0038102652543067295,0.0019847965232421255
6702.796645267751,0.003824758158141957,0.002010087072531324
6702.797645039967,0.0038389774704682134,0.0020332195099478385
6702.798644812182,0.0038529518604077813,0.0020539702790362633
6702.799644584397,0.0038667060253612623,0.0020721415299240838
6702.800644356613,0.003880264077821338,0.0020875652403335924
6702.801644128827,0.003893653076563022,0.0021001072789458937
6702.802643901043,0.00390690617800378,0.002109671242089939
6702.803643673258,0.003920064967515324,0.002116201891556863
6702.804643445474,0.003933180675545923,0.002119688025575189
6702.805643217689,0.00394631410897164,0.002120164607042646
6702.806642989904,0.003959534193233186,0.0021177139615233334
6702.807642762119,0.003972915051107126,0.002112465880390792
6702.808642534335,0.0039865316024616715,0.002104596543107924
6702.80964230655,0.0040004538057160765,0.002094326276471624
6702.810642078765,0.00401473986746474,0.0020819162478756337
6702.81164185098,0.004029428953046449,0.0020676642282941716
6702.812641623195,0.004044534058505586,0.002051899575799493
6702.813641395411,0.004060035714703753,0.0020349775956126424
6702.814641167626,0.0040758770984889925,0.002017273428108679
6702.815640939842,0.004091960964907994,0.0019991756044754456
6702.816640712057,0.00410814863568705,0.00198107939927337
6702.817640484272,0.004124261116890998,0.001963380103012405
6702.818640256487,0.0041400822810246235,0.001946466332259086
6702.819640028702,0.004155363918390251,0.001930713487679846
6702.820639800918,0.004169832321596994,0.0019164774629853326
6702.821639573133,0.004183195934820061,0.0019040887000042125
6702.822639345348,0.004195153532029528,0.0018938466775546686
6702.823639117563,0.004205402426725523,0.0018860149169138737
6702.824638889779,0.0042136463360347275,0.0018808165838691084
6702.825638661994,0.004219602649560118,0.001878430760877497
6702.82663843421,0.004223008922336016,0.0018789894485732876
6702.827638206425,0.004223628413480049,0.0018825753372882445
6702.82863797864,0.004221254478989597,0.001889220374528615
6702.829637750855,0.004215713664865132,0.001898905144602252
6702.83063752307,0.004206867460762188,0.0019115590640217995
6702.831637295286,0.004194612837141787,0.0019270613806805857
6702.832637067501,0.004178881853989249,0.001945242959855087
6702.833636839716,0.004159640753292493,0.0019658888523332936
6702.834636611931,0.0041368889900587555,0.001988741653015257
6702.835636384147,0.004110658598076084,0.0020135056516748513
6702.836636156362,0.004081014150104315,0.0020398517530399916
6702.837635928578,0.004048053406580508,0.0020674231198452926
6702.838635700793,0.00401190859016583,0.002095841479372698
6702.839635473008,0.00397274809044479,0.0021247140224259853
6702.840635245223,0.0039307782981832,0.002153640801878734
6702.841635017438,0.0038862452001252696,0.002182222504725247
6702.842634789654,0.0038394353515224856,0.00221006843608255
6702.843634561869,0.003790675900217586,0.00223680452619484
6702.844634334084,0.003740333448292388,0.002262081155425395
6702.845634106299,0.0036888116514475744,0.0022855805838915572
6702.846633878515,0.0036365475192982125,0.002307023768130552
6702.84763365073,0.00358400639048693,0.0023261763465504217
6702.848633422946,0.0035316755698095595,0.002342853578950774
6702.849633195161,0.003480056687344523,0.002356924035362617
6702.850632967376,0.003429656973957826,0.0023683118566867204
6702.851632739591,0.003380979792695932,0.0023769974708369407
6702.852632511806,0.003334514869162791,0.00238301674448806
6702.853632284022,0.0032907287059327256,0.002386458655529277
6702.854632056237,0.0032500556490516605,0.0023874616528107
6702.855631828452,0.003212890007447634,0.002386208916302152
6702.856631600667,0.003179579521644744,0.0023829227473347813
6702.857631372883,0.003150420355587693,0.0023778583116347207
6702.858631145098,0.003125653663879929,0.002371296935728434
6702.859630917314,0.003105463674737289,0.002363539134128073
6702.860630689529,0.003089977125618179,0.0023548975341500284
6702.861630461744,0.0030792638059228003,0.002345689869218727
6702.862630233959,0.003073337930897773,0.0023362322163264226
6702.863630006174,0.003072160108314888,0.0023268326422066225
6702.86462977839,0.0030756397357889235,0.0023177853909927895
6702.865629550605,0.0030836377338800025,0.002309365698581869
6702.86662932282,0.003095969549420575,0.0023018252645611434
6702.867629095035,0.0031124083549259303,0.002295388366875497
6702.868628867251,0.003132688351242748,0.0022902485809939348
6702.869628639466,0.0031565080931104115,0.0022865660612045534
6702.8706284116815,0.0031835338200987802,0.002284465342736956
6702.871628183896,0.00321340286925592,0.0022840336216031
6702.872627956112,0.0032457273371404713,0.0022853194674972584
6702.873627728327,0.0032800982182059346,0.0022883319333489452
6702.874627500542,0.003316090248143474,0.002293040053802043
6702.875627272758,0.0033532676156527844,0.0022993727761375046
6702.876627044972,0.0033911905965397426,0.0023072194240899738
6702.877626817188,0.0034294230470246875,0.002316430829253949
6702.878626589403,0.003467540586595208,0.0023268212598399965
6702.879626361619,0.003505139197080738,0.0023381712388708944
6702.880626133834,0.0035418438605172155,0.002350231292361866
6702.8816259060495,0.003577316781618648,0.0023627266178606818
6702.882625678264,0.0036112647363692723,0.0023753626190775633
6702.88362545048,0.0036434451739464735,0.002387831208571812
6702.884625222695,0.003673670835956798,0.002399817730853085
6702.88562499491,0.0037018127711618016,0.002411008302962095
6702.886624767126,0.0037278016649803826,0.0024210973216343933
6702.88762453934,0.003751627383789501,0.0024297948626320265
6702.888624311556,0.003773336617752104,0.0024368337040934873
6702.889624083771,0.0037930285576132086,0.00244197573673647
6702.890623855987,0.003810848679731616,0.0024450175770207375
6702.891623628202,0.0038269808999037845,0.0024457952715778823
6702.8926234004175,0.003841638523586452,0.0024441880551518314
6702.893623172632,0.0038550545158430936,0.002440121176652292
6702.894622944848,0.0038674716173183027,0.0024335678297510033
6702.895622717063,0.0038791327529522483,0.0024245502213878613
6702.896622489278,0.003890272060786747,0.0024131397873982125
6702.897622261494,0.003901106768317122,0.002399456523223687
6702.898622033708,0.003911830096884865,0.0023836673608797782
6702.899621805924,0.00392260536064064,0.002365983525357932
6702.900621578139,0.003933561399178464,0.0023466568629295034
6702.901621350355,0.003944789420672345,0.0023259752305590715
6702.90262112257,0.00395634125640647,0.0023042571201122605
6702.9036208947855,0.003968228974338785,0.002281845726008021
6702.904620667,0.003980425779530091,0.0022591026562530127
6702.905620439215,0.003992868113428555,0.002236401459626772
6702.906620211431,0.004005458812491431,0.0022141211053257385
6702.907619983646,0.004018071093367152,0.0021926395063359794
6702.908619755862,0.0040305530340417894,0.002172327135993722
6702.909619528076,0.0040427321716132135,0.0021535407603170092
6702.910619300292,0.004054419876267593,0.0021366172938610314
6702.911619072507,0.004065415292183801,0.0021218677789043485
6702.912618844723,0.004075508823666948,0.002109571494226401
6702.913618616938,0.0040844853226260835,0.002099970231752088
6702.9146183891535,0.0040921272364209844,0.002093262830556938
6702.915618161368,0.004098217978486538,0.0020896001021148696
6702.916617933583,0.004102545715852192,0.002089080300042914
6702.917617705799,0.004104907673753091,0.0020917452922143177
6702.918617478014,0.004105114959478693,0.002097577600676045
6702.91961725023,0.0041029978009702655,0.002106498480023686
6702.920617022444,0.004098410980647329,0.0021183671871516895
6702.92161679466,0.004091239146166464,0.002132981548127525
