Time,Filtered_EMG_Bicep,Filtered_EMG_Tricep
6804.623739811049,0.0021592196967868847,0.0028483336340520537
6804.624739582971,0.0023116594350873765,0.002909400228923433
6804.625739354894,0.00246021903454115,0.002972095738472919
6804.626739126817,0.0026036046317725885,0.003035906659325204
6804.62773889874,0.002740575932448821,0.0031002816524332484
6804.628738670663,0.002869968798746592,0.0031646383461373185
6804.629738442585,0.0029907167828966586,0.0032283711974453394
6804.630738214508,0.003101870993354722,0.003290860376618093
6804.63173798643,0.0032026177076795973,0.003351481600845727
6804.632737758354,0.003292293185764629,0.0034096167940233053
6804.633737530276,0.0033703951925965958,0.0034646653914865554
6804.634737302199,0.0034365908330536202,0.0035160560322777773
6804.635737074122,0.0034907204492530164,0.003563258290689912
6804.636736846044,0.0035327975179779655,0.0036057940094558
6804.637736617968,0.00356300466810752,0.0036432477344728715
6804.63873638989,0.003581686079613581,0.0036752757521076908
6804.639736161813,0.0035893366202591217,0.0037016133123850678
6804.640735933735,0.0035865881354512777,0.0037220797547194684
6804.641735705658,0.003574193345059145,0.003736581394061965
6804.642735477581,0.003553007831047375,0.0037451121570011214
6804.643735249504,0.003523970626394091,0.0037477520669781748
6804.644735021427,0.003488083934032232,0.003744663741398544
6804.645734793349,0.0034463925099497213,0.0037360870804454683
6804.646734565272,0.0033999632350663685,0.0037223323339356656
6804.647734337194,0.003349865367415878,0.003703771759420123
6804.648734109118,0.003297151902539683,0.00368083013210479
6804.64973388104,0.003242842390217355,0.00365397442563395
6804.650733652963,0.00318790748456434,0.0036237030438096896
6804.651733424886,0.003133255444169425,0.0035905350232399162
6804.652733196808,0.0030797207286675354,0.0035549996141200813
6804.653732968731,0.0030280547506424497,0.0035176265743885413
6804.654732740654,0.002978918758157559,0.0034789374086120262
6804.655732512577,0.0029328787696259974,0.003439437682762138
6804.656732284499,0.0028904024657034,0.0033996104669929083
6804.657732056422,0.0028518579473668206,0.003359910896662285
6804.658731828345,0.0028175142742748547,0.0033207617922610994
6804.659731600268,0.0027875436964625005,0.0032825502511715852
6804.660731372191,0.002762025496543607,0.003245625126347806
6804.661731144113,0.002740951372634601,0.0032102953247051813
6804.662730916036,0.0027242322929086674,0.003176828865458711
6804.663730687958,0.0027117067167169995,0.00314545262382054
6804.664730459882,0.002703150006652178,0.0031163526562527763
6804.665730231804,0.002698284776395302,0.003089674976723509
6804.666730003727,0.0026967918609334166,0.003065526640826063
6804.66772977565,0.002698321577242426,0.0030439769990950596
6804.668729547572,0.0027025049562155127,0.003025059003293472
6804.669729319496,0.002708964643539155,0.0030087704858150284
6804.670729091418,0.002717325178990915,0.0029950753698529797
6804.671728863341,0.0027272223899912477,0.002983904800476654
6804.672728635263,0.0027383116944982066,0.002975158221294521
6804.673728407186,0.0027502751911930605,0.0029687044602900513
6804.674728179109,0.002762827494023217,0.002964382921779938
6804.675727951032,0.002775720324891319,0.0029620050016883684
6804.676727722955,0.002788745911816717,0.002961355854644666
6804.677727494877,0.0028017392548492412,0.002962196647574546
6804.6787272668,0.00281457932318574,0.002964267422528359
6804.679727038722,0.0028271892450065787,0.0029672906430652994
6804.680726810646,0.0028395355558735904,0.002970975418832628
6804.681726582568,0.002851626578058384,0.0029750223233429296
6804.682726354491,0.0028635099972285616,0.0029791286690297463
6804.683726126414,0.0028752696704237935,0.0029829940846984745
6804.684725898336,0.0028870216421081874,0.0029863262368349675
6804.685725670259,0.002898909292331728,0.002988846536138491
6804.686725442182,0.002911097530633723,0.0029902956792819597
6804.687725214105,0.002923765993521734,0.002990438896401785
6804.688724986027,0.0029371012832468185,0.002989070791547916
6804.68972475795,0.002951288378445941,0.0029860196596027838
6804.690724529873,0.0029665014466933306,0.002981151144504632
6804.691724301796,0.002982894392346826,0.002974371092338377
6804.692724073719,0.003000591557949825,0.00296562746862805
6804.693723845641,0.0030196790313308975,0.0029549112555074157
6804.694723617564,0.0030401969843972497,0.0029422563046600657
6804.695723389486,0.003062133404883072,0.0029277381709172327
6804.69672316141,0.0030854195056309224,0.0029114719775782793
6804.697722933332,0.0031099270207566605,0.002893609376981005
6804.698722705255,0.0031354675235463407,0.0028743346876561548
6804.699722477178,0.003161793815058431,0.002853860327382127
6804.7007222491,0.003188603323168393,0.002832421716137079
6804.701722021024,0.003215543327513389,0.0028102718684145924
6804.702721792946,0.003242217717498578,0.002787675900298191
6804.703721564869,0.0032681949308349867,0.0027649056344499954
6804.704721336791,0.003293016722126207,0.0027422344182092976
6804.705721108714,0.00331620745835838,0.0027199322123229426
6804.706720880637,0.003337283693716293,0.0026982609829262643
6804.70772065256,0.003355763813709323,0.0026774704402046995
6804.708720424483,0.0033711775586510845,0.002657794205051343
6804.709720196405,0.003383075243855269,0.0026394465260182035
6804.710719968328,0.003391036482731847,0.00262261967949098
6804.71171974025,0.003394678194010357,0.0026074821556296706
6804.712719512174,0.0033936616666911295,0.0025941776832205687
6804.713719284096,0.0033876985023860028,0.002582825097947461
6804.714719056019,0.003376555357923319,0.0025735190062505723
6804.715718827942,0.003360057529405986,0.0025663311321150765
6804.716718599864,0.003338091500600747,0.00256131216156915
6804.717718371788,0.0033106066101641672,0.002558493832529251
6804.71871814371,0.0032776159962469693,0.002557890975954923
6804.719717915633,0.0032391969691549427,0.00255950322847252
6804.720717687555,0.0031954909382274693,0.0025633162269772646
6804.721717459478,0.00314670297631456,0.0025693022373027576
6804.7227172314015,0.0030931010540751927,0.002577420296652468
6804.723717003324,0.0030350149250339465,0.0025876160146979512
6804.724716775247,0.00297283459550636,0.002599821189549962
6804.725716547169,0.002907008276367637,0.0026139533887797077
6804.726716319092,0.002838039687281434,0.0026299156365652927
6804.727716091014,0.0027664845677494642,0.0026475963260853695
6804.728715862938,0.0026929462537699784,0.002666869438312459
6804.72971563486,0.0026180702192500857,0.0026875951041248534
6804.730715406783,0.002542537548995759,0.002709620506531587
6804.731715178706,0.002467057372270406,0.002732781092994904
6804.732714950628,0.0023923583273961382,0.0027569020602040213
6804.733714722552,0.002319179167364316,0.002781800080155789
6804.734714494474,0.0022482586665501392,0.0028072852438126533
6804.735714266397,0.002180325032567411,0.00283316319376854
6804.736714038319,0.0021160850511974553,0.0028592373926336445
6804.737713810242,0.002056213208746837,0.0028853114361274434
6804.738713582165,0.0020013410597973817,0.0029111912929503008
6804.739713354088,0.0019520471313527845,0.0029366873578453973
6804.740713126011,0.00190884765634751,0.0029616162326782194
6804.741712897933,0.0018721884005142102,0.0029858021756261096
6804.742712669856,0.0018424377971185024,0.0030090781688366093
6804.743712441778,0.0018198815505284535,0.003031286567208189
6804.744712213702,0.0018047188146450342,0.0030522793226388342
6804.745711985624,0.0017970599880913034,0.003071917824765703
6804.746711757547,0.0017969260933964316,0.0030900724493325084
6804.74771152947,0.0018042496292755455,0.0031066219527405574
6804.748711301392,0.0018188767142332063,0.0031214528852668215
6804.749711073316,0.0018405702949916044,0.003134459199583804
6804.750710845238,0.0018690141970034593,0.0031455422006862843
6804.751710617161,0.0019038178482583277,0.00315461093199081
6804.752710389083,0.0019445215811205437,0.0031615830404804514
6804.753710161006,0.0019906024720941417,0.0031663861218349854
6804.7547099329295,0.0020414807063918066,0.0031689595123091945
6804.755709704852,0.002096526473450307,0.0031692564602554553
6804.756709476775,0.0021550674257372645,0.0031672465703875045
6804.757709248697,0.002216396748165321,0.003162918369473474
6804.75870902062,0.0022797818602053863,0.0031562818085297405
6804.759708792542,0.0023444737080738944,0.003147370515505698
6804.760708564466,0.0024097165321962308,0.0031362436471671896
6804.761708336388,0.00247475794631727,0.0031229872343551722
6804.762708108311,0.0025388591504174247,0.0031077149466289256
6804.763707880234,0.002601305117177599,0.003090568224938749
6804.764707652156,0.002661414625471735,0.003071715760660535
6804.76570742408,0.0027185500354861432,0.003051352333659049
6804.766707196002,0.002772126686239959,0.003029697043856132
6804.767706967925,0.0028216217515258223,0.00300699097284582
6804.768706739847,0.002866582334298707,0.0029834943067050656
6804.76970651177,0.002906632525161948,0.0029594829582220237
6804.7707062836935,0.0029414791093758928,0.0029352447548881442
6804.771706055616,0.002970915608848253,0.002911075293636027
6804.772705827539,0.0029948244196160625,0.002887273577482778
6804.773705599461,0.0030131769325442473,0.002864137537101562
6804.774705371384,0.0030260316467883137,0.002841959530527202
6804.775705143307,0.003033530365980604,0.002821021931396662
6804.77670491523,0.00303589261670895,0.0028015929438824807
6804.777704687152,0.0030334084675465735,0.0027839227832982968
6804.778704459075,0.0030264299568952924,0.0027682403168157216
6804.779704230998,0.0030153613583634624,0.0027547501811432374
6804.78070400292,0.0030006485331659214,0.0027436303199576003
6804.781703774844,0.0029827676482241552,0.0027350298567128915
6804.782703546766,0.002962213568072831,0.0027290672552253343
6804.783703318689,0.002939488241842869,0.0027258287930093015
6804.784703090611,0.002915089398174315,0.002725367428784268
6804.785702862534,0.002889499838467504,0.0027277021493038746
6804.7867026344575,0.002863177587335483,0.0027328178317809755
6804.78770240638,0.002836547121156292,0.002740665586696677
6804.788702178303,0.002809991865363781,0.002751163490839013
6804.789701950225,0.002783848141894002,0.002764197610902035
6804.790701722148,0.0027584007476199037,0.0027796232550010946
6804.79170149407,0.0027338803239582124,0.002797266441310469
6804.792701265994,0.0027104626221659193,0.0028169256024352814
6804.793701037916,0.002688269684566123,0.0028383735441454604
6804.794700809839,0.0026673728640179946,0.0028613596682504996
6804.795700581762,0.002647797505225506,0.002885612465868178
6804.796700353684,0.0026295290191692914,0.002910842281790786
6804.797700125608,0.002612520000660702,0.0029367443345408996
6804.79869989753,0.002596697978193357,0.002963001962658972
6804.799699669453,0.0025819733583876863,0.002989290077880612
6804.800699441375,0.002568247139899446,0.003015278840567283
6804.801699213298,0.0025554180162245537,0.003040637604555707
6804.8026989852215,0.002543388553912573,0.0030650391776468385
6804.803698757144,0.002532070220412949,0.0030881644027578887
6804.804698529067,0.0025213871416278942,0.003109706997942768
6804.805698300989,0.002511278576926428,0.0031293785203764276
6804.806698072912,0.0025017001870635256,0.003146913253505909
6804.807697844835,0.0024926242327291005,0.0031620727698360163
6804.808697616758,0.002484038886851884,0.003174649911684089
6804.80969738868,0.0024759468722454483,0.0031844719766906285
6804.810697160603,0.002468363639427986,0.003191402987601679
6804.811696932526,0.002461315278619749,0.003195345021442825
6804.812696704448,0.002454836323512728,0.003196238625186661
6804.813696476372,0.0024489675594630074,0.0031940623582982774
6804.814696248294,0.0024437539095151137,0.0031888315205604893
6804.815696020217,0.00243924245964928,0.0031805961676770124
6804.816695792139,0.0024354807018010303,0.0031694385665745894
6804.817695564062,0.0024325150876402086,0.003155470269424009
6804.8186953359855,0.002430389963415995,0.003138828984234417
6804.819695107908,0.0024291468997723197,0.0031196754009652997
6804.820694879831,0.002428824374663323,0.0030981901065470813
6804.821694651753,0.002429457733254875,0.003074570692497614
6804.822694423676,0.002431079324413008,0.003049029120241671
6804.823694195598,0.0024337186849762837,0.003021789359774421
6804.824693967522,0.0024374026219852857,0.002993085265304578
6804.825693739444,0.002442155052060843,0.0029631586130674827
6804.826693511367,0.00244799650457329,0.002932257216726423
6804.82769328329,0.0024549432706840357,0.0029006330607230235
6804.828693055212,0.0024630062574849698,0.002868540440782686
6804.829692827136,0.002472189652708196,0.002836234146205713
6804.830692599058,0.0024824895070516976,0.0028039677373993994
6804.831692370981,0.0024938923171281503,0.002771991966442553
6804.832692142903,0.002506373674709083,0.002740553377644798
6804.833691914826,0.002519897050732392,0.0027098931196150615
6804.8346916867495,0.0025344127890928685,0.0026802459920569183
6804.835691458672,0.00254985737269526,0.0026518397284961397
6804.836691230595,0.002566152992759852,0.0026248944850240158
6804.837691002517,0.0025832074203681237,0.0025996224802927732
6804.83869077444,0.002600914159700506,0.002576227722996281
6804.839690546363,0.0026191528590325357,0.0025549057674005633
6804.840690318286,0.002637789967780809,0.0025358434458241288
6804.841690090208,0.0026566796447500154,0.0025192185351560156
6804.842689862131,0.002675664924726519,0.002505199330008827
6804.843689634054,0.0026945791310174338,0.002493944121672372
6804.844689405976,0.002713247498341555,0.0024856006056377463
6804.8456891779,0.0027314889631110616,0.002480305245525127
6804.846688949822,0.0027491180788505485,0.0024781826065246354
6804.847688721745,0.002765947004625842,0.0024793446399288366
6804.848688493667,0.0027817875028858996,0.0024838898553808286
6804.84968826559,0.0027964528948369724,0.002491902275558063
6804.8506880375135,0.0028097599538043348,0.0025034500562216514
6804.851687809436,0.0028215307457252993,0.0025185836881112707
6804.852687581359,0.0028315944411236487,0.0025373337623242186
6804.853687353281,0.0028397891289639555,0.0025597083454536357
6804.854687125204,0.0028459636606161594,0.0025856900562255566
6804.855686897127,0.0028499795426318183,0.0026152329675389685
6804.85668666905,0.0028517128851390165,0.0026482594847935027
6804.857686440972,0.002851056401441667,0.002684657368732049
6804.858686212895,0.002847921445179407,0.002724277070132914
6804.859685984818,0.0028422400684899192,0.002766929521132173
6804.860685756741,0.002833967091909055,0.002812384490222936
6804.861685528664,0.0028230821877834604,0.0028603695739432616
6804.862685300586,0.00280959197395531,0.002910569887413246
6804.863685072509,0.0027935320731256917,0.0029626285290437772
6804.864684844431,0.002774969015585774,0.0030161479150478403
6804.865684616354,0.002754001781149833,0.003070692088848522
6804.8666843882775,0.0027307627416493906,0.0031257900954354207
6804.8676841602,0.00270541780638638,0.003180940463775274
6804.868683932123,0.002678165660342982,0.00323561677035289
6804.869683704045,0.0026492360611781274,0.0032892741836574265
6804.870683475968,0.002618887202445443,0.0033413568227821096
6804.871683247891,0.0025874021753521954,0.0033913057027074446
6804.872683019814,0.0025550845876700376,0.0034385669932406955
6804.873682791736,0.002522253428288002,0.003482600306581131
6804.874682563659,0.0024892373004149586,0.0035228867548467895
6804.875682335582,0.0024563681870134655,0.0035589365675187286
6804.876682107504,0.0024239749578400457,0.003590296114191217
6804.877681879428,0.0023923768759703174,0.0036165542422536023
6804.87868165135,0.0023618773979446335,0.0036373479209750228
6804.879681423273,0.002332758561927041,0.003652367273028664
6804.880681195195,0.0023052762175192554,0.0036613601333749684
6804.881680967118,0.002279656286684715,0.0036641362662477995
6804.8826807390415,0.0022560921741302587,0.00366057129836174
6804.883680510964,0.0022347433769043996,0.0036506103315383127
6804.884680282887,0.002215735286324815,0.0036342711150767273
6804.885680054809,0.002199160133612645,0.0036116465966485926
6804.886679826732,0.0021850789976619136,0.003582906633993535
6804.887679598655,0.0021735247641659853,0.003548298648750839
6804.888679370578,0.002164505895814158,0.0035081470407694196
6804.8896791425,0.002158010836919303,0.003462851241406901
6804.890678914423,0.0021540128343106495,0.0034128823508540788
6804.891678686346,0.002152474921346168,0.0033587783652592835
6804.892678458269,0.0021533547881464644,0.0033011380405138214
6804.893678230192,0.0021566092438742726,0.0032406134615858184
6804.894678002114,0.0021621979736357083,0.003177901418532086
6804.895677774037,0.0021700863293037955,0.0031137337565554954
6804.896677545959,0.002180246982568668,0.003048866949583378
6804.897677317882,0.0021926603813834087,0.0029840712048437162
6804.8986770898055,0.002207314041446378,0.002920119417064998
6804.899676861728,0.0022242007508564525,0.0028577762586216443
6804.900676633651,0.0022433157845166587,0.0027977876348594206
6804.901676405573,0.0022646532522978976,0.002740870672867045
6804.902676177496,0.0022882017685498177,0.0026877043622089494
6804.903675949419,0.0023139397188208927,0.002638920937192941
6804.904675721342,0.0023418304680860153,0.0025950980806376967
6804.905675493264,0.002371817864077647,0.0025567520193713104
6804.906675265187,0.002403822334940767,0.002524331553645844
6804.90767503711,0.0024377377910257767,0.002498213023950121
6804.908674809032,0.0024734294575460753,0.002478696190076282
6804.909674580956,0.0025107327180696384,0.002466000986696612
6804.910674352878,0.0025494530382075267,0.0024602651242074986
6804.911674124801,0.002589367034541049,0.0024615425191436826
6804.912673896723,0.0026302247221483763,0.002469802554927807
6804.913673668647,0.002671752904261648,0.002484930177683842
6804.9146734405695,0.00271365957498851,0.002506726826135469
6804.915673212492,0.0027556391209440706,0.002534912200354073
6804.916672984415,0.0027973780591531994,0.002569126900524428
6804.917672756337,0.002838561045075286,0.0026089359928171967
6804.91867252826,0.0028788769095250293,0.002653833559284311
6804.919672300183,0.002918024513708212,0.002703248262315539
6804.920672072106,0.0029557182342565495,0.0027565499184902913
6804.921671844028,0.0029916928999687378,0.002813057042623208
6804.922671615951,0.003025707998035243,0.002872045292623808
6804.923671387874,0.003057550961606729,0.0029327567202517323
6804.924671159797,0.003087039373751394,0.0029944097126331126
6804.92567093172,0.0031140219991622796,0.003056209494300267
6804.926670703642,0.0031383786651742566,0.003117359046785435
6804.927670475565,0.003160019111240262,0.0031770702855704663
6804.928670247487,0.003178880986016915,0.00323457531126428
6804.92967001941,0.003194927195506946,0.0032891375369935487
6804.9306697913335,0.0032081427946940694,0.003340062497849601
6804.931669563256,0.003218531571129168,0.0033867081560534805
6804.932669335179,0.0032261124193964704,0.003428494505583016
6804.933669107101,0.003230915586224886,0.003464912260121721
6804.934668879024,0.0032329788818823593,0.003495530405571468
6804.935668650947,0.003232343980848549,0.003520002415682689
6804.93666842287,0.003229052959360644,0.003538070944772454
6804.937668194792,0.0032231452417650886,0.003549570822635015
6804.938667966715,0.003214655144990423,0.0035544302069065578
6804.939667738638,0.003203610198758429,0.003552669808491035
6804.940667510561,0.0031900303681143506,0.003544400183102879
6804.941667282484,0.0031739282351545915,0.003529817161508533
6804.942667054406,0.0031553101411116898,0.003509195567345836
6804.943666826329,0.0031341782590016006,0.003482881442166213
6804.944666598251,0.003110533541591105,0.0034512830573250174
6804.945666370175,0.0030843794446059666,0.003414861033334331
6804.9466661420975,0.003055726257332526,0.003374117902327977
6804.94766591402,0.0030245958026621678,0.003329587437991263
6804.948665685943,0.0029910262257485066,0.003281824046697775
6804.949665457865,0.0029550765976617942,0.0032313924765164145
6804.950665229788,0.0029168311191603334,0.003178858074179185
6804.951665001711,0.002876402791616668,0.0031247778133265034
6804.952664773634,0.0028339364854301817,0.0030696923152786666
6804.953664545556,0.002789611357570387,0.003014119057359879
6804.954664317479,0.002743642558203131,0.002958546907464532
6804.955664089402,0.0026962821507607623,0.0029034320602274255
6804.956663861325,0.002647819175149526,0.002849195391913657
6804.957663633248,0.002598578808871686,0.002796221178888448
6804.95866340517,0.0025489206014912102,0.002744857022132068
6804.959663177093,0.002499235755083992,0.0026954147101733864
6804.960662949015,0.002449943404561431,0.002648171685446257
6804.961662720938,0.00240148584699755,0.0026033727875582934
6804.962662492861,0.0023543227063768366,0.0025612320173814427
6804.963662264784,0.0023089240959824958,0.0025219341604320903
6804.964662036707,0.0022657629175813505,0.002485636201921159
6804.965661808629,0.0022253064800931547,0.002452468544673797
6804.966661580552,0.0021880076312539957,0.002422536090880557
6804.967661352475,0.00215429560015055,0.0023959192690345865
6804.968661124398,0.0021245667635978525,0.0023726750895171375
6804.96966089632,0.002099175565791468,0.002352838299286637
6804.970660668243,0.0020784258221963822,0.002336422677207748
6804.971660440166,0.0020625626294442563,0.0023234224760663247
6804.972660212089,0.0020517651006812937,0.0023138139873673316
6804.973659984012,0.002046140152153938,0.0023075571814536178
6804.974659755934,0.0020457175645561903,0.0023045973512878667
6804.975659527857,0.0020504465224441136,0.002304866664578235
6804.976659299779,0.0020601938084297525,0.002308285521405621
6804.977659071703,0.0020747438070270944,0.002314763636056568
6804.978658843625,0.002093800446154774,0.0023242008019590823
6804.979658615548,0.00211699115372317,0.0023364873311772427
6804.980658387471,0.002143872828606435,0.0023515041713912397
6804.981658159393,0.0021739397318183778,0.0023691227062090457
6804.982657931316,0.0022066331073243416,0.002389204261992266
6804.983657703239,0.0022413522506683037,0.0024115993838289634
6804.984657475162,0.002277466669397194,0.002436146987273971
6804.985657247084,0.0023143289364441723,0.0024626735191166614
6804.986657019007,0.0023512878286737295,0.0024909922710714145
6804.98765679093,0.0023877013561520734,0.002520902998903981
6804.988656562853,0.0024229493152293576,0.0025521920014695654
6804.989656334776,0.0024564450468797633,0.0025846327913622022
6804.990656106698,0.002487646160352201,0.002617987441252489
6804.991655878621,0.002516064081642445,0.0026520086397647234
6804.992655650543,0.0025412723729878444,0.002686442456771718
6804.993655422467,0.002562913807352327,0.0027210317958367846
6804.994655194389,0.0025807061636671617,0.0027555204797796422
6804.995654966312,0.0025944466653325714,0.0027896578587752853
6804.996654738235,0.0026040149583144555,0.0028232037533356003
6804.997654510157,0.0026093745329387828,0.0028559334624578335
6804.998654282081,0.0026105725193552648,0.0028876424976251496
6804.999654054003,0.0026077378087773903,0.002918150670665168
6805.000653825926,0.0026010774691350297,0.0029473051969964178
6805.001653597848,0.00259087145181003,0.002974982584960719
6805.002653369771,0.002577465641295569,0.0030010892374968804
6805.003653141694,0.002561263377819779,0.003025560843739288
6805.004652913617,0.0025427156624357847,0.003048360748943297
6805.00565268554,0.0025223103176088006,0.0030694775535168696
6805.006652457462,0.002500560427147817,0.0030889222142992724
6805.007652229385,0.002477992426566868,0.0031067249161184987
6805.008652001307,0.0024551342484702542,0.0031229319592703587
6805.009651773231,0.0024325039236087792,0.0031376028685069896
6805.010651545153,0.002410598990508182,0.003150807864293346
6805.011651317076,0.0023898869962731017,0.0031626257540217284
6805.012651088999,0.0023707973056532558,0.003173142223043655
6805.013650860921,0.002353714384496539,0.0031824484491415317
6805.014650632844,0.00233897267495585,0.0031906399287338033
6805.015650404767,0.002326853115285056,0.003197815386478476
6805.01665017669,0.0023175812745663974,0.003204075643987803
6805.017649948612,0.002311326987820877,0.0032095223476959625
6805.018649720535,0.0023082053073405864,0.003214256496703262
6805.019649492458,0.0023082785388943883,0.003218376759815331
6805.020649264381,0.00231155910112063,0.0032219776153521976
6805.021649036304,0.0023180129256725546,0.0032251473828021964
6805.022648808226,0.0023275631138952838,0.0032279662403762507
6805.023648580149,0.002340093606887292,0.0032305043307135433
6805.024648352071,0.0023554527195987704,0.0032328200499140997
6805.025648123995,0.0023734565132008762,0.0032349586059663223
6805.026647895917,0.0023938920912467436,0.0032369509225058596
6805.02764766784,0.0024165209691892333,0.003238812936194879
6805.028647439763,0.0024410826703987567,0.0032405452873091696
6805.029647211685,0.002467298654965934,0.0032421333559342243
6805.030646983609,0.0024948766168588943,0.0032435475742824214
6805.031646755531,0.002523515118277799,0.00324474395402275
6805.032646527454,0.0025529084810139513,0.0032456647985152787
6805.033646299376,0.0025827518215039875,0.0032462396096835304
6805.034646071299,0.0026127460921045076,0.003246386226629837
6805.035645843222,0.0026426029711887618,0.0032460122314446967
6805.036645615145,0.002672049428634869,0.0032450166337271383
6805.037645387068,0.002700831788977971,0.003243291821346356
6805.03864515899,0.0027287191371658218,0.0032407257508867402
6805.039644930913,0.0027555059678692597,0.003237204338393384
6805.040644702835,0.0027810140523704925,0.0032326139942185036
6805.041644474759,0.002805093559757499,0.0032268442358804493
6805.042644246681,0.0028276235027050916,0.0032197903207087965
6805.043644018604,0.0028485115786803686,0.0032113558554856102
6805.044643790527,0.0028676934554480843,0.00320145534131133
6805.045643562449,0.0028851315229545004,0.0031900165975777
6805.046643334372,0.0029008131148362724,0.003176983003744914
6805.047643106295,0.0029147482019871236,0.0031623155154601825
6805.048642878218,0.002926966590529646,0.0031459944386450626
6805.04964265014,0.002937514714116893,0.0031280209642499746
6805.050642422063,0.0029464521632551286,0.003108418471580337
6805.051642193986,0.002953848110262163,0.0030872335946895233
6805.052641965909,0.002959777772509926,0.0030645370103487817
6805.053641737832,0.0029643190406981835,0.0030404238566742064
6805.054641509754,0.0029675494034686277,0.0030150136521185943
6805.055641281677,0.0029695433148408607,0.0029884495821786905
6805.056641053599,0.002970370152192314,0.0029608970674015562
6805.057640825523,0.0029700928883825534,0.002932541603607252
6805.058640597445,0.002968767558781244,0.0029035859447353878
6805.059640369368,0.002966443550051008,0.0028742467671825736
6805.060640141291,0.0029631646791647434,0.0028447510069169284
6805.061639913213,0.002958970982556974,0.002815332082214138
6805.062639685137,0.002953901105240612,0.0027862261932003612
6805.063639457059,0.0029479951563019607,0.0027576688337194117
6805.064639228982,0.002941297864600831,0.002729891587153363
6805.065639000904,0.0029338618306641957,0.0027031192281691623
6805.066638772827,0.002925750642838284,0.002677567122044542
6805.06763854475,0.002917041610718324,0.002653438896459451
6805.068638316673,0.002907827864593578,0.0026309243579728183
6805.069638088596,0.002898219591671713,0.0026101976433900256
6805.070637860518,0.00288834424672311,0.002591415632737019
6805.071637632441,0.00287834567594985,0.0025747166896960727
6805.072637404363,0.002868382195945966,0.002560219813989887
6805.073637176287,0.0028586237497314378,0.0025480242713418495
6805.074636948209,0.0028492483110810905,0.002538209712157644
6805.075636720132,0.002840437732288236,0.002530836719287353
6805.076636492055,0.002832373240961777,0.002525947665276401
6805.077636263977,0.0028252307937206788,0.0025235677342857125
6805.078636035901,0.0028191764866416884,0.0025237059751303625
6805.079635807823,0.0028143622044083747,0.0025263562726058394
6805.080635579746,0.0028109216631916193,0.0025314981281338135
6805.081635351668,0.0028089669650133513,0.002539097135810949
6805.082635123591,0.002808585738368003,0.002549105060975878
6805.0836348955145,0.0028098389010801656,0.0025614594981215183
6805.084634667437,0.0028127590509484783,0.002576083184184932
6805.08563443936,0.0028173494666155364,0.002592883119818928
6805.086634211282,0.002823583688706655,0.002611749666683341
6805.087633983205,0.002831405657764852,0.002632555754098378
6805.088633755127,0.0028407304103528538,0.00265515628608322
6805.089633527051,0.0028514453574928285,0.002679387819110437
6805.090633298973,0.002863412162511148,0.002705068580647145
6805.091633070896,0.0028764691921887987,0.002731998901604373
6805.092632842819,0.00289043445944118,0.0027599621246166828
6805.093632614741,0.00290510893475521,0.0027887260134227924
6805.094632386665,0.0029202800848505896,0.0028180446271800393
6805.095632158587,0.0029357254949413094,0.0028476605543731504
6805.09663193051,0.002951216441021272,0.0028773073554011004
6805.097631702432,0.0029665212966304057,0.0029067120659303208
6805.098631474355,0.0029814086789930745,0.0029355976547733582
6805.099631246278,0.002995650262326557,0.0029636853767044924
6805.100631018201,0.003009023218020837,0.002990697001739794
6805.101630790124,0.003021312287060665,0.0030163569559032806
6805.102630562046,0.0030323115478669994,0.0030403944758946124
6805.103630333969,0.003041825999879857,0.003062545933785629
6805.104630105891,0.0030496731122692613,0.003082557503796123
6805.105629877815,0.0030556844642382567,0.0031001883150421016
6805.106629649737,0.003059707535583667,0.003115214163603181
6805.10762942166,0.003061607629599609,0.0031274317543157557
6805.108629193583,0.003061269859877083,0.0031366633301164047
6805.109628965505,0.003058601116379443,0.003142761456593575
6805.110628737429,0.003053531924867437,0.003145613692693626
6805.111628509351,0.003046018104716166,0.0031451469004243064
6805.112628281274,0.0030360421181662577,0.0031413309901377954
6805.113628053196,0.003023614017411919,0.003134181917335637
6805.114627825119,0.0030087719439204517,0.003123763734148166
6805.1156275970425,0.002991582184067232,0.0031101894832958883
6805.116627368965,0.0029721388001358374,0.0030936207355115636
6805.117627140888,0.002950562842990263,0.00307426562966601
6805.11862691281,0.0029270011449865894,0.0030523753821316735
6805.119626684733,0.0029016247001902263,0.0030282393679091635
6805.120626456655,0.0028746266534405655,0.003002178993449518
6805.121626228579,0.0028462199341664843,0.0029745406446068266
6805.122626000501,0.0028166345804275087,0.0029456880129230104
6805.123625772424,0.0027861147942221795,0.002915994109550035
6805.124625544347,0.0027549157575449033,0.002885833275080749
6805.125625316269,0.0027233002469977652,0.002855573471466998
6805.126625088193,0.0026915351210675237,0.0028255690994021905
6805.127624860115,0.002659887787445866,0.0027961545416419157
6805.128624632038,0.0026286227604223784,0.0027676386020739807
6805.12962440396,0.002597998403677613,0.0027402999830913395
6805.130624175883,0.0025682639458836864,0.002714383907404602
6805.131623947807,0.0025396568503891536,0.002690099945572431
6805.132623719729,0.0025124005964473474,0.00266762106857102
6805.133623491652,0.0024867028842867006,0.0026470839094809946
6805.134623263574,0.0024627542219107373,0.0026285901767201508
6805.135623035497,0.0024407268074259684,0.002612209100884101
6805.13662280742,0.0024207736060459844,0.002597980725338053
6805.137622579343,0.0024030275349724226,0.002585919784632143
6805.138622351265,0.0023876006922710553,0.0025760198663062365
6805.139622123188,0.0023745835866301477,0.002568257531818295
6805.140621895111,0.0023640443482597366,0.002562596099454466
6805.141621667033,0.0023560279316383313,0.0025589888730395646
6805.142621438957,0.002350555356157613,0.0025573817075602054
6805.143621210879,0.002347623061271373,0.0025577148924997534
6805.144620982802,0.002347202463624858,0.0025599243853254
6805.145620754724,0.002349239789811869,0.002563942447002006
6805.146620526647,0.0023536562353299695,0.002569697729041181
6805.1476202985705,0.0023603484924791304,0.00257711485470566
6805.148620070493,0.0023691897058697622,0.0025861135497577048
6805.149619842416,0.0023800309317510314,0.002596607411111419
6805.150619614338,0.0023927031646205736,0.0026085024255404774
6805.151619386261,0.0024070199482702356,0.0026216953474448336
6805.152619158183,0.0024227805354823163,0.0026360720304353857
6805.153618930107,0.0024397735235460968,0.0026515058024022702
6805.154618702029,0.002457780874781043,0.0026678559773134405
6805.155618473952,0.002476582225791919,0.002684966602944763
6805.156618245875,0.002495959382323745,0.00270266555781865
6805.157618017797,0.0025157008742790893,0.0027207641370367683
6805.158617789721,0.002535606411945139,0.0027390572883256342
6805.159617561643,0.0025554910594267114,0.0027573246486031493
6805.160617333566,0.0025751889411857894,0.00277533247836576
6805.161617105488,0.002594556326372449,0.0027928365118840394
6805.162616877411,0.0026134739768989747,0.002809585653833796
6805.163616649335,0.002631848668832902,0.0028253263669641075
6805.164616421257,0.0026496137961958487,0.002839807524772983
6805.16561619318,0.002666728977303121,0.002852785470107901
6805.166615965102,0.002683178642233711,0.002864029037572583
6805.167615737025,0.0026989696723975828,0.0028733243541454938
6805.168615508948,0.0027141282388966296,0.002880479297431402
6805.169615280871,0.0027286960143351824,0.0028853275311304
6805.170615052793,0.0027427259287302885,0.0028877320467742594
6805.171614824716,0.0027562776396218396,0.0028875881465957585
6805.172614596639,0.002769412905366066,0.002884825828468087
6805.173614368561,0.002782191075324568,0.0028794115707673866
6805.174614140485,0.002794664915157703,0.0028713495342415065
6805.175613912407,0.0028068769552692923,0.0028606821859806417
6805.17661368433,0.0028188564942365556,0.0028474903223641894
6805.177613456252,0.0028306173277892243,0.0028318924487746875
6805.178613228175,0.0028421562227877134,0.0028140434740533088
6805.1796130000985,0.0028534521172350106,0.0027941326920587223
6805.180612772021,0.002864465994731924,0.0027723810483230374
6805.181612543944,0.0028751413469370254,0.002749037725720715
6805.182612315866,0.0028854051059947912,0.002724376122185824
6805.183612087789,0.002895168922529333,0.002698689329884343
6805.184611859711,0.0029043306939951284,0.0026722852559605977
6805.185611631635,0.0029127762879332018,0.0026454815401048505
6805.186611403557,0.0029203814236056958,0.002618600414943906
6805.18761117548,0.0029270136797077888,0.0025919636319528955
6805.188610947403,0.002932534616294868,0.002565887558495235
6805.189610719325,0.0029368020426610362,0.002540678545450831
6805.190610491249,0.002939672503134668,0.002516628658415695
6805.191610263171,0.002941004061368297,0.002494011851979491
6805.192610035094,0.0029406594322251263,0.002473080648768179
6805.193609807016,0.002938509452625091,0.0024540633656469444
6805.194609578939,0.0029344368287533506,0.0024371619116257577
6805.195609350863,0.0029283400674990426,0.002422550168118425
6805.196609122785,0.002920137484057052,0.0024103729473401326
6805.197608894708,0.0029097711552279215,0.0024007455026153414
6805.19860866663,0.002897210663047164,0.0023937535412483966
6805.199608438553,0.002882456464331008,0.0023894536757613377
6805.200608210476,0.002865542735618965,0.0023878742395336025
6805.201607982399,0.002846539575816686,0.0023890163856726096
6805.202607754321,0.0028255544925071922,0.002392855398269617
6805.203607526244,0.0028027331377489194,0.0023993421821343324
6805.204607298167,0.002778259282307077,0.002408404935342601
6805.205607070089,0.002752354025040539,0.002419951013718378
6805.206606842013,0.0027252742342054486,0.0024338689700097887
6805.207606613935,0.002697310212330668,0.002450030726807749
6805.208606385858,0.0026687825675847476,0.002468293840169243
6805.20960615778,0.002640038265310764,0.0024885038177249034
6805.210605929703,0.0026114458288227604,0.002510496452132569
6805.2116057016265,0.0025833896697198253,0.002534100118831426
6805.212605473549,0.0025562635636871573,0.002559137984090371
6805.213605245472,0.0025304633445948966,0.0025854300860409865
6805.214605017394,0.0025063789589734025,0.002612795272869347
6805.215604789317,0.002484386092181149,0.0026410529839534834
6805.21660456124,0.0024648376250433488,0.002670024838599599
6805.217604333163,0.002448055192805164,0.0026995359750197805
6805.218604105085,0.0024343211121383955,0.0027294160800764387
6805.219603877008,0.002423870938500128,0.00275950007033733
6805.220603648931,0.0024168869152488264,0.0027896284184533234
6805.221603420854,0.0024134925623509698,0.002819647160265934
6805.222603192777,0.0024137486188710007,0.002849407662225965
6805.223602964699,0.0024176505072060184,0.002878766258166457
6805.224602736622,0.0024251274412815816,0.0029075838552980937
6805.225602508544,0.002436043260959092,0.002935725556939717
6805.226602280467,0.002450199031266924,0.0029630602812890303
6805.227602052391,0.0024673373828374852,0.002989460312326688
6805.228601824313,0.0024871484873571987,0.00301480072513075
6805.229601596236,0.002509277475148062,0.003038958673542721
6805.230601368158,0.002533333033447384,0.003061812577510476
6805.231601140081,0.0025588968887956427,0.003083241274371277
6805.232600912004,0.0025855338729633037,0.0031031232095626604
6805.233600683927,0.002612802278250177,0.0031213357546717724
6805.234600455849,0.002640264205079893,0.0031377547543477067
6805.235600227772,0.0026674955944399354,0.00315225441333758
6805.236599999695,0.0026940956376920837,0.003164707644365669
6805.237599771617,0.0027196952804455434,0.0031749870039042994
6805.238599543541,0.0027439645871440753,0.0031829663307780497
6805.239599315463,0.002766618801950899,0.0031885231636584
6805.240599087386,0.002787423014343399,0.0031915419527385165
6805.241598859308,0.002806195392416543,0.0031919180027868083
6805.242598631231,0.0028228089724768083,0.003189561994195242
6805.2435984031545,0.002837192005225531,0.0031844048454551825
6805.244598175077,0.002849326880032363,0.0031764026343992155
6805.245597947,0.0028592476845062543,0.00316554129674613
6805.246597718922,0.0028670364910526923,0.0031518408476612038
6805.247597490845,0.0028728184788006264,0.0031353588969649524
6805.248597262768,0.002876756005293274,0.0031161932398527494
6805.249597034691,0.002879041770828722,0.003094483308747588
6805.250596806613,0.0028798912922055014,0.003070410289740728
6805.251596578536,0.0028795349954489347,0.0030441957660543744
6805.252596350459,0.002878210290923206,0.003016098856236171
6805.253596122382,0.002876153981360797,0.0029864119386830987
6805.254595894305,0.002873595299649124,0.0029554551609237327
6805.255595666227,0.00287074981664869,0.0029235700026116595
6805.25659543815,0.0028678144063273656,0.002891112190966769
6805.257595210072,0.002864963387426569,0.0028584442597365985
6805.258594981995,0.002862345870401403,0.0028259280115461648
6805.259594753919,0.002860084242638821,0.0027939171089400093
6805.260594525841,0.0028582736446012454,0.0027627499921362955
6805.261594297764,0.0028569822352960627,0.0027327432988184684
6805.262594069686,0.0028562520268886416,0.0027041859387007907
6805.263593841609,0.0028561000940551837,0.0026773339545684742
6805.264593613532,0.0028565200287235886,0.0026524062861307935
6805.265593385455,0.002857483592622016,0.0026295815410011057
6805.266593157377,0.0028589425868136694,0.0026089958558222254
6805.2675929293,0.002860830982916928,0.00259074188769128
6805.268592701223,0.0028630673413802196,0.002574868913724551
6805.269592473145,0.0028655575018982265,0.002561383949278217
6805.270592245069,0.002868197503164353,0.0025502537349676793
6805.271592016991,0.0028708766861005428,0.0025414073955507986
6805.272591788914,0.002873480938865772,0.0025347395499759687
6805.273591560836,0.0028758960338946984,0.002530113661138826
6805.27459133276,0.0028780109908058244,0.002527365453884325
6805.2755911046825,0.0028797213885451427,0.0025263062920490693
6805.276590876605,0.002880932547900057,0.0025267264808790544
6805.277590648528,0.0028815625017320793,0.0025283985308318215
6805.27859042045,0.0028815446584592535,0.0025310804589428605
6805.279590192373,0.0028808300525143275,0.0025345192086954505
6805.280589964296,0.0028793890785711244,0.002538454248561151
6805.281589736219,0.002877212627492588,0.0025426213697709228
6805.282589508141,0.002874312573322453,0.0025467566525372394
6805.283589280064,0.0028707215992902924,0.002550600526744618
6805.284589051987,0.0028664923954568006,0.002553901836059426
6805.28558882391,0.0028616962990800567,0.002556421819641762
6805.286588595833,0.0028564214686857383,0.0025579379396907325
6805.287588367755,0.0028507706850142657,0.0025582475020750435
6805.288588139678,0.0028448588621416936,0.0025571710386048316
6805.2895879116,0.002838810336765691,0.0025545554330191696
6805.290587683523,0.0028327559979785186,0.002550276776235732
6805.291587455447,0.0028268303339972363,0.0025442429403785293
6805.292587227369,0.0028211684917434916,0.002536395869155848
6805.293586999292,0.002815903446985726,0.002526713584195834
6805.294586771214,0.0028111633633017283,0.0025152118983730225
6805.295586543137,0.0028070691875665956,0.002501945818669762
6805.29658631506,0.0028037324978301245,0.0024870106207022387
6805.297586086983,0.0028012535993471956,0.0024705425722884315
6805.298585858905,0.0027997198694717446,0.002452719254037824
6805.299585630828,0.0027992043761332743,0.0024337593716778822
6805.300585402751,0.002799764809796095,0.0024139219038420796
6805.301585174674,0.0028014427551954473,0.0023935044055321524
6805.302584946597,0.002804263296212881,0.002372840299215082
6805.303584718519,0.0028082349140273665,0.002352295032230811
6805.304584490442,0.0028133496075524278,0.0023322610568173117
6805.305584262364,0.0028195831312326134,0.002313151678948234
6805.306584034288,0.0028268952209112115,0.0022953938952353786
6805.3075838062105,0.0028352296882264787,0.0022794203825185146
6805.308583578133,0.002844514310886386,0.002265660843457622
6805.309583350056,0.0028546605052252273,0.002254532964118305
6805.310583121978,0.002865562824941006,0.0022464332891768486
6805.311582893901,0.002877098395733414,0.002241728328768245
6805.312582665824,0.0028891264608825397,0.00224074616855391
6805.313582437747,0.0029014882418502055,0.002243768794602773
6805.314582209669,0.0029140072970412208,0.0022510253045757884
6805.315581981592,0.0029264905141695085,0.002262686155957057
6805.316581753515,0.002938729820178634,0.002278858570897819
6805.317581525438,0.0029505046397066215,0.0022995831627945686
6805.318581297361,0.002961585072903128,0.0023248317929954114
6805.319581069283,0.002971735697803349,0.0023545066285230636
6805.320580841206,0.002980719846326069,0.0023884403476618415
6805.321580613128,0.0029883041737566577,0.00242639741610881
6805.322580385051,0.0029942633419300993,0.002468076341465723
6805.323580156975,0.002998384653701284,0.0025131128296873497
6805.324579928897,0.003000472496450306,0.002561083813084425
6805.32557970082,0.003000352465242225,0.002611512370969052
6805.326579472742,0.0029978750353216906,0.0026638735999548933
6805.327579244665,0.0029929186433183073,0.0027176015019866303
6805.328579016588,0.00298539204328182,0.0027720969336714396
6805.329578788511,0.002975235864324052,0.002826736592764896
6805.330578560433,0.0029624234164201315,0.002880882922689528
6805.331578332356,0.002946960916660216,0.0029338947291712297
6805.332578104279,0.0029288873670123877,0.002985138248077557
6805.333577876202,0.0029082742824772206,0.0030339983775957155
6805.334577648125,0.002885225383482804,0.0030798897794812176
6805.335577420047,0.002859876278418629,0.003122267561366867
6805.33657719197,0.00283239409505162,0.003160637280523514
6805.337576963892,0.0028029769793913445,0.0031945640572183767
6805.338576735816,0.002771853370156235,0.003223680635248633
6805.3395765077385,0.0027392809699539208,0.003247694255075589
6805.340576279661,0.002705545354259624,0.0032663922030504284
6805.341576051584,0.0026709581725615464,0.0032796458839079957
6805.342575823506,0.0026358548957940856,0.003287413258661851
6805.343575595429,0.0026005920470463964,0.0032897395071079484
6805.344575367352,0.002565543823052734,0.0032867558034791323
6805.345575139275,0.0025310979895509563,0.0032786761342048884
6805.346574911197,0.002497650940706282,0.003265792162774702
6805.34757468312,0.0024656018724842675,0.0032484662719482744
6805.348574455043,0.00243534612427679,0.0032271230541962704
6805.349574226966,0.002407267852950775,0.0032022396219487837
6805.350573998889,0.0023817322855906246,0.0031743351446887292
6805.351573770811,0.002359077853209935,0.00314396000735549
6805.352573542734,0.0023396085518610074,0.00311168495374925
6805.353573314656,0.002323586902993291,0.003078090539341651
6805.35457308658,0.0023112278685018827,0.003043757158825017
6805.355572858503,0.002302694008284585,0.0030092558282068253
6805.356572630425,0.002298092068097531,0.002975139801724407
6805.357572402348,0.002297471085628813,0.0029419370150535525
6805.35857217427,0.002300822023378485,0.002910143293220407
6805.359571946194,0.002308078875545192,0.002880216254883169
6805.360571718116,0.002319121141481235,0.002852569870405216
6805.361571490039,0.0023337775099687005,0.002827569663740523
6805.362571261961,0.002351830565750589,0.0028055285730282137
6805.363571033884,0.002373022315917894,0.002786703500794879
6805.364570805807,0.0023970603326912924,0.002771292592099589
6805.36557057773,0.0024236243125833113,0.0027594332805963846
6805.366570349653,0.0024523728553076315,0.002751201146866269
6805.367570121575,0.0024829502741437544,0.002746609641479207
6805.368569893498,0.0025149932756240918,0.0027456107237957277
6805.36956966542,0.002548137390156389,0.0027480964470910666
6805.370569437344,0.0025820230751901073,0.002753901489621046
6805.371569209266,0.0026163014325317883,0.0027628066031016546
6805.372568981189,0.0026506394873687094,0.0027745429274549306
6805.373568753112,0.002684724980203613,0.0027887970991789415
6805.374568525034,0.0027182706264487757,0.002805217059234652
6805.375568296957,0.0027510177988354155,0.0028234184522674733
6805.37656806888,0.0027827395830485597,0.0028429915126784474
6805.377567840803,0.002813243146498664,0.0028635083505183525
6805.378567612725,0.00284237134668323,0.0028845305576955223
6805.379567384648,0.0028700034970221143,0.002905617033716827
6805.380567156571,0.0028960552118636814,0.002926331887866326
6805.381566928494,0.002920477273693569,0.0029462522331481357
6805.382566700417,0.002943253511575404,0.00296497566078032
6805.383566472339,0.002964397749176775,0.002982127179994563
6805.384566244262,0.002983949949975623,0.002997365433781293
6805.385566016184,0.0030019717287991994,0.0030103880536567628
6805.386565788108,0.0030185414066812412,0.003020936069145291
6805.38756556003,0.003033748772822709,0.003028797309433495
6805.388565331953,0.0030476897038747212,0.0030338087277758745
6805.389565103876,0.003060460799342318,0.0030358575827755955
6805.390564875798,0.003072154227042378,0.0030348814570860614
6805.391564647722,0.003082853006654012,0.003030867175808956
6805.392564419644,0.0030926269572377763,0.003023848770949511
6805.393564191567,0.003101529489984675,0.0030139046978764133
6805.394563963489,0.0031095953654162417,0.003001154533086314
6805.395563735412,0.0031168394815492707,0.0029857553648662536
6805.396563507335,0.003123256725275402,0.0029678980315553183
6805.397563279258,0.0031288228988795613,0.0029478032836706973
6805.398563051181,0.003133496712252739,0.0029257178768291245
6805.399562823103,0.0031372227866031136,0.002901910565660729
6805.400562595026,0.003139935538964569,0.002876667967499817
6805.401562366948,0.003141563729611386,0.0028502902880906903
6805.402562138872,0.0031420353889569817,0.002823086935547384
6805.403561910794,0.003141282812247114,0.0027953720764052376
6805.404561682717,0.003139247313410549,0.002767460197570873
6805.40556145464,0.003135883453363392,0.002739661733176686
6805.406561226562,0.0031311625037804144,0.002712278804609415
6805.407560998485,0.003125074980985557,0.0026856011089602715
6805.408560770408,0.0031176321766316793,0.0026599019762663352
6805.409560542331,0.003108866695434597,0.0026354346054543783
6805.410560314253,0.003098832066490817,0.002612428497227528
6805.411560086176,0.0030876015270375878,0.0025910861404115477
6805.412559858099,0.0030752660977699073,0.0025715800663916556
6805.413559630022,0.003061932083565001,0.0025540504291741402
6805.414559401945,0.003047718145371524,0.0025386032632492873
6805.415559173867,0.003032752097067788,0.0025253095193181973
6805.41655894579,0.003017167578834247,0.002514204910672068
6805.417558717712,0.0030011007446332717,0.002505290548170103
6805.418558489636,0.002984687086927768,0.0024985343031017795
6805.419558261558,0.0029680585159493076,0.002493872806205042
6805.420558033481,0.002951340806941119,0.002491213967016949
6805.421557805404,0.002934651514507052,0.0024904398860301257
6805.422557577326,0.002918098423189178,0.0024914100272961366
6805.42355734925,0.0029017785565225995,0.002493964508133983
6805.424557121172,0.002885777707701813,0.002497927348704914
6805.425556893095,0.0028701704044944796,0.0025031095278421683
6805.426556665017,0.00285502020494992,0.0025093117252649607
6805.42755643694,0.0028403802393496195,0.0025163266900625884
6805.428556208863,0.00282629394174081,0.002523941249793542
6805.429555980786,0.002812795931521562,0.0025319380461353716
6805.430555752709,0.002799913014762637,0.0025400971297106847
6805.431555524631,0.002787665285043934,0.0025481975553610942
6805.432555296554,0.0027760673132676056,0.0025560190940259295
6805.433555068476,0.0027651294167839115,0.0025633441376804607
6805.4345548404,0.0027548589846261165,0.002569959842080077
6805.435554612322,0.0027452618108326356,0.002575660537388604
6805.436554384245,0.0027363433653941924,0.0025802504295154784
6805.437554156168,0.0027281099302510444,0.0025835465978926546
6805.43855392809,0.0027205695508925177,0.002585382256696006
6805.439553700014,0.0027137327880960398,0.002585610189135305
6805.440553471936,0.002707613285170171,0.0025841062065368927
6805.441553243859,0.0027022281907323645,0.002580772447324124
6805.442553015781,0.0026975984879546145,0.002575540329925488
6805.443552787704,0.0026937492660054027,0.002568373009028667
6805.444552559628,0.0026907099312952574,0.0025592672399252386
6805.44555233155,0.002688514309183618,0.002548254603107504
6805.446552103473,0.0026872005392414343,0.0025354020616296514
6805.447551875395,0.002686810634996173,0.0025208118225809287
6805.448551647318,0.0026873895944074873,0.002504620474415222
6805.44955141924,0.002688984018452406,0.0024869973894719585
6805.450551191164,0.0026916402790605693,0.0024681424120206762
6805.451550963086,0.002695402324877624,0.0024482828864835567
6805.452550735009,0.002700309224646405,0.0024276701103477932
6805.453550506932,0.0027063925595378815,0.0024065753099604993
6805.454550278854,0.0027136738042174403,0.0023852852281756464
6805.455550050778,0.002722161864094794,0.0023640973963472687
6805.4565498227,0.0027318509399586353,0.0023433151627244007
6805.457549594623,0.0027427188655308144,0.002323242566664292
6805.458549366545,0.0027547260227865004,0.0023041791703043183
6805.459549138468,0.002767814905593471,0.002286414984132734
6805.460548910391,0.0027819103781232587,0.0022702256536294395
6805.461548682314,0.0027969206420638934,0.0022558680985394213
6805.462548454237,0.0028127388755166765,0.00224357679096503
6805.463548226159,0.002829245453680976,0.0022335608125782134
6805.464547998082,0.002846310630473977,0.0022260017570276394
6805.465547770004,0.0028637975547284103,0.0022210524652622543
6805.466547541928,0.0028815654991176222,0.0022188365193145897
6805.46754731385,0.002899473177657107,0.0022194483810475943
6805.468547085773,0.002917382016357009,0.0022229540382449147
6805.469546857696,0.0029351592335819777,0.0022293919968703474
6805.470546629618,0.002952680589720395,0.0022387744345200044
6805.471546401542,0.002969832674860117,0.00225108832796448
6805.472546173464,0.002986514618476152,0.0022662964115566855
6805.473545945387,0.0030026391405597605,0.002284337908753505
6805.474545717309,0.003018132924370678,0.0023051290678419312
6805.475545489232,0.003032936357434683,0.0023285635824170817
6805.476545261156,0.0030470027328868957,0.0023545129765152836
6805.477545033078,0.0030602970203128126,0.002382827011858831
6805.478544805001,0.0030727943210145966,0.002413334163200743
6805.479544576923,0.003084478141511571,0.0024458422078506696
6805.480544348846,0.0030953386536339443,0.0024801389665896055
6805.481544120768,0.003105371129262784,0.0025159932126538323
6805.482543892692,0.0031145747082787314,0.0025531557520613642
6805.483543664614,0.0031229515786906003,0.0025913606829668584
6805.484543436537,0.0031305065502595926,0.00263032685700087
6805.48554320846,0.003137246925584911,0.0026697595793839296
6805.486542980382,0.0031431825437010564,0.0027093525833755024
6805.487542752306,0.003148325900919651,0.0027487902881402765
6805.488542524228,0.0031526923198357828,0.0027877503087024025
6805.489542296151,0.0031563001878646612,0.002825906166569297
6805.490542068073,0.0031591712812514905,0.0028629301716718587
6805.491541839996,0.003161331140447596,0.002898496488940828
6805.49254161192,0.003162809412382864,0.0029322844228571714
6805.493541383842,0.0031636400548317183,0.0029639819325585526
6805.494541155765,0.0031638613108095786,0.0029932893459527266
6805.495540927687,0.0031635153975167482,0.0030199232002360962
6805.49654069961,0.003162647897925864,0.003043620112268925
6805.497540471533,0.003161306874014364,0.0030641405768115798
6805.498540243456,0.003159541738312562,0.0030812726005274285
6805.499540015378,0.003157401947664443,0.0030948350993013785
6805.500539787301,0.0031549356336826925,0.003104681007594749
6805.501539559224,0.003152188337311249,0.00311070006594252
6805.502539331146,0.0031492020286324786,0.003112821266551547
6805.50353910307,0.003146014540290877,0.0031110149484820074
6805.504538874992,0.0031426594333632263,0.0031052945424457513
6805.505538646915,0.003139166192374256,0.0030957179707658054
6805.506538418837,0.003135560564082559,0.0030823887137542095
6805.50753819076,0.0031318648392520054,0.003065456561393873
6805.508537962684,0.003128097915076345,0.0030451180716846494
6805.509537734606,0.0031242750381149796,0.003021616746299916
6805.510537506529,0.003120407195369756,0.0029952429096603526
6805.511537278451,0.0031165001891712424,0.0029663332344389616
6805.512537050374,0.0031125534906527243,0.0029352697906737876
6805.513536822296,0.003108559003581622,0.0029024784356735476
6805.51453659422,0.003104499879702042,0.002868426357605414
6805.515536366142,0.0031003495101869978,0.0028336186425110296
6805.516536138065,0.0030960707818603224,0.0027985937977278406
6805.517535909988,0.003091615650094378,0.002763918185872791
6805.51853568191,0.0030869250658725326,0.002730179309699287
6805.519535453834,0.003081929305626931,0.002697977881789423
6805.520535225756,0.0030765487680308214,0.0026679186583671846
6805.521534997679,0.0030706952994359778,0.0026406001374855988
6805.522534769601,0.0030642740833291414,0.0026166033948588265
6805.523534541524,0.003057186089722135,0.0025964804844202157
6805.524534313448,0.0030493310424780313,0.0025807429007215434
6805.52553408537,0.003040610827905936,0.0025698505756300317
6805.526533857293,0.0030309332238836785,0.002564201792242618
6805.527533629215,0.0030202157720400774,0.002564124281405849
6805.528533401138,0.003008389568925484,0.002569867653213963
6805.529533173061,0.0029954027453423632,0.00258159723467227
6805.530532944984,0.002981223443024308,0.0025993893507353072
6805.531532716906,0.002965842166234488,0.0026232280929833845
6805.532532488829,0.0029492734571505337,0.00265300363956748
6805.533532260752,0.0029315569001504478,0.00268851218917873
6805.534532032674,0.002912757498002265,0.002729457539715896
6805.535531804598,0.0028929654897082153,0.002775454294403202
6805.53653157652,0.0028722956957474483,0.002826032638797565
6805.537531348443,0.0028508864716782073,0.0028806446130092036
6805.538531120365,0.002828898323745293,0.0029386717951087847
6805.539530892288,0.002806512202964055,0.0029994343013216643
6805.540530664212,0.0027839274619354463,0.0030622009978357764
6805.541530436134,0.002761359443490922,0.003126200808983651
6805.542530208057,0.0027390366793334678,0.0031906349803418233
6805.543529979979,0.002717197704155391,0.003254690098221267
6805.544529751902,0.0026960875202310694,0.0033175515946082166
6805.545529523824,0.0026759537686297315,0.0033784174165252447
6805.546529295748,0.002657042678049298,0.0034365115368415085
6805.54752906767,0.0026395948744314403,0.003491097021966916
6805.548528839593,0.0026238411361085546,0.003541488418178797
6805.549528611516,0.002609998161325173,0.0035870632403151607
6805.550528383438,0.0025982643886873808,0.0036272723308690426
6805.551528155362,0.002588815903415422,0.003661648816661955
6805.552527927284,0.002581802490322425,0.0036898153560736783
6805.553527699207,0.002577343949286904,0.0037114893755534266
6805.554527471129,0.0025755268428272245,0.0037264860588569035
6805.555527243052,0.0025764018721058804,0.003734718971474719
6805.556527014976,0.002579982065126366,0.003736198345574119
6805.557526786898,0.002586241910008951,0.003731027177980221
6805.558526558821,0.0025951174894328554,0.003719395383839349
6805.559526330743,0.0026065075890179387,0.0037015723031341404
6805.560526102666,0.0026202756811359415,0.003677897883500965
6805.561525874589,0.002636252641611636,0.003648772867938392
6805.562525646512,0.002654240044984771,0.0036146483104337102
6805.563525418434,0.0026740138887454087,0.003576014731751267
6805.564525190357,0.0026953285985220417,0.003533391208824265
6805.56552496228,0.00271792117206293,0.003487314668038936
6805.566524734202,0.0027415153544818995,0.0034383296370211385
6805.567524506126,0.0027658257996843027,0.003386978700491205
6805.568524278048,0.002790562229619212,0.003333793883606488
6805.569524049971,0.002815433623427562,0.0032792891334736465
6805.570523821893,0.002840152449239408,0.003223953990710674
6805.571523593816,0.0028644389084884025,0.003168248464189618
6805.57252336574,0.0028880251122548268,0.0031125990720391812
6805.573523137662,0.0029106590574041326,0.0030573959975723126
6805.574522909585,0.0029321082263460765,0.003002991312622728
6805.575522681507,0.0029521626222675547,0.002949698224095563
6805.57652245343,0.002970637088194004,0.0028977912978930746
6805.577522225353,0.002987372827708259,0.0028475076084229
6805.578521997276,0.003002238117969147,0.002799048746326206
6805.579521769198,0.0030151282670918705,0.002752583585772248
6805.580521541121,0.0030259649164212613,0.0027082516667176772
6805.581521313044,0.0030346948230514,0.0026661669959390628
6805.582521084967,0.00304128828186544,0.002626422031564492
6805.58352085689,0.0030457373630573036,0.002589091609437792
6805.584520628812,0.0030480541418833945,0.002554236597428131
6805.585520400735,0.003048269068638657,0.002521907106213195
6805.586520172657,0.0030464295713774165,0.0024921451280888246
6805.58751994458,0.003042598918472994,0.0024649865228207712
6805.588519716504,0.0030368553044975498,0.002440462326005441
6805.589519488426,0.003029291066119822,0.002418599416443722
6805.590519260349,0.003020011896480139,0.0023994206384905215
6805.591519032271,0.0030091359240029185,0.002382944523541667
6805.592518804194,0.002996792555797312,0.0023691847744244355
6805.593518576117,0.0029831210334732962,0.0023581496574028873
6805.59451834804,0.0029682686865091985,0.0023498414007412953
6805.595518119962,0.0029523888900811163,0.002344255649695812
6805.596517891885,0.002935638745045521,0.0023413809877774337
6805.597517663808,0.0029181765029309666,0.0023411984968184753
6805.59851743573,0.002900158769220135,0.0023436812859879905
6805.599517207654,0.0028817375438190537,0.002348793887506722
6805.600516979576,0.0028630571927827655,0.002356491427070303
6805.601516751499,0.002844251474118268,0.0023667185407211058
6805.602516523421,0.00282544075696723,0.0023794080946243613
6805.603516295344,0.0028067295861241163,0.0023944798241211716
6805.604516067268,0.002788204754734419,0.0024118390243256897
6805.60551583919,0.0027699340416677087,0.002431375408641891
6805.606515611113,0.0027519657345461087,0.0024529622281086834
6805.607515383035,0.002734329004033297,0.0024764557285656195
6805.608515154958,0.002717035136443114,0.0025016950123622973
6805.609514926881,0.0027000795777871547,0.002528502361950475
6805.610514698804,0.002683444694668431,0.00255668407756744
6805.611514470726,0.0026671031169544406,0.0025860318789815593
6805.612514242649,0.0026510214925633746,0.0026163249105157346
6805.613514014572,0.002635164452206944,0.0026473323625670784
6805.614513786495,0.002619498553175731,0.002678816685358039
6805.615513558418,0.0026039959564488823,0.002710537332364561
6805.61651333034,0.002588637598535457,0.002742254943810033
6805.617513102263,0.0025734156501634685,0.0027737358645281256
6805.618512874185,0.0025583351144851155,0.0028047568739586574
6805.619512646108,0.0025434145142260024,0.002835109985991874
6805.620512418032,0.002528685733872018,0.0028646071568776163
6805.621512189954,0.0025141931780971625,0.0028930847196782035
6805.622511961877,0.002499992444125136,0.0029204073518994973
6805.623511733799,0.002486148681180944,0.002946471402199335
6805.624511505722,0.0024727347543182935,0.0029712074572627077
6805.625511277645,0.0024598292746304644,0.0029945820865410716
6805.626511049568,0.0024475145198420683,0.00301659872201831
6805.62751082149,0.0024358742569598867,0.0030372976173362338
6805.628510593413,0.0024249914959089047,0.003056754826987984
6805.629510365336,0.0024149462411052714,0.0030750801768456406
6805.630510137259,0.0024058133454625354,0.0030924142478604036
6805.631509909182,0.0023976605886123466,0.0031089244427078668
6805.632509681104,0.002390547090594537,0.0031248002400673987
6805.633509453027,0.002384522135824302,0.003140247755693018
6805.634509224949,0.002379624426357681,0.0031554837190472117
6805.635508996873,0.0023758817235549675,0.0031707289485334894
6805.636508768796,0.0023733107955285805,0.0031862013883858687
6805.637508540718,0.0023719175763374967,0.00320210877254256
6805.638508312641,0.0023716974532950676,0.003218641005459297
6805.639508084563,0.0023726356158593237,0.0032359623943446023
6805.640507856486,0.00237470741577897,0.00325420394185422
6805.641507628409,0.0023778786999193863,0.0032734560072370266
6805.642507400332,0.0023821060825849013,0.0032937617190121555
6805.643507172254,0.0023873371272282377,0.0033151115260957806
6805.644506944177,0.0023935104134224536,0.003337439216069363
6805.6455067161,0.0024005554775269537,0.0033606196544443013
6805.646506488023,0.002408392641626438,0.0033844684318638553
6805.647506259946,0.0024169327835890726,0.0034087435387619575
6805.648506031868,0.0024260771307930517,0.003433149105145358
6805.649505803791,0.0024357171662399107,0.0034573411440915252
6805.650505575713,0.0024457347286273128,0.0034809351265170656
6805.651505347636,0.0024560023799403774,0.003503515101220723
6805.65250511956,0.002466384103030036,0.003524643971829189
6805.653504891482,0.0024767363749975545,0.0035438744701849
6805.654504663405,0.0024869096423587563,0.0035607603473905747
6805.655504435327,0.002496750201282399,0.003574867350415986
6805.65650420725,0.0025061024660121348,0.0035857836379391194
6805.657503979173,0.0025148116012007338,0.0035931293627953042
6805.658503751096,0.002522726493804079,0.003596565187295874
6805.659503523018,0.0025297030234478924,0.003595799529051006
6805.660503294941,0.0025356075470164318,0.0035905943931803996
6805.661503066864,0.0025403204710616385,0.0035807697329049686
6805.662502838787,0.002543739783123497,0.0035662063709733104
6805.66350261071,0.0025457844526512825,0.0035468475851400945
6805.664502382632,0.0025463976540751596,0.003522699495706835
6805.665502154555,0.00254554977131729,0.0034938303887005902
6805.666501926477,0.002543241114890799,0.003460369081114766
6805.667501698401,0.002539504242396989,0.003422502414084413
6805.668501470324,0.0025344057375032932,0.0033804719667303723
6805.669501242246,0.0025280472831902628,0.003334570110566558
6805.670501014169,0.002520565875832554,0.0032851355396010216
6805.671500786091,0.0025121330675795797,0.003232548387938585
6805.672500558014,0.0025029531730063168,0.00317722498806529
6805.673500329937,0.0024932604091511645,0.003119612253071474
6805.67450010186,0.0024833149561657077,0.0030601816146914895
6805.675499873782,0.0024733979472773746,0.0029994224470661305
6805.676499645705,0.0024638054374766624,0.0029378349677289446
6805.677499417628,0.002454841462645146,0.002875922708845027
6805.678499189551,0.0024468103722139296,0.0028141847430341025
6805.679498961474,0.002440008675161118,0.002753107892298475
6805.680498733396,0.002434716663769125,0.00269315914942223
6805.681498505319,0.0024311900786822935,0.0026347785283872306
6805.682498277241,0.0024296520733742546,0.002578372551342949
6805.683498049164,0.0024302857373874817,0.0025243085662127233
6805.684497821088,0.0024332274396483586,0.0024729100574110924
6805.68549759301,0.002438561243236478,0.0024244530615842416
6805.686497364933,0.002446314617837307,0.002379163741698943
6805.687497136855,0.002456455644109154,0.0023372171210306746
6805.688496908778,0.002468891868498276,0.0022987369439397523
6805.689496680701,0.002483470918637451,0.002263796609831307
6805.690496452624,0.0024999829256383715,0.0022324211050231938
6805.691496224546,0.002518164733946496,0.002204589820267607
6805.692495996469,0.0025377058246223157,0.002180240090790544
6805.693495768392,0.002558255828918558,0.002159271252224347
6805.694495540315,0.002579433449711027,0.0021415489993741694
6805.695495312238,0.0026008365310153394,0.0021269098746106115
6805.69649508416,0.002622052932087382,0.002115165771042354
6805.697494856083,0.002642671795249405,0.0021061083763536347
6805.698494628005,0.0026622947645715913,0.0020995134997013527
6805.699494399929,0.0026805467255115105,0.0020951452335523217
6805.700494171852,0.002697085691193335,0.002092759920605019
6805.701493943774,0.0027116115412172672,0.002092109931669472
6805.702493715697,0.0027238734011175466,0.0020929473122888653
6805.703493487619,0.002733675523137596,0.002095027403021213
6805.704493259542,0.002740881589436497,0.002098112548585507
6805.705493031465,0.002745417408733681,0.0021019759691191103
6805.706492803388,0.0027472720221093138,0.00210640578808917
6805.70749257531,0.0027464972741894837,0.00211120912728046
6805.708492347233,0.002743205936607626,0.0021162161150527796
6805.709492119156,0.0027375684963153236,0.0021212836228087528
6805.710491891079,0.002729808760501657,0.002126298547642319
6805.711491663002,0.002720198485974657,0.002131180483649149
6805.712491434924,0.0027090512864862463,0.0021358836506551555
6805.713491206847,0.002696716075682902,0.0021403979663241887
6805.714490978769,0.002683570261918267,0.002144749158416305
6805.715490750693,0.0026700128421447487,0.0021489978273101294
6805.716490522616,0.0026564574672018246,0.0021532373960830905
6805.717490294538,0.0026433254893518535,0.0021575909391128682
6805.718490066461,0.0026310389697809695,0.002162206964855483
6805.719489838383,0.0026200136228213596,0.0021672543268827452
6805.720489610307,0.0026106516984128205,0.0021729165140831367
6805.721489382229,0.0026033348467831784,0.0021793856012049914
6805.722489154152,0.0025984170606989845,0.0021868561306122355
6805.723488926074,0.0025962178376137224,0.0021955191653432967
6805.724488697997,0.002597015733775046,0.0022055567117504
6805.72548846992,0.0026010424868927887,0.002217136662340259
6805.726488241843,0.0026084778599760406,0.0022304083708583754
6805.727488013766,0.002619445315029805,0.0022454989506701852
6805.728487785688,0.0026340085842453103,0.0022625103678924653
6805.729487557611,0.0026521691877320415,0.002281517362905878
6805.730487329533,0.0026738649523024563,0.002302566185703897
6805.731487101457,0.0026989695997320993,0.002325674097538201
6805.73248687338,0.002727293469757784,0.0023508295843369955
6805.733486645302,0.0027585854070636714,0.00237799323475634
6805.734486417225,0.0027925357901821264,0.0024070992382104815
6805.735486189147,0.002828780650411322,0.0024380574390705833
6805.73648596107,0.002866906830124621,0.0024707558361417663
6805.737485732993,0.002906458131943469,0.002505063359221629
6805.738485504916,0.002946942381828443,0.0025408327232160246
6805.739485276838,0.0029878392740076178,0.0025779031735713334
6805.740485048761,0.0030286088204874713,0.0026161029737885202
6805.741484820684,0.003068700228079988,0.0026552515157693634
6805.742484592607,0.003107561065932783,0.0026951609571111545
6805.74348436453,0.003144646618833506,0.0027356373314051737
6805.744484136452,0.003179429304623397,0.002776481148276067
6805.745483908375,0.00321140797510868,0.0028174875774626264
6805.746483680297,0.003240116864028599,0.002858446364194453
6805.747483452221,0.0032651339306277705,0.002899141639913159
6805.748483224144,0.0032860883725157695,0.0029393517841999643
6805.749482996066,0.003302667122812807,0.002978849473261793
6805.750482767989,0.0033146201953419023,0.003017402019193627
6805.751482539911,0.003321764804308943,0.0030547720649199356
6805.752482311835,0.003323988248192375,0.0030907186663461502
6805.753482083757,0.0033212495831722684,0.003124998779791036
6805.75448185568,0.0033135801175682893,0.0031573691760068724
6805.755481627602,0.0033010827577729844,0.0031875888065045024
6805.756481399525,0.003283930235177934,0.00321542164607201
6805.757481171448,0.003262362233009948,0.003240640031199983
6805.758480943371,0.003236681415431693,0.003263028502167329
6805.759480715294,0.0032072483577073496,0.003282388116899278
6805.760480487216,0.003174475397565841,0.003298541131863223
6805.761480259139,0.003138819469849805,0.003311335867478723
6805.762480031061,0.003100774036795626,0.0033206515320594295
6805.763479802985,0.003060860275990834,0.0033264027859397907
6805.764479574907,0.0030196177369662125,0.0033285438725388257
6805.76547934683,0.002977594723247767,0.003327072191186019
6805.766479118753,0.002935338682673266,0.003322031197929907
6805.767478890675,0.0028933868756649277,0.003313512482235454
6805.768478662598,0.0028522575427840638,0.0033016568202545982
6805.769478434521,0.002812441738590665,0.0032866540159060932
6805.770478206444,0.0027743959666126404,0.0032687414320542335
6805.771477978366,0.0027385357411248393,0.0032482012412184762
6805.772477750289,0.0027052301947041073,0.0032253565328328486
6805.773477522212,0.002674797828948857,0.003200566487694653
6805.774477294135,0.002647503467932092,0.003174220877048054
6805.775477066058,0.0026235564282107854,0.00314673415186233
6805.77647683798,0.0026031098720791317,0.0031185393397454232
6805.777476609903,0.0025862612612616766,0.0030900818776769265
6805.778476381825,0.00257305377728167,0.003061813421329005
6805.779476153749,0.0025634785374765287,0.003034185620310072
6805.780475925671,0.0025574774334553812,0.0030076438377361256
6805.781475697594,0.0025549464555801146,0.0029826208021629993
6805.782475469517,0.0025557394212192804,0.002959530188863567
6805.783475241439,0.0025596720698979844,0.0029387601380234914
6805.784475013363,0.002566526512325668,0.0029206667531491252
6805.785474785285,0.0025760560150796473,0.0029055676981080123
6805.786474557208,0.0025879900633120428,0.002893736105707247
6805.78747432913,0.0026020395871884983,0.0028853950759071133
6805.788474101053,0.002617902202996918,0.002880713035934859
6805.789473872976,0.0026352673354272118,0.0028798001592498946
6805.790473644899,0.0026538211479126095,0.0028827059393058403
6805.791473416822,0.002673251278796701,0.002889417933990983
6805.792473188744,0.0026932514213979606,0.0028998616519266673
6805.793472960667,0.002713525778521573,0.0029139015257644055
6805.794472732589,0.0027337933845137177,0.002931342888133098
6805.795472504513,0.0027537922463094517,0.0029519348280107427
6805.796472276435,0.002773283216397473,0.0029753737744018945
6805.797472048358,0.0027920534771272154,0.0030013076509451155
6805.798471820281,0.0028099195042125824,0.0030293404797808485
6805.799471592203,0.0028267294051130525,0.003059037379591653
6805.800471364127,0.002842364583927711,0.0030899299779987392
6805.801471136049,0.0028567407312214523,0.003121522311076684
6805.802470907972,0.002869808150447253,0.003153297291198919
6805.803470679894,0.002881551427956579,0.0031847237873566673
6805.804470451817,0.002891988463314032,0.003215264295995629
6805.8054702237405,0.0029011689068780743,0.0032443831145690235
6805.806469995663,0.002909172077138823,0.0032715548938258296
6805.807469767586,0.0029161044258840477,0.0032962734447234553
6805.808469539508,0.0029220965843304012,0.0033180606847990103
6805.809469311431,0.0029272999815941306,0.00333647559035735
6805.810469083353,0.002931883008256951,0.003351122965212581
6805.811468855277,0.002936026716054858,0.0033616617682285387
6805.812468627199,0.0029399200889004026,0.0033678126941399903
6805.813468399122,0.0029437549664361063,0.0033693646949537765
6805.814468171045,0.002947720729346146,0.00336618016689936
6805.815467942967,0.0029519988630415835,0.003358198605427958
6805.816467714891,0.0029567575194892077,0.003345438630230099
6805.817467486813,0.0029621462148218818,0.0033279983699215036
6805.818467258736,0.0029682908325401923,0.003306054241978962
6805.819467030658,0.0029752891289671823,0.003279858166700863
6805.820466802581,0.002983206941685747,0.003249733237196662
6805.821466574504,0.0029920752825103184,0.0032160678529059264
6805.822466346427,0.003001888463944747,0.003179308329701838
6805.82346611835,0.0030126033674771338,0.0031399500439323203
6805.824465890272,0.003024139911964079,0.0030985272514045953
6805.825465662195,0.0030363827218261247,0.003055601814761035
6805.826465434117,0.0030491839368233967,0.0030117511413946035
6805.827465206041,0.003062367058092249,0.0029675556731232834
6805.828464977963,0.00307573169137835,0.002923586287694489
6805.829464749886,0.0030890590229364257,0.002880391976339127
6805.830464521809,0.0031021178402949458,0.0028384881513588947
6805.831464293731,0.0031146708882813456,0.0027983459118266435
6805.832464065655,0.003126481340640617,0.0027603825548293296
6805.833463837577,0.0031373191863976317,0.002724953571465472
6805.8344636095,0.003146967381761993,0.002692346318713209
6805.835463381422,0.00315522767802965,0.0026627755092458417
6805.836463153345,0.003161926063330552,0.0026363806074244265
6805.8374629252685,0.003166917730160546,0.002613225166363851
6805.838462697191,0.0031700914236390734,0.002593298096633641
6805.839462469114,0.0031713729896829814,0.0025765168204781143
6805.840462241036,0.0031707279645873656,0.002562732229874269
6805.841462012959,0.0031681631171612333,0.0025517353308186037
6805.842461784881,0.003163726931802159,0.002543265419607799
6805.843461556805,0.0031575090747434395,0.002537019593762505
6805.844461328727,0.003149638905911064,0.0025326633463904277
6805.84546110065,0.003140283091714239,0.0025298419372190833
6805.846460872573,0.003129642360857623,0.0025281921946189445
6805.847460644495,0.003117947450040448,0.0025273543881638052
6805.848460416419,0.0031054543164965574,0.0025269838094851443
6805.849460188341,0.0030924387377838734,0.0025267617010481776
6805.850459960264,0.0030791904622239747,0.0025264051873775005
6805.851459732186,0.0030660071103255546,0.002525675905325787
6805.852459504109,0.003053188050585512,0.002524387096480527
6805.8534592760325,0.0030410284669405135,0.0025224089954880035
6805.854459047955,0.003029813794330259,0.0025196724042307354
6805.855458819878,0.003019814637340486,0.002516170385224148
6805.8564585918,0.0030112822245349745,0.002511958054964116
6805.857458363723,0.0030044444049675974,0.0025071505164988494
6805.858458135646,0.0029995021750923597,0.002501919032322095
6805.859457907569,0.0029966267273126993,0.002496485596104326
6805.860457679491,0.002995957016089852,0.0024911161129657446
6805.861457451414,0.002997597836522577,0.0024861124406412136
6805.862457223337,0.0030016184125308027,0.0024818035718910925
6805.863456995259,0.0030080515052193254,0.0024785362435366005
6805.864456767183,0.0030168930709736095,0.002476665235395714
6805.865456539105,0.0030281025029306485,0.0024765435818827107
6805.866456311028,0.0030416034602648444,0.0024785128817351966
6805.86745608295,0.003057285231812841,0.002482893876788708
6805.868455854873,0.0030750045203458945,0.0024899774774198072
6805.8694556267965,0.0030945875014970654,0.002500016419388463
6805.870455398719,0.003115832026690451,0.00251321773003155
6805.871455170642,0.003138509902779637,0.0025297361664705876
6805.872454942564,0.003162369265462787,0.0025496687708044747
6805.873454714487,0.0031871371222144777,0.002573050661093435
6805.874454486409,0.0032125221411557587,0.002599852138432657
6805.875454258333,0.0032382177150229777,0.002629977145583417
6805.876454030255,0.003263905274994903,0.002663263070363287
6805.877453802178,0.0032892578047225103,0.0026994818610409166
6805.878453574101,0.003313943519827713,0.002738342425404242
6805.879453346023,0.0033376297132499014,0.0027794943121093414
6805.880453117947,0.0033599867947672725,0.0028225326908597153
6805.881452889869,0.0033806925612008907,0.0028670046286603935
6805.882452661792,0.0033994367263897166,0.0029124165964229025
6805.883452433714,0.0034159257210416086,0.0029582430493993576
6805.884452205637,0.003429887737332113,0.003003935834407617
6805.8854519775605,0.003441077938263422,0.003048934108919296
6805.886451749483,0.0034492836825858867,0.003092674422737343
6805.887451521406,0.00345432954448985,0.0031346006243879437
6805.888451293328,0.0034560818551918754,0.0031741733205664607
6805.889451065251,0.0034544524850498807,0.003210878717219719
6805.890450837174,0.0034494016189755613,0.003244236756691324
6805.891450609097,0.0034409393319837665,0.003273808504780491
6805.892450381019,0.003429125841405747,0.003299202747203844
6805.893450152942,0.0034140704122452192,0.0033200817631328355
6805.894449924865,0.0033959290087358187,0.0033361662743051405
6805.895449696787,0.0033749008676180483,0.0033472396061785376
6805.896449468711,0.0033512241821645797,0.0033531511087311425
6805.897449240633,0.0033251710508023255,0.003353818850799638
6805.898449012556,0.0032970418115924804,0.003349231534389368
6805.899448784478,0.0032671588875210593,0.0033394495030385544
6805.900448556401,0.0032358603038803095,0.0033246046726560863
6805.9014483283245,0.003203493079374118,0.003304899212025064
6805.902448100247,0.0031704067095011585,0.0032806028386773507
6805.90344787217,0.0031369469512220085,0.0032520486608133576
6805.904447644092,0.0031034500999714072,0.003219627580760799
6805.905447416015,0.0030702379362878836,0.0031837813728430447
6805.906447187937,0.003037613503335828,0.0031449946374947978
6805.907446959861,0.0030058578449208414,0.0031037858893836886
6805.908446731783,0.0029752277808994605,0.0030606980553980552
6805.909446503706,0.002945954728129701,0.003016288654355708
6805.910446275629,0.0029182444983396824,0.002971119918585669
6805.911446047551,0.002892277926905851,0.0029257491029751293
6805.912445819475,0.002868212119454508,0.0028807192113807097
6805.913445591397,0.0028461820637253024,0.0028365503507712594
6805.91444536332,0.0028263023572945127,0.0027937318934298937
6805.915445135242,0.0028086688460027247,0.002752715588044422
6805.916444907165,0.002793360035725795,0.0027139097213330393
6805.9174446790885,0.002780438212833935,0.0026776743979145456
6805.918444451011,0.0027699502714743107,0.0026443179732275495
6805.919444222934,0.002761928285360172,0.0026140946370439362
6805.920443994856,0.002756389874008957,0.0025872031049006174
6805.921443766779,0.002753338405738121,0.0025637863424421733
6805.922443538702,0.0027527630577121663,0.002543932233214324
6805.923443310625,0.002754638716790771,0.0025276750989257717
6805.924443082547,0.0027589256610985914,0.002514997979258014
6805.92544285447,0.002765568933981944,0.002505835572214667
6805.926442626393,0.002774497338124922,0.0025000777334383355
6805.927442398315,0.0027856220475886906,0.0024975734408268025
6805.928442170239,0.00279883492946257,0.002498135147805969
6805.929441942161,0.0028140067321196878,0.0025015434669726985
6805.930441714084,0.002830985307342701,0.0025075521374124826
6805.931441486006,0.0028495940120416147,0.002515893232154108
6805.932441257929,0.002869630421159138,0.0025262825615665527
6805.9334410298525,0.0028908654892122907,0.0025384252246671225
6805.934440801775,0.0029130433106642124,0.0025520212488895602
6805.935440573698,0.00293588163322619,0.0025667712447003128
6805.93644034562,0.0029590732610591387,0.002582381997273786
6805.937440117543,0.0029822884403237267,0.002598571922025295
6805.938439889466,0.003005178258982539,0.002615076305172343
6805.939439661389,0.0030273790408846014,0.002631652222503213
6805.940439433311,0.0030485176831464215,0.002648082991273396
6805.941439205234,0.003068217863306172,0.0026641819846721882
6805.942438977157,0.003086107009036955,0.0026797956375640957
6805.94343874908,0.003101823874811698,0.0026948054956932484
6805.944438521003,0.00311502652262747,0.0027091292056288367
6805.945438292925,0.003125400474773507,0.002722720404861554
6805.946438064848,0.003132666800326357,0.0027355675403103277
6805.94743783677,0.003136589912574854,0.002747691705992515
6805.948437608693,0.0031369848879861223,0.002759143634164204
6805.9494373806165,0.00313372414858702,0.00276999999097195
6805.950437152539,0.0031267433487335004,0.002780359122045526
6805.951436924462,0.0031160462683547693,0.002790336380334174
6805.952436696384,0.0031017084690147067,0.002800059160640111
6805.953436468307,0.003083879454245455,0.002809661766245547
6805.95443624023,0.0030627831062392326,0.0028192802375481885
6805.955436012153,0.0030387162378650626,0.0028290472726498982
6805.956435784075,0.0030120451754393086,0.0028390873654899644
6805.957435555998,0.0029832003419714083,0.0028495122879674535
6805.958435327921,0.0029526688385322964,0.00286041705301577
6805.959435099843,0.0029209850616653027,0.0028718765063771054
6805.960434871767,0.0028887194886293194,0.0028839426895979937
6805.961434643689,0.0028564659010815495,0.0028966430818511647
6805.962434415612,0.002824827446336372,0.0029099797594753264
6805.963434187534,0.0027944020075403907,0.002923929422998213
6805.964433959457,0.0027657673750791168,0.0029384441663501846
6805.9654337313805,0.002739466717091444,0.002953452840928556
6805.966433503303,0.0027159948509976493,0.0029688629059698448
6805.967433275226,0.0026957857994543634,0.002984562718258902
6805.968433047148,0.0026792020544459203,0.0030004242454586775
6805.969432819071,0.0026665258814923894,0.0030163061632305544
6805.970432590994,0.0026579528945986134,0.0030320572343251707
6805.971432362917,0.002653588038797606,0.0030475198107014546
6805.972432134839,0.002653444039754106,0.0030625332855258864
6805.973431906762,0.002657442314802843,0.0030769373620222035
6805.974431678685,0.002665416271845959,0.003090575080050928
6805.975431450608,0.0026771168473378585,0.0031032956086938786
6805.976431222531,0.002692220070565007,0.003114956843730545
6805.977430994453,0.002710336405283937,0.0031254278451497367
6805.978430766376,0.002731021599176253,0.0031345911320034446
6805.979430538298,0.0027537887382422474,0.003142344830648511
6805.980430310221,0.0027781211482588554,0.0031486046478911367
6805.9814300821445,0.0028034857306298523,0.0031533056117870268
6805.982429854067,0.0028293462964542734,0.003156403487827466
6805.98342962599,0.002855176479557341,0.0031578757412899392
6805.984429397912,0.0028804718450055416,0.0031577218992399226
6805.985429169835,0.0029047608423606905,0.003155963193157781
6805.986428941758,0.002927614293180521,0.0031526414340158296
6805.987428713681,0.0029486531773584125,0.0031478171498328274
6805.988428485603,0.0029675545931610093,0.0031415670580534566
6805.989428257526,0.0029840558761128903,0.0031339809405848316
6805.990428029449,0.002997956937564655,0.0031251579771307677
6805.991427801372,0.00300912092422329,0.003115202632303535
6805.992427573295,0.0030174733308267285,0.003104220296911052
6805.993427345217,0.003022999736105035,0.003092312991115755
6805.99442711714,0.00302574236986642,0.0030795754735674433
6805.995426889062,0.003025795742876453,0.003066092058671049
6805.996426660986,0.0030233015751541695,0.0030519343651156444
6805.9974264329085,0.0030184432423615397,0.003037160131582333
6805.998426204831,0.0030114399304619426,0.0030218131451861217
6805.999425976754,0.003002540658364545,0.003005924236467103
6806.000425748676,0.002992018305518901,0.002989513207223504
6806.001425520599,0.0029801637609697977,0.0029725914856993073
6806.002425292522,0.0029672802787607576,0.002955165263581361
6806.003425064445,0.0029536780778689066,0.002937238862211973
6806.004424836367,0.002939669172294884,0.002918818082012951
6806.00542460829,0.002925562370156513,0.002899913300256053
6806.006424380213,0.0029116583552546535,0.0028805421146961612
6806.007424152136,0.002898244782861383,0.002860731393543352
6806.008423924059,0.0028855913906555564,0.002840518667183846
6806.009423695981,0.0028739452213956294,0.0028199528652771404
6806.010423467904,0.0028635261398282617,0.0027990944619946958
6806.011423239826,0.0028545228803803576,0.002778015134897722
6806.012423011749,0.0028470898751905916,0.002756797054817967
6806.0134227836725,0.00284134507774629,0.002735531909690512
6806.014422555595,0.002837368918729228,0.002714319745354411
6806.015422327518,0.002835204429249808,0.0026932676870183646
6806.01642209944,0.002834858476353876,0.0026724885743964273
6806.017421871363,0.002836304001789389,0.0026520994982349023
6806.018421643286,0.002839483133075375,0.0026322201863262728
6806.019421415209,0.0028443110174861965,0.0026129711798265807
6806.020421187131,0.002850680197035098,0.0025944717694233337
6806.021420959054,0.0028584653056830662,0.0025768377023071124
6806.022420730977,0.002867527845408864,0.002560178702948871
6806.0234205029,0.0028777207928593258,0.0025445958719802955
6806.024420274823,0.0028888928048639998,0.0025301790464985533
6806.025420046745,0.0029008918254278407,0.002517004224988912
6806.026419818668,0.0029135679429419976,0.0025051311772007756
6806.02741959059,0.002926775409378111,0.0024946013697911846
6806.028419362514,0.00294037382139436,0.002485436340868305
6806.0294191344365,0.0029542285624540973,0.0024776366479541782
6806.030418906359,0.0029682106828091506,0.0024711814906021264
6806.031418678282,0.0029821964284727025,0.002466029072267488
6806.032418450204,0.0029960666210785735,0.0024621177222000808
6806.033418222127,0.0030097060529236906,0.0024593677538628116
6806.03441799405,0.0030230030141503586,0.0024576839976983974
6806.035417765973,0.0030358490241741416,0.0024569589156609307
6806.036417537895,0.003048138804084508,0.002457076181467176
6806.037417309818,0.003059770502255306,0.0024579145934852096
6806.038417081741,0.003070646160504263,0.0024593521776693785
6806.039416853664,0.0030806723729847225,0.0024612703360819997
6806.040416625587,0.0030897610593252256,0.002463557904771332
6806.041416397509,0.0030978302732312213,0.002466115007662488
6806.042416169432,0.003104805002818471,0.002468856624935903
6806.043415941354,0.0031106179709532726,0.0024717158139713606
6806.044415713277,0.0031152104902632373,0.0024746465114123314
6806.0454154852005,0.0031185334507248005,0.002477625816641719
6806.046415257123,0.0031205485049124785,0.002480655638331618
6806.047415029046,0.003121229465238022,0.002483763590425864
6806.048414800968,0.0031205638556972264,0.002487003041675921
6806.049414572891,0.0031185544933524474,0.0024904522436705588
6806.050414344814,0.0031152209290733895,0.0024942124931822524
6806.051414116737,0.00311060056095965,0.002498405335370974
6806.052413888659,0.00310474924933639,0.0025031688780881283
6806.053413660582,0.003097741297795843,0.0025086533454199227
6806.054413432505,0.0030896687010531863,0.002515016039810657
6806.055413204428,0.0030806395905369466,0.00252241591008952
6806.056412976351,0.0030707758414517863,0.0025310079419545452
6806.057412748273,0.0030602098487668146,0.0025409375935317217
6806.058412520196,0.0030490805335818424,0.0025523354866494904
6806.059412292118,0.0030375287029421973,0.002565312537460145
6806.060412064042,0.0030256919558374245,0.0025799556741489347
6806.0614118359645,0.003013699399338563,0.0025963242510987166
6806.062411607887,0.00300166648702985,0.002614447236184401
6806.06341137981,0.0029896902880795617,0.0026343212247132842
6806.064411151732,0.00297784543444261,0.002655909315045565
6806.065410923655,0.0029661809046466173,0.0026791408589418963
6806.066410695578,0.0029547177310638444,0.0027039120671055374
6806.067410467501,0.00294344769164285,0.0027300874035130255
6806.068410239423,0.0029323330510849276,0.0027575016458174857
6806.069410011346,0.00292130741149124,0.0027859624408212553
6806.070409783269,0.00291027770509697,0.0028152531691918543
6806.071409555192,0.00289912732988212,0.00284513596644299
6806.072409327115,0.0028877204046986564,0.002875354812050494
6806.073409099037,0.002875907093157032,0.0029056386599668974
6806.07440887096,0.002863529897056208,0.0029357046159776525
6806.075408642882,0.0028504307446807274,0.0029652611674603467
6806.076408414806,0.002836458611136439,0.0029940114512540645
6806.0774081867285,0.0028214773324375174,0.0030216565214613326
6806.078407958651,0.0028053732296323152,0.0030478985640284275
6806.079407730574,0.0027880621516907602,0.003072444006193527
6806.080407502496,0.002769495583106001,0.0030950064862839692
6806.08140727442,0.0027496655422259235,0.0031153096736763245
6806.082407046342,0.0027286080984306846,0.003133089951010459
6806.083406818265,0.0027064054299148106,0.0031480989950248587
6806.084406590187,0.0026831864055870858,0.0031601063244979613
6806.08540636211,0.0026591256991874185,0.0031689019116296537
6806.086406134033,0.0026344414477188333,0.0031742989573488485
6806.087405905956,0.002609391481138961,0.003176136908141783
6806.088405677879,0.0025842682011009933,0.003174284752422085
6806.089405449801,0.0025593922693934444,0.0031686445844856656
6806.090405221724,0.002535105349827954,0.003159155363559581
6806.091404993646,0.002511762198461859,0.003145796730798992
6806.09240476557,0.002489722404989417,0.003128592694980366
6806.0934045374925,0.0024693420603968492,0.003107614973279962
6806.094404309415,0.002450965579559583,0.00308298578296722
6806.095404081338,0.002434917861939223,0.003054879919323709
6806.09640385326,0.002421496938206957,0.0030235260077509595
6806.097403625183,0.0024109672201091466,0.0029892068615967726
6806.098403397106,0.002403553444532553,0.0029522589044334324
6806.099403169029,0.002399435394760386,0.0029130706324080667
6806.100402940951,0.0023987434971578367,0.0028720800982649157
6806.101402712874,0.0024015554089835186,0.002829771393578089
6806.102402484797,0.00240789371206395,0.0027866701074858433
6806.10340225672,0.002417724812463369,0.002743337764888694
6806.104402028643,0.0024309591292933294,0.0027003652839063725
6806.105401800565,0.0024474526279263543,0.0026583655222404408
6806.106401572488,0.002467009697692833,0.002617965005026919
6806.10740134441,0.0024893872952764713,0.002579794953151706
6806.108401116334,0.0025143001989647415,0.002544481761609157
6806.1094008882565,0.002541427173650706,0.0025126371065850397
6806.110400660179,0.0025704178403733865,0.002484847884392334
6806.111400432102,0.002600900060116726,0.0024616662009919773
6806.112400204024,0.002632487651902579,0.002443599630167609
6806.113399975948,0.0026647882575632498,0.00243110193902405
6806.11439974787,0.002697411149069468,0.002424564450849534
6806.115399519793,0.0027299747577938177,0.002424308193751797
6806.116399291715,0.002762113687908812,0.002430576975476631
6806.117399063638,0.0027934849674970063,0.0024435315198042366
6806.118398835561,0.0028237733156007403,0.0024632447851859795
6806.119398607484,0.002852695273986584,0.002489698562408955
6806.120398379407,0.002880002149901068,0.0025227814230124163
6806.121398151329,0.0029054818070949977,0.002562288068859299
6806.122397923252,0.002928959404706053,0.0026079201177470644
6806.123397695174,0.002950297208907289,0.002659288351483396
6806.124397467098,0.002969393591057863,0.0027159164506231374
6806.1253972390205,0.0029861812960865573,0.002777246239810165
6806.126397010943,0.003000625051503667,0.002842644463004154
6806.127396782866,0.00301271861746343,0.002911411093984997
6806.128396554788,0.0030224814425308675,0.002982789162100491
6806.129396326711,0.0030299551519712914,0.003055976033541001
6806.130396098634,0.0030352001241581235,0.003130136031363331
6806.131395870557,0.003038292394653483,0.0032044142035421324
6806.132395642479,0.0030393210701902917,0.0032779509657554634
6806.133395414402,0.0030383863523381414,0.003349897272947951
6806.134395186325,0.0030355981893222654,0.003419429933146686
6806.135394958248,0.003031075517402634,0.0034857666740857056
6806.136394730171,0.003024946023980819,0.003548180586242962
6806.137394502093,0.003017346343110376,0.0036060135679447484
6806.138394274016,0.003008422556930016,0.003658688386041874
6806.139394045938,0.0029983308259510276,0.003705718959071553
6806.140393817862,0.0029872379336037605,0.0037467184920737953
6806.1413935897845,0.0029753215268068173,0.0037814051590937875
6806.142393361707,0.0029627698648782117,0.003809605139912314
6806.14339313363,0.0029497809445482547,0.00383125294207611
6806.144392905552,0.0029365609420336732,0.0038463890323047487
6806.145392677476,0.002923321997435238,0.0038551548412209717
6806.146392449398,0.0029102794442042927,0.003857785219611546
6806.147392221321,0.002897648630394584,0.0038545984725816547
6806.148391993243,0.0028856414837528247,0.003845984218607012
6806.149391765166,0.002874462969148505,0.003832389486945566
6806.150391537089,0.0028643075992149454,0.0038143036094108736
6806.151391309012,0.0028553561715593564,0.0037922425337405035
6806.152391080935,0.002847772890662332,0.0037667331847987626
6806.153390852857,0.0028417029931478923,0.0037382984447083966
6806.15439062478,0.002837270954557657,0.0037074432290454262
6806.155390396702,0.0028345793218965,0.0036746420223789703
6806.156390168626,0.0028337081822111575,0.0036403281314786704
6806.1573899405485,0.0028347152393329972,0.0036048848395499812
6806.158389712471,0.0028376364287875885,0.003568638595289873
6806.159389484394,0.0028424869592758167,0.003531854329812366
6806.160389256316,0.002849262640801511,0.003494732956783328
6806.16138902824,0.0028579413530542713,0.003457411077812873
6806.162388800162,0.0028684845139833985,0.0034199628806805306
6806.163388572085,0.0028808384127192417,0.003382404171186395
6806.164388344007,0.002894935271099976,0.0033446984142888295
6806.16538811593,0.0029106939047365064,0.0033067645809717345
6806.1663878878535,0.0029280198827656913,0.0032684865158420537
6806.167387659776,0.002946805147150135,0.0032297234700219704
6806.168387431699,0.0029669271435123416,0.003190321392210311
6806.169387203621,0.002988247610496239,0.0031501245381021815
6806.170386975544,0.003010611243073833,0.0031089869465731985
6806.171386747466,0.0030338444703242,0.0030667833445733924
6806.17238651939,0.003057754568085598,0.0030234190703924495
6806.173386291312,0.003082129270802214,0.002978838625375386
6806.174386063235,0.0031067369778797725,0.0029330324830751852
6806.175385835158,0.003131327596417173,0.00288604184068241
6806.17638560708,0.0031556340358095776,0.002837961117726652
6806.177385379004,0.0031793743595791677,0.0027889381769483513
6806.178385150926,0.0032022545928937006,0.0027391724187629416
6806.179384922849,0.003223972178064116,0.0026889110398541625
6806.180384694771,0.0032442200631162934,0.0026384438202455562
6806.181384466694,0.0032626913911012767,0.0025880968085939854
6806.182384238617,0.003279084720955805,0.0025382252361727782
6806.18338401054,0.0032931096535656203,0.002489205943834831
6806.184383782463,0.003304492668009437,0.0024414295773835006
6806.185383554385,0.003312982912088473,0.002395292788940894
6806.186383326308,0.003318357662182528,0.0023511906539529026
6806.18738309823,0.0033204271833727327,0.002309509465803942
6806.188382870154,0.0033190387761128154,0.0022706200122134465
6806.189382642076,0.0033140798744726255,0.002234871392136924
6806.190382413999,0.003305480146013683,0.002202585418176416
6806.191382185922,0.0032932126180918305,0.0021740516617428153
6806.192381957844,0.0032772939073023918,0.0021495232095044585
6806.193381729768,0.003257783656639477,0.0021292131951550163
6806.19438150169,0.003234783295630054,0.0021132921598499147
6806.195381273613,0.003208434236504718,0.002101886288639282
6806.196381045535,0.0031789156052168073,0.002095076563337134
6806.197380817458,0.003146441586346151,0.0020928988511780496
6806.1983805893815,0.0031112584491403425,0.0020953449085961526
6806.199380361304,0.003073641326096744,0.0021023642310401165
6806.200380133227,0.003033890828927271,0.00211386664119608
6806.201379905149,0.002992329593882773,0.0021297254900648093
6806.202379677072,0.0029492988354265976,0.0021497813430438953
6806.203379448994,0.002905154951831107,0.0021738460244214303
6806.204379220918,0.002860266182166434,0.0022017068952452446
6806.20537899284,0.0028150092806562676,0.0022331312470385196
6806.206378764763,0.002769766160155554,0.0022678707048899545
6806.207378536686,0.0027249204574507375,0.002305665535915587
6806.208378308608,0.0026808539803200265,0.002346248751801277
6806.209378080532,0.0026379430045679274,0.002389349892337641
6806.210377852454,0.0025965544061319367,0.0024346983914503065
6806.211377624377,0.0025570416537423154,0.0024820264527611
6806.212377396299,0.002519740747580587,0.002531071388549776
6806.213377168222,0.0024849662395336606,0.0025815774025075853
6806.2143769401455,0.002453007487776355,0.0026332968235192006
6806.215376712068,0.0024241252877750977,0.0026859908189746794
6806.216376483991,0.002398548998889783,0.0027394296249455287
6806.217376255913,0.0023764742542885086,0.002793392325902229
6806.218376027836,0.002358061301421454,0.0028476662008474927
6806.219375799759,0.0023434339799117436,0.0029020456334598534
6806.220375571682,0.0023326793129867167,0.0029563305770847668
6806.221375343604,0.002325847665923978,0.0030103245870636178
6806.222375115527,0.0023229534077880876,0.003063832486288745
6806.22337488745,0.00232397600444382,0.003116657798782402
6806.224374659372,0.002328861465583593,0.0031686001431110774
6806.225374431296,0.0023375240480154906,0.0032194528072980034
6806.226374203218,0.002349848079200619,0.0032690007336304357
6806.227373975141,0.0023656897385675667,0.0033170191285385496
6806.228373747063,0.0023848786572181644,0.003363272870122091
6806.229373518986,0.0024072192777779473,0.003407516810540275
6806.2303732909095,0.002432492019312204,0.0034494969843510887
6806.231373062832,0.0024604543647395133,0.003488952668318137
6806.232372834755,0.0024908420127165293,0.003525619202041597
6806.233372606677,0.0025233702382258007,0.0035592314575501926
6806.2343723786,0.002557735602921283,0.00358952782790018
6806.235372150522,0.002593618129886022,0.003616254593414452
6806.236371922446,0.0026306839946693902,0.00363917052542603
6806.237371694368,0.0026685887068489096,0.0036580515936041553
6806.238371466291,0.002706980696194596,0.0036726956424899325
6806.239371238214,0.002745505186229857,0.0036829269061210536
6806.240371010136,0.0027838082251591917,0.0036886002618015928
6806.24137078206,0.002821540737184092,0.0036896051824604702
6806.242370553982,0.002858362461140175,0.0036858693924061202
6806.243370325905,0.0028939456768309457,0.0036773622356077017
6806.244370097827,0.002927978684880965,0.0036640977436647915
6806.24536986975,0.0029601690756540025,0.003646137371587275
6806.2463696416735,0.0029902468612611295,0.003623592358030023
6806.247369413596,0.0030179675340872244,0.003596625645996824
6806.248369185519,0.0030431150626715644,0.0035654532648917276
6806.249368957441,0.00306550476717345,0.0035303450438778374
6806.250368729364,0.003084985959637327,0.0034916245181224425
6806.251368501287,0.003101444201880031,0.003449667899216882
6806.25236827321,0.0031148030254036494,0.0034049019921176915
6806.253368045132,0.003125024969683055,0.0033578009454707488
6806.254367817055,0.0031321118256154973,0.0033088817276128203
6806.255367588978,0.0031361040169832163,0.0032586982426936733
6806.2563673609,0.0031370791080839976,0.0032078340512279972
6806.257367132824,0.0031351494788891807,0.0031568937322983518
6806.258366904746,0.0031304592454772058,0.0031064930008775954
6806.259366676669,0.003123180519605429,0.003057247755509045
6806.260366448591,0.0031135091180530395,0.0030097622828213545
6806.261366220514,0.0031016598730737267,0.0029646169046251528
6806.2623659924375,0.003087861747941333,0.0029223554248200894
6806.26336576436,0.0030723529856271988,0.0028834728000795137
6806.264365536283,0.003055376490983379,0.0028484035028130367
6806.265365308205,0.0030371755831628366,0.002817511059386155
6806.266365080128,0.003017990192337846,0.0027910792248584293
6806.26736485205,0.0029980535467734114,0.002769305191453807
6806.268364623974,0.0029775894113776196,0.0027522951259446263
6806.269364395896,0.002956809967461287,0.0027400622116062214
6806.270364167819,0.002935914419123024,0.0027325272576084994
6806.271363939742,0.0029150883531321586,0.0027295218402613253
6806.272363711664,0.002894503788503515,0.002730793845248834
6806.273363483588,0.0028743197754330188,0.00273601517879815
6806.27436325551,0.00285468337729353,0.0027447913190391552
6806.275363027433,0.00283573089421403,0.002756672310174691
6806.276362799355,0.0028175892256200896,0.002771164777730591
6806.277362571278,0.0028003772834241233,0.0027877445603782993
6806.2783623432015,0.002784207357139969,0.0028058695945117687
6806.279362115124,0.0027691863257301493,0.002824992725560352
6806.280361887047,0.002755416622169598,0.0028445741312163953
6806.281361658969,0.0027429968762418687,0.0028640930246106363
6806.282361430892,0.002732022182460571,0.0028830582895537703
6806.283361202815,0.0027225839636939695,0.002901017726536201
6806.284360974738,0.0027147694223824234,0.002917565672904423
6806.28536074666,0.0027086605853072782,0.0029323488777223917
6806.286360518583,0.002704332958177713,0.0029450706239856055
6806.287360290506,0.0027018538177882604,0.0029554931832375167
6806.288360062428,0.0027012801824689175,0.002963438757483369
6806.289359834352,0.00270265651709311,0.0029687891009255187
6806.290359606274,0.0027060122512416046,0.0029714840158755634
6806.291359378197,0.002711359219288636,0.0029715188945762523
6806.292359150119,0.0027186891623021056,0.0029689414440429314
6806.293358922042,0.002727971450958526,0.002963847697277645
6806.2943586939655,0.0027391511866289037,0.002956377400591876
6806.295358465888,0.00275214781795678,0.0029467088814274537
6806.296358237811,0.0027668543851642772,0.0029350535267812445
6806.297358009733,0.0027831374795872165,0.002921650016931564
6806.298357781656,0.002800837976523055,0.0029067584632746554
6806.299357553579,0.002819772564094806,0.0028906546111717186
6806.300357325502,0.002839736059426196,0.0028736242929035703
6806.301357097424,0.002860504485673291,0.002855958328165811
6806.302356869347,0.002881838879102517,0.002837948042286043
6806.30335664127,0.002903489798238755,0.0028198815022389533
6806.304356413193,0.002925202507780873,0.002802040480518753
6806.305356185116,0.0029467227933510642,0.0027846980764869938
6806.306355957038,0.0029678033141209703,0.0027681168679296714
6806.307355728961,0.0029882103180186733,0.0027525474285197216
6806.308355500883,0.003007730449174266,0.0027382270286464188
6806.309355272806,0.0030261773051199867,0.0027253783499221105
6806.3103550447295,0.0030433973846454108,0.002714208093179374
6806.311354816652,0.0030592751120213798,0.002704905424006269
6806.312354588575,0.0030737366971034584,0.0026976402453957734
6806.313354360497,0.0030867526475786603,0.0026925613048117488
6806.31435413242,0.0030983387760708486,0.002689794155222519
6806.315353904343,0.0031085555703190522,0.0026894390187114274
6806.316353676266,0.0031175058504392798,0.002691568639718093
6806.317353448188,0.0031253307259645423,0.002696226234236452
6806.318353220111,0.003132203972976086,0.0027034236258054217
6806.319352992034,0.003138325064314659,0.0027131396266734816
6806.320352763956,0.0031439111891188773,0.002725318713192785
6806.32135253588,0.0031491886767929574,0.0027398700828743603
6806.322352307802,0.003154384281834408,0.0027566672415319546
6806.323352079725,0.0031597167778296916,0.0027755482970335957
6806.324351851647,0.0031653892494365355,0.0027963171053719724
6806.32535162357,0.003171582380972543,0.0028187453473512876
6806.3263513954935,0.0031784489525249586,0.0028425755406991477
6806.327351167416,0.003186109686695354,0.0028675249237372236
6806.328350939339,0.00319465053175037,0.0028932900859787642
6806.329350711261,0.0032041214020315225,0.002919552174675025
6806.330350483184,0.0032145363176553,0.0029459824787487965
6806.331350255107,0.0032258747993133964,0.0029722481800154533
6806.33235002703,0.003238084293807135,0.0029980180593927415
6806.333349798952,0.0032510833523037965,0.0030229679500368175
6806.334349570875,0.003264765278477558,0.0030467857457149973
6806.335349342798,0.0032790020143077647,0.003069175808920866
6806.336349114721,0.00329364811769457,0.0030898626757017668
6806.337348886644,0.003308544773300667,0.003108594003058758
6806.338348658566,0.00332352383421927,0.003125142730888668
6806.339348430489,0.0033384118986112318,0.0031393084459429097
6806.340348202411,0.0033530343867383175,0.003150917979903534
6806.341347974334,0.003367219533281236,0.003159825358519486
6806.3423477462575,0.0033808021873827387,0.0031659112977306687
6806.34334751818,0.003393627326524628,0.003169082466184582
6806.344347290103,0.0034055532154994876,0.0031692707018496948
6806.345347062025,0.0034164541567653518,0.0031664323132621366
6806.346346833948,0.003426222781406623,0.0031605475326959586
6806.347346605871,0.0034347718276964193,0.0031516201290624616
6806.348346377794,0.0034420353561206776,0.0031396771444193957
6806.349346149716,0.0034479693646263555,0.0031247686942222175
6806.350345921639,0.003452551795024582,0.0031069677602108756
6806.351345693562,0.0034557819472708215,0.0030863699034234912
6806.352345465485,0.003457679330983132,0.003063092847057825
6806.353345237408,0.0034582819929577734,0.003037275933967997
6806.35434500933,0.0034576443888995334,0.0030090795269761715
6806.355344781253,0.00345583491529232,0.002978684444474153
6806.356344553175,0.0034529332491936913,0.0029462914844186013
6806.357344325099,0.0034490276394306004,0.002912121007878427
6806.3583440970215,0.00344421226800758,0.0028764124745007218
6806.359343868944,0.0034385847734006185,0.0028394237844167293
6806.360343640867,0.0034322439969713876,0.0028014302922039504
6806.361343412789,0.0034252879780579896,0.0027627233947140066
6806.362343184712,0.0034178121869177657,0.002723608625622463
6806.363342956635,0.003409907951683303,0.0026844032072436863
6806.364342728558,0.0034016610158120633,0.0026454330270807664
6806.36534250048,0.0033931501739543676,0.0026070290362449912
6806.366342272403,0.0033844459815532114,0.0025695231130287524
6806.367342044326,0.0033756095950188136,0.0025332434928184463
6806.368341816249,0.0033666918417170335,0.002498509924418492
6806.369341588172,0.0033577326203502924,0.0024656287559342094
6806.370341360094,0.0033487606923915886,0.002434888163186101
6806.371341132017,0.0033397938654139256,0.002406553706055715
6806.372340903939,0.003330839519879043,0.0023808643480478365
6806.373340675862,0.0033218954084193774,0.002358029023710087
6806.3743404477855,0.0033129506548521944,0.0023382238021931122
6806.375340219708,0.0033039868888135085,0.002321589674806352
6806.376339991631,0.0032949794692893686,0.0023082309823117915
6806.377339763553,0.0032858987754904724,0.0022982144877536324
6806.378339535476,0.00327671156848302,0.002291569090246405
6806.379339307399,0.0032673824381949704,0.002288286158515972
6806.380339079322,0.0032578753338476435,0.0022883204385857627
6806.381338851244,0.0032481551292761527,0.0022915914731191016
6806.382338623167,0.0032381891204696167,0.0022979854742958615
6806.38333839509,0.0032279483301179486,0.00230735760300572
6806.384338167013,0.0032174085279369994,0.002319534600628275
6806.385337938936,0.003206550954406786,0.0023343176999994354
6806.386337710858,0.003195362822210987,0.0023514857334693802
6806.387337482781,0.0031838377302427804,0.0023707983697382794
6806.388337254703,0.003171976145660766,0.0023919994394660626
6806.389337026627,0.0031597860938929927,0.002414820335895125
6806.3903367985495,0.0031472841542621952,0.0024389834875789785
6806.391336570472,0.003134496799824567,0.0024642058972042806
6806.392336342395,0.0031214620554121217,0.0024902027366252803
6806.393336114317,0.00310823138487853,0.002516690991352777
6806.39433588624,0.0030948716576527126,0.002543393153515007
6806.395335658163,0.0030814669919900627,0.00257004096539153
6806.396335430086,0.0030681202441706938,0.0025963792163968464
6806.397335202008,0.0030549539242660808,0.002622169591330811
6806.398334973931,0.0030421103711045093,0.0026471945462170614
6806.399334745854,0.0030297510920563276,0.0026712611514568894
6806.400334517777,0.003018055233447301,0.0026942048136587736
6806.4013342897,0.003007217172306865,0.002715892786548159
6806.402334061622,0.002997443218184343,0.0027362273938379427
6806.403333833545,0.0029889474161939778,0.0027551488793585116
6806.404333605467,0.002981946477538426,0.002772637759462915
6806.40533337739,0.0029766539325318145,0.0027887165028534664
6806.4063331493135,0.002973273676833443,0.0028034503400229662
6806.407332921236,0.002971993141236538,0.0028169470299292112
6806.408332693159,0.0029729763611026903,0.0028293554803885622
6806.409332465081,0.0029763572564683724,0.002840863205707518
6806.410332237004,0.0029822334399924166,0.0028516926796441785
6806.411332008927,0.002990660833604101,0.0028620966846374996
6806.41233178085,0.003001649313780952,0.0028723527740141474
6806.413331552772,0.003015159550920546,0.0028827569743389613
6806.414331324695,0.003031101170326343,0.0028936168709516974
6806.415331096618,0.003049332325123365,0.002905244228279528
6806.416330868541,0.003069660718389179,0.002917947284655017
6806.417330640464,0.0030918460471480304,0.0029320228383620177
6806.418330412386,0.0031156037834649502,0.0029477482313413554
6806.419330184309,0.003140610170356705,0.0029653733540881185
6806.420329956231,0.00316650828943187,0.0029851128331228197
6806.421329728155,0.003192915039024087,0.003007138602817527
6806.4223295000775,0.0032194288339475055,0.0030315730912237175
6806.423329272,0.00324563780278405,0.003058483256799143
6806.424329043923,0.003271128229818699,0.003087875697829809
6806.425328815845,0.0032954929824936152,0.0031196930219140532
6806.426328587768,0.003318339694191339,0.00315381161399619
6806.427328359691,0.0033392985324321727,0.0031900408866272186
6806.428328131614,0.0033580294434148077,0.003228124049565019
6806.429327903536,0.003374228792160026,0.003267740412383848
6806.430327675459,0.0033876353101979164,0.00330850923975945
6806.431327447382,0.0033980352381364066,0.003349995201966853
6806.432327219305,0.003405266522702595,0.0033917154724413742
6806.433326991228,0.0034092219040448863,0.003433148492635578
6806.43432676315,0.0034098507183824844,0.0034737443462471047
6806.435326535073,0.00340715925780014,0.0035129365759454427
6806.436326306995,0.0034012095887418488,0.003550155164705894
6806.437326078919,0.0033921168343881316,0.0035848403185060437
6806.4383258508415,0.00338004504475022,0.0036164566348622605
6806.439325622764,0.0033652018696902083,0.003644507206633909
6806.440325394687,0.003347832289575892,0.0036685471724567406
6806.441325166609,0.0033282116469870787,0.0036881961770867683
6806.442324938533,0.0033066381827731423,0.0037031491631519444
6806.443324710455,0.0032834252485580756,0.0037131849231477275
6806.444324482378,0.0032588933729160974,0.0037181719430013738
6806.4453242543,0.0032333623894357194,0.0037180712684283523
6806.446324026223,0.0032071438599067296,0.003712936363391431
6806.447323798146,0.003180534029252497,0.003702910134170359
6806.448323570069,0.0031538075369474845,0.003688219435603147
6806.449323341992,0.00312721208808341,0.003669167463365406
6806.450323113914,0.0031009642476672343,0.0036461244686174198
6806.451322885837,0.003075246458002462,0.0036195172201278335
6806.452322657759,0.003050205307893718,0.0035898176197457304
6806.453322429683,0.0030259510313882685,0.003557530873386071
6806.4543222016055,0.0030025581911978807,0.003523183620589466
6806.455321973528,0.0029800674929639013,0.0034873124088248444
6806.456321745451,0.002958488661646107,0.0034504528506212676
6806.457321517373,0.0029378042808566878,0.00341312972224488
6806.458321289296,0.0029179744544230693,0.0033758481686224
6806.459321061219,0.0028989421087034957,0.003339086099659292
6806.460320833142,0.0028806387193638077,0.003303287821429852
6806.461320605064,0.002862990216834906,0.0032688589403468524
6806.462320376987,0.0028459228091099755,0.0032361625825676056
6806.46332014891,0.002829368473945119,0.003205516954566954
6806.464319920833,0.0028132699176599786,0.003177194223264186
6806.465319692756,0.0027975848605869963,0.003151420630330205
6806.466319464678,0.0027822895685281094,0.0031283777026595975
6806.467319236601,0.0027673815880739096,0.003108204391089299
6806.468319008523,0.0027528816585653056,0.0030909999478438773
6806.469318780447,0.002738834776491351,0.0030768273259101577
6806.4703185523695,0.0027253103934185147,0.003065716861395759
6806.471318324292,0.0027124017410230187,0.0030576700071232874
6806.472318096215,0.0027002242882480654,0.0030526629318736054
6806.473317868137,0.0026889133382415778,0.0030506498652407617
6806.474317640061,0.002678620777959359,0.0030515661213729693
6806.475317411983,0.0026695110231359583,0.0030553307660877846
6806.476317183906,0.002661756258463216,0.003061848911531458
6806.477316955828,0.0026555311310422743,0.0030710136279073997
6806.478316727751,0.0026510070850442424,0.0030827074371851805
6806.479316499674,0.002648346526557107,0.003096803306107057
6806.480316271597,0.002647697006863991,0.003113165018375652
6806.48131604352,0.0026491856296035187,0.0031316468056296434
6806.482315815442,0.002652913908513577,0.0031520921614516346
6806.483315587365,0.0026589532922699183,0.0031743318500741563
6806.484315359287,0.0026673415109968136,0.003198181234253642
6806.485315131211,0.0026780798027861217,0.0032234371474298756
6806.4863149031335,0.002691130990388872,0.0032498745949844318
6806.487314675056,0.002706418334050008,0.003277243594720205
6806.488314446979,0.002723825094307326,0.0033052664792372834
6806.489314218901,0.0027431947817837536,0.0033336359839392666
6806.490313990824,0.00276433212621704,0.00336201441423861
6806.491313762747,0.002787004842322477,0.0033900341128524692
6806.49231353467,0.002810946282115329,0.0034172993504272935
6806.493313306592,0.00283585902708966,0.0034433896724580483
6806.494313078515,0.0028614193993890644,0.0034678646660719794
6806.495312850438,0.002887282786471352,0.0034902700455989605
6806.496312622361,0.00291308960375019,0.0035101448802914974
6806.497312394284,0.0029384716828373264,0.0035270297164321784
6806.498312166206,0.0029630588775449475,0.0035404753086997775
6806.499311938129,0.002986485710458956,0.0035500516752160712
6806.500311710051,0.0030083979112419815,0.0035553572044626602
6806.501311481975,0.0030284587127469005,0.003556027555722414
6806.5023112538975,0.003046354784415882,0.003551744111473028
6806.50331102582,0.0030618017078664177,0.003542241766350667
6806.504310797743,0.0030745489358514656,0.00352731587614071
6806.505310569665,0.0030843842075106986,0.0035068282418415004
6806.506310341589,0.0030911374027296147,0.0034807120542995756
6806.507310113511,0.003094683801907157,0.003448975746414531
6806.508309885434,0.0030949466875722356,0.0034117056771861207
6806.509309657356,0.0030918992029544657,0.003369067523102611
6806.510309429279,0.003085565383883403,0.0033213062127638603
6806.511309201202,0.003076020302671737,0.003268744233604633
6806.512308973125,0.0030633892989956374,0.0032117781759217895
6806.513308745048,0.0030478463190708634,0.0031508734693358985
6806.51430851697,0.00302961142869497,0.0030865574076631938
6806.515308288893,0.0030089475868707713,0.0030194107143367665
6806.516308060815,0.00298615676086844,0.002950058017063095
6806.517307832739,0.002961575454673871,0.002879157641728872
6806.5183076046615,0.002935569728681157,0.002807391104950627
6806.519307376584,0.0029085297966245415,0.002735452610290322
6806.520307148507,0.0028808642796200124,0.0026640387675849935
6806.521306920429,0.002852994182254069,0.0025938386864488264
6806.522306692353,0.0028253466423672643,0.002525524559519154
6806.523306464275,0.002798348494236003,0.002459742841276948
6806.524306236198,0.002772419676995819,0.0023971061245934783
6806.52530600812,0.002747966528833609,0.0023381858119669897
6806.526305780043,0.0027253750421375412,0.002283505678180394
6806.527305551967,0.0027050042126264026,0.0022335364251680023
6806.528305323889,0.00268717967775015,0.002188691322960829
6806.529305095812,0.002672187875320645,0.0021493229982231894
6806.530304867734,0.0026602709409375216,0.0021157213761788703
6806.531304639657,0.002651622510632042,0.0020881127222059314
6806.532304411579,0.002646384533425415,0.00206665968907589
6806.533304183503,0.00264464515369907,0.0020514622621459603
6806.5343039554255,0.002646437699744855,0.0020425594946255994
6806.535303727348,0.0026517407974814902,0.002039931922173664
6806.536303499271,0.002660479603675368,0.002043504538005132
6806.537303271193,0.002672528121925057,0.002053150200959886
6806.538303043117,0.0026877125322075576,0.0020686933395402613
6806.539302815039,0.0027058154324762365,0.002089913803501841
6806.540302586962,0.0027265808632412265,0.0021165507088508548
6806.541302358884,0.0027497199694158088,0.002148306140505031
6806.542302130807,0.0027749171437416883,0.002184848630461371
6806.54330190273,0.0028018364820559622,0.0022258163974026688
6806.544301674653,0.0028301283623204058,0.0022708203768901708
6806.545301446576,0.0028594359474318257,0.002319447077199866
6806.546301218498,0.0028894014142225167,0.0023712612928805028
6806.547300990421,0.002919671728605,0.0024258087278812516
6806.548300762343,0.0029499038178053346,0.002482618619522701
6806.549300534267,0.002979769031668989,0.0025412064810607076
6806.5503003061895,0.003008956829071947,0.0026010770698626446
6806.551300078112,0.003037177665361481,0.0026617276491448356
6806.552299850035,0.0030641650946583833,0.002722651569867096
6806.553299621957,0.0030896771445527178,0.002783342169175171
6806.554299393881,0.003113497064529076,0.0028432969590226494
6806.555299165803,0.0031354335755485107,0.002902022056717122
6806.556298937726,0.00315532075084244,0.0029590367856852907
6806.557298709648,0.003173017645311641,0.003013878352672411
6806.558298481571,0.00318840776499268,0.0030661064967905157
6806.559298253495,0.0032013984267352754,0.003115308014925042
6806.560298025417,0.003211920013112406,0.003161101091107001
6806.56129779734,0.003219925097650864,0.0032031393760779386
6806.562297569262,0.0032253874067754607,0.0032411157635070997
6806.563297341185,0.003228300593003477,0.0032747657958892987
6806.564297113107,0.003228676818840074,0.0033038706223124143
6806.565296885031,0.0032265451924249227,0.003328259426396752
6806.566296656953,0.003221950142192172,0.003347811236105954
6806.567296428876,0.00321494984930946,0.003362456019499068
6806.568296200799,0.003205614858886329,0.0033721749774020134
6806.569295972721,0.0031940269598488245,0.003376999968174974
6806.570295744645,0.00318027836893622,0.0033770120301601816
6806.571295516567,0.0031644711983839654,0.0033723390038205526
6806.57229528849,0.003146717150651988,0.0033631523079900574
6806.573295060412,0.0031271373762445393,0.0033496629932106958
6806.574294832335,0.003105862447055347,0.0033321172677854174
6806.5752946042585,0.003083032421359183,0.0033107917484432262
6806.576294376181,0.003058796993090121,0.0032859886995082414
6806.577294148104,0.0030333157267749917,0.003258031476792092
6806.578293920026,0.0030067583838956045,0.003227260302685358
6806.579293691949,0.0029793053418903244,0.0031940284035795927
6806.580293463872,0.0029511480898499936,0.0031586984672291787
6806.581293235795,0.00292248976174861,0.003121639337668043
6806.582293007717,0.0028935456484137693,0.0030832228624262264
6806.58329277964,0.002864543617889834,0.0030438208361993247
6806.584292551563,0.002835724368507702,0.0030038020246713156
6806.585292323485,0.0028073414361526007,0.0029635292683420876
6806.586292095409,0.002779660876621801,0.002923356646385094
6806.587291867331,0.0027529605461695307,0.0028836266540183514
6806.588291639254,0.002727528907576846,0.0028446673539355982
6806.589291411176,0.0027036632988051506,0.0028067895083496047
