Time,Filtered_EMG_Bicep,Filtered_EMG_Tricep
6636.819677237733,0.0024641882165558704,0.0018793562610797557
6636.820677009949,0.002504381122133017,0.0019486481460608109
6636.821676782164,0.0025456327063740425,0.002018388365109439
6636.82267655438,0.002587612236341338,0.002088103813509081
6636.823676326594,0.002629969250891197,0.002157315452967435
6636.8246760988095,0.0026723391819923393,0.002225544676742869
6636.825675871025,0.0027143496642245525,0.0022923196789997693
6636.82667564324,0.0027556273735699914,0.0023571817483471536
6636.827675415456,0.0027958051732347423,0.002419691396440878
6636.828675187671,0.0028345292860759972,0.002479434212728553
6636.829674959886,0.0028714661822259323,0.0025360263192425844
6636.830674732101,0.0029063088960863555,0.002589119296692244
6636.831674504317,0.002938782576970936,0.0026384044654591413
6636.832674276532,0.0029686491913550528,0.002683616418917667
6636.833674048748,0.0029957113657917995,0.002724535713324444
6636.834673820962,0.003019815356185209,0.002760990630741849
6636.8356735931775,0.0030408530751864864,0.002792857969785885
6636.836673365393,0.0030587630576171367,0.0028200628840099463
6636.837673137608,0.0030735302446258835,0.0028425778513410925
6636.838672909824,0.003085184540671246,0.002860420891655403
6636.839672682039,0.003093798215130557,0.002873653153323175
6636.840672454254,0.0030994823343839166,0.0028823759800636495
6636.841672226469,0.003102382492979871,0.0028867275527543223
6636.842671998685,0.003102674152901059,0.002886879178029498
6636.8436717709,0.0031005578912717863,0.0028830312842000813
6636.844671543116,0.003096254810894756,0.002875409204049633
6636.84567131533,0.003090002311587835,0.0028642588580893333
6636.8466710875455,0.0030820503615348713,0.002849842461359832
6636.847670859761,0.0030726583285606837,0.0028324343447886564
6636.848670631976,0.003062092322363277,0.0028123169294867315
6636.849670404192,0.0030506228900398363,0.0027897768510030405
6636.850670176407,0.003038522850918523,0.0027651012140438714
6636.851669948622,0.0030260650805671967,0.002738573959014014
6636.852669720837,0.003013520134545522,0.002710472332299678
6636.853669493053,0.0030011536834900665,0.00268106347901252
6636.854669265268,0.002989223763856549,0.002650601224268598
6636.855669037484,0.0029779778275480047,0.002619323157729581
6636.856668809698,0.002967649541487596,0.0025874481553315623
6636.8576685819135,0.0029584553008188278,0.002555174452253248
6636.858668354129,0.0029505905011251643,0.0025226783417209744
6636.859668126344,0.002944225740515201,0.002490113538046059
6636.86066789856,0.0029395032327202706,0.002457611213072804
6636.861667670775,0.0029365337586561993,0.002425280684333241
6636.86266744299,0.0029353944613057905,0.002393210700096965
6636.863667215205,0.0029361277207361355,0.002361471244882268
6636.864666987421,0.0029387412511484483,0.0023301157902915807
6636.865666759636,0.0029432094544908287,0.0022991839304410304
6636.866666531852,0.0029494759686178786,0.0022687043450539796
6636.867666304066,0.0029574572764153443,0.002238698017249818
6636.868666076281,0.0029670471779125037,0.0022091816142032843
6636.869665848497,0.002978121844848685,0.002180170939454594
6636.870665620712,0.002990545093566426,0.002151684384355028
6636.871665392928,0.003004173486851896,0.0021237463156460537
6636.872665165142,0.0030188609453892707,0.0020963903137664838
6636.873664937358,0.0030344626798794357,0.0020696621325115893
6636.874664709573,0.0030508383713812957,0.002043622220411625
6636.875664481789,0.0030678545881935664,0.0020183476515281203
6636.876664254004,0.003085386445578858,0.0019939333470367572
6636.877664026219,0.003103318525968544,0.001970492500960521
6636.878663798434,0.0031215451119977347,0.0019481561434268645
6636.879663570649,0.003139969852983753,0.0019270717934745637
6636.880663342865,0.00315850506315365,0.0019074011822990294
6636.88166311508,0.003177070886740103,0.001889317068458056
6636.882662887296,0.003195594532011596,0.0018729992123620281
6636.88366265951,0.0032140097001298455,0.001858629624579345
6636.884662431726,0.0032322562699884936,0.0018463872546050596
6636.885662203941,0.0032502802725665383,0.0018364423384620192
6636.886661976157,0.0032680341745627817,0.0018289506553525268
6636.887661748372,0.0032854774523810534,0.0018240479446567002
6636.8886615205865,0.003302577366309872,0.0018218447129570814
6636.889661292802,0.0033193097741537787,0.0018224216265982618
6636.890661065017,0.0033356597947275415,0.0018258256420122716
6636.891660837233,0.0033516221570636493,0.0018320669786747628
6636.892660609448,0.0033672011267199273,0.0018411169959008811
6636.893660381664,0.003382409945008584,0.0018529069976325869
6636.894660153878,0.0033972697225944106,0.0018673279557880076
6636.895659926094,0.0034118077050429665,0.0018842311091498668
6636.896659698309,0.0034260548187110356,0.0019034293626423462
6636.897659470525,0.0034400424552672227,0.001924699390696367
6636.89865924274,0.003453798567455488,0.0019477843508059894
6636.8996590149545,0.003467343288702389,0.0019723971389694933
6636.90065878717,0.0034806844013879307,0.0019982241475977277
6636.901658559385,0.003493813026659648,0.0020249294994380625
6636.902658331601,0.0035066998894610476,0.002052159727824658
6636.903658103816,0.0035192924539854268,0.0020795488621670514
6636.904657876032,0.0035315131598293646,0.0021067238616886723
6636.905657648246,0.0035432589269670093,0.002133310322918218
6636.906657420462,0.0035544020293847784,0.0021589383704915797
6636.907657192677,0.0035647923558623897,0.0021832486271916784
6636.9086569648925,0.0035742609803189724,0.0022058981482325425
6636.909656737108,0.00358262486235654,0.002226566196982853
6636.9106565093225,0.003589692420761445,0.002244959736209534
6636.911656281538,0.0035952696973244854,0.0022608185167010213
6636.912656053753,0.0035991668451393777,0.002273919668436127
6636.913655825969,0.003601204690284352,0.00228408173043077
6636.914655598184,0.0036012210945385943,0.0022911680757557906
6636.9156553704,0.0035990767953617583,0.00229508968528082
6636.916655142614,0.0035946603597493605,0.0022958072055217276
6636.91765491483,0.003587891914596346,0.002293332217027327
6636.918654687045,0.003578725436599231,0.002287727654770546
6636.9196544592605,0.0035671495773883146,0.0022791073503061155
6636.920654231476,0.0035531872008280944,0.002267634689132277
6636.9216540036905,0.003536893947584884,0.0022535203942907088
6636.922653775906,0.003518356176923963,0.002237019467466846
6636.923653548121,0.0034976885859367745,0.0022184273396988327
6636.924653320337,0.0034750317315930253,0.0021980752944088648
6636.925653092552,0.003450549622380357,0.002176325226121731
6636.926652864768,0.0034244274945751333,0.002153563803058816
6636.927652636982,0.003396869817007234,0.0021301961202961376
6636.928652409198,0.003368098479092661,0.0021066389554156694
6636.929652181413,0.003338351039924066,0.0020833137567357377
6636.9306519536285,0.003307878883618457,0.0020606394998278483
6636.931651725844,0.003276945149958289,0.002039025542174875
6636.9326514980585,0.003245822366273042,0.0020188645885780053
6636.933651270274,0.0032147897484165106,0.0020005258602597245
6636.934651042489,0.003184130134183453,0.0019843485599927743
6636.935650814705,0.0031541264740619474,0.001970635753980366
6636.93665058692,0.003125057777605158,0.001959648833277627
6636.937650359135,0.0030971944518541467,0.001951602748868304
6636.93865013135,0.0030707930976372993,0.0019466622162286433
6636.939649903566,0.0030460910167252136,0.0019449390494300563
6636.940649675781,0.0030233008426175994,0.001946490723239493
6636.9416494479965,0.0030026057661286585,0.0019513202003663803
6636.942649220211,0.002984155774242219,0.001959377015653344
6636.9436489924265,0.0029680651981895613,0.001970559571643407
6636.944648764642,0.002954411718032899,0.0019847185537486835
6636.945648536857,0.002943236821100278,0.002001661314671299
6636.946648309073,0.0029345475752392556,0.0020211570234914544
6636.947648081288,0.0029283194641608504,0.0020429423491723844
6636.948647853503,0.0029244999430175487,0.002066727459686134
6636.949647625718,0.0029230123175052343,0.002092202149699921
6636.950647397934,0.002923759558968969,0.0021190419395580116
6636.951647170149,0.0029266277580806198,0.0021469140109596344
6636.9526469423645,0.002931489051662493,0.0021754828660981037
6636.953646714579,0.0029382039598720424,0.002204415620825982
6636.954646486794,0.002946623107582639,0.0022333868741410256
6636.95564625901,0.002956588298821935,0.0022620831409214124
6636.956646031225,0.002967932922321245,0.002290206878522931
6636.957645803441,0.002980481726020233,0.002317480151429157
6636.958645575656,0.0029940500933459332,0.0023436479519832135
6636.959645347871,0.0030084430394749797,0.0023684811547228972
6636.960645120086,0.0030234542001777334,0.0023917790584648537
6636.961644892302,0.00303886511746697,0.0024133714701131174
6636.962644664517,0.003054445134496769,0.0024331202909830298
6636.9636444367325,0.0030699521789731704,0.0024509205660654446
6636.964644208947,0.003085134633156135,0.002466700953829299
6636.965643981162,0.0030997343749343854,0.002480423586226324
6636.966643753378,0.003113490949117092,0.002492083319676067
6636.967643525593,0.00312614670588621,0.0025017064068857185
6636.968643297809,0.003137452640968284,0.002509348628315701
6636.969643070024,0.0031471746114785783,0.002515092922753723
6636.970642842239,0.0031550995948945192,0.002519046566094017
6636.971642614454,0.0031610416976883132,0.0025213379570458412
6636.97264238667,0.003164847681745905,0.0025221130639615547
6636.973642158885,0.0031664018300598794,0.0025215315812136905
6636.9746419311,0.003165629989736112,0.0025197628582261065
6636.975641703315,0.0031625026093833565,0.002516981695204808
6636.97664147553,0.003157036566920749,0.002513364126215468
6636.977641247746,0.0031492956095334848,0.0025090833237323327
6636.978641019961,0.003139389321192775,0.0025043057588511448
6636.979640792177,0.003127470675957292,0.002499187733243159
6636.980640564392,0.00311373237359391,0.0024938723628892424
6636.981640336607,0.003098402235722136,0.002488487052695521
6636.982640108822,0.003081737960957939,0.0024831414682645312
6636.983639881038,0.0030640215355612534,0.0024779259892769505
6636.984639653253,0.0030455536011657486,0.0024729106205796845
6636.985639425468,0.003026648078574667,0.002468144350772445
6636.986639197683,0.0030076273022047882,0.0024636549791839453
6636.987638969898,0.0029888178244103,0.0024594494505314995
6636.988638742114,0.002970546927557891,0.002455514715154642
6636.989638514329,0.0029531397673923008,0.002451819076762311
6636.990638286545,0.002936916983648742,0.0024483139281954807
6636.99163805876,0.002922192562532538,0.002444935738258211
6636.992637830975,0.002909271728540351,0.002441608152587376
6636.99363760319,0.0028984486742382005,0.002438244099565348
6636.994637375406,0.0028900039736639823,0.002434747831639332
6636.995637147621,0.0028842015383572337,0.002431016878155378
6636.996636919836,0.0028812849781069912,0.0024269439362793023
6636.997636692051,0.0028814732660782483,0.002422418768637816
6636.998636464266,0.0028849557101395065,0.0024173301954176496
6636.999636236482,0.0028918863887089385,0.0024115682616954077
6637.000636008697,0.002902378371025316,0.002405026631751638
6637.001635780913,0.0029164981446900603,0.0023976052162705615
6637.002635553127,0.0029342606826638163,0.002389212984556455
6637.003635325343,0.002955625515651701,0.002379770866843184
6637.004635097558,0.0029804940836341927,0.002369214624619726
6637.0056348697735,0.0030087085623065725,0.0023574975608041775
6637.006634641989,0.0030400523019435887,0.0023445929483325106
6637.007634414204,0.0030742519534995858,0.0023304960700461157
6637.008634186419,0.0031109812642119137,0.0023152257822526582
6637.009633958634,0.0031498664046575695,0.0022988255329146386
6637.01063373085,0.00319049257572808,0.0022813637811057146
6637.011633503065,0.0032324115843849074,0.0022629337838464755
6637.012633275281,0.0032751500947553443,0.002243652739948492
6637.013633047495,0.0033182183243201696,0.002223660295484828
6637.014632819711,0.0033611189911966943,0.002203116415027554
6637.015632591926,0.003403356284181958,0.0021821986204072735
6637.0166323641415,0.00344444456097016,0.0021610986163886213
6637.017632136357,0.0034839164682547255,0.0021400183674125947
6637.018631908572,0.003521330263480162,0.002119165749763764
6637.019631680787,0.003556276262220368,0.002098749961682016
6637.020631453002,0.0035883824656553014,0.002078976911731307
6637.021631225218,0.0036173194940767946,0.002060044806590234
6637.022630997433,0.0036428049522679207,0.0020421401208764577
6637.023630769649,0.00366460729045354,0.0020254340677572755
6637.024630541863,0.003682549131812343,0.002010079619028143
6637.025630314079,0.003696509960377332,0.00199620906741941
6637.026630086294,0.0037064280369630324,0.001983932100693279
6637.0276298585095,0.0037123014310360587,0.0019733343669269513
6637.028629630725,0.0037141880830154376,0.0019644765289763173
6637.02962940294,0.0037122048180346155,0.00195739380598853
6637.030629175155,0.0037065252384953203,0.0019520959753321489
6637.03162894737,0.0036973764614963386,0.0019485677757405402
6637.032628719586,0.003685034733107361,0.0019467696288517282
6637.033628491801,0.0036698200025070205,0.0019466385860536142
6637.034628264017,0.00365208954824498,0.001948089409842534
6637.035628036231,0.0036322307374262635,0.0019510157179543322
6637.036627808447,0.003610653007103839,0.0019552911602010413
6637.037627580662,0.003587779201712863,0.0019607706562534233
6637.0386273528775,0.0035640364691783117,0.001967291773399552
6637.039627125093,0.0035398469902210984,0.001974676343210218
6637.040626897307,0.0035156188678928057,0.001982732407233219
6637.041626669523,0.0034917375207354404,0.0019912565646523733
6637.042626441738,0.003468557901870253,0.002000036779151073
6637.043626213954,0.0034463978211241655,0.0020088556793001725
6637.044625986169,0.003425532596530756,0.0020174943466962545
6637.045625758385,0.0034061912145276945,0.002025736532024012
6637.046625530599,0.0033885541245403145,0.0020333731838885574
6637.047625302815,0.003372752716829193,0.0020402071301308233
6637.04862507503,0.00335887043347484,0.0020460577224794435
6637.0496248472455,0.0033469453596390347,0.0020507652452932896
6637.050624619461,0.0033369740565874556,0.0020541948986266003
6637.051624391675,0.0033289163432321874,0.002056240194475752
6637.052624163891,0.0033227007112026524,0.002056825649193193
6637.053623936106,0.00331823006388572,0.002055908702178381
6637.054623708322,0.003315387495360299,0.002053480819886766
6637.055623480537,0.003314041857484161,0.002049567743251935
6637.056623252753,0.0033140528904110683,0.0020442288243119815
6637.057623024967,0.003315275726278615,0.002037555412005049
6637.058622797183,0.0033175646455496826,0.0020296683041036946
6637.059622569398,0.0033207760700802594,0.002020714356657027
6637.060622341613,0.003324770880794197,0.002010862398247938
6637.061622113829,0.003329416216625509,0.0020002986266518864
6637.062621886043,0.0033345869311621726,0.0019892216834268743
6637.063621658259,0.0033401668555577925,0.0019778376097361076
6637.064621430474,0.0033460499610730816,0.0019663548736313058
6637.06562120269,0.0033521414654573067,0.0019549796228396023
6637.066620974905,0.003358358898598552,0.001943911269813217
6637.06762074712,0.0033646331139669788,0.001933338471715494
6637.068620519335,0.0033709091769551524,0.0019234355349706707
6637.069620291551,0.0033771469852927967,0.0019143592533676956
6637.070620063766,0.003383321424606591,0.0019062461786269688
6637.071619835981,0.003389421881102886,0.00189921032224145
6637.072619608196,0.0033954510207011256,0.001893341297817351
6637.073619380411,0.003401422838930356,0.0018887029293944246
6637.074619152627,0.003407360034017084,0.00188533236426392
6637.075618924842,0.003413290764526086,0.0018832397347948596
6637.076618697058,0.0034192448628790877,0.0018824084144470122
6637.077618469273,0.0034252496070855346,0.0018827959046783843
6637.078618241488,0.0034313252057765215,0.001884335362427755
6637.079618013703,0.003437480220576979,0.0018869377334371547
6637.080617785919,0.003443707207935461,0.001890494411102051
6637.081617558134,0.0034499788668026386,0.0018948803058842574
6637.082617330349,0.003456244916741455,0.001899957185470226
6637.083617102564,0.0034624298447524507,0.0019055771361171211
6637.084616874779,0.0034684316066976484,0.0019115860189625742
6637.085616646995,0.003474121373052227,0.0019178268519413476
6637.08661641921,0.0034793444384028606,0.0019241431075940941
6637.087616191426,0.003483922414203521,0.0019303819481593515
6637.088615963641,0.0034876567618608023,0.0019363974141829456
6637.089615735856,0.0034903336140088507,0.0019420535477625443
6637.090615508071,0.003491729718950929,0.001947227376268768
6637.091615280287,0.003491619256620786,0.0019518116236271253
6637.092615052502,0.003489781220617252,0.0019557169767454173
6637.093614824717,0.003486007035708454,0.0019588737318853478
6637.094614596932,0.0034801080700663555,0.001961232683698176
6637.095614369147,0.0034719226926808416,0.001962765191464714
6637.096614141363,0.0034613225320154657,0.00196346244776213
6637.097613913578,0.003448217642889021,0.001963334059903072
6637.098613685794,0.003432560389886481,0.0019624061084888944
6637.099613458009,0.0034143479799695078,0.0019607188583799164
6637.100613230224,0.0033936236938664254,0.0019583242734728013
6637.101613002439,0.0033704769510432488,0.0019552834508068896
6637.102612774655,0.0033450423770665506,0.0019516640626024175
6637.10361254687,0.0033174980253570427,0.0019475378812178583
6637.104612319085,0.0032880628630694913,0.0019429784572625069
6637.1056120913,0.0032569935932353082,0.0019380590232897493
6637.106611863515,0.0032245808697243753,0.0019328506970130238
6637.107611635731,0.0031911449658656595,0.0019274210442843233
6637.108611407946,0.003157030961549149,0.0019218330308992265
6637.109611180162,0.0031226035028558514,0.0019161443572511727
6637.110610952377,0.003088241176081986,0.0019104071416889004
6637.111610724592,0.003054330546954413,0.0019046679003175168
6637.112610496807,0.0030212599461867076,0.001898967768545898
6637.113610269023,0.0029894131106391266,0.0018933429252020845
6637.114610041238,0.0029591627870283045,0.0018878251996468883
6637.115609813453,0.002930864368869919,0.001882442847481873
6637.116609585668,0.002904849608809014,0.0018772214708743422
6637.117609357883,0.0028814204819344233,0.0018721850500029685
6637.118609130099,0.002860843374223225,0.001867357050136327
6637.119608902314,0.0028433438768349557,0.0018627615681575743
6637.12060867453,0.0028291025168762736,0.0018584244739598575
6637.121608446745,0.002818251722581685,0.0018543744854637551
6637.12260821896,0.0028108742265982602,0.0018506441068461628
6637.123607991175,0.002807003000856279,0.0018472703806253251
6637.124607763391,0.0028066227252896135,0.0018442954542322013
6637.125607535606,0.002809672723143071,0.001841767007759058
6637.126607307821,0.0028160512265613382,0.001839738602710404
6637.127607080036,0.00282562075160319,0.0018382699939805476
6637.128606852251,0.0028382142736620287,0.0018374274193837202
6637.129606624467,0.0028536418339727707,0.0018372838576017586
6637.130606396682,0.0028716971993261397,0.0018379192283526605
6637.131606168898,0.002892164243179905,0.0018394204921461067
6637.132605941112,0.0029148228000052756,0.0018418815830196287
6637.133605713328,0.0029394538310492197,0.0018454030714052483
6637.134605485543,0.00296584379194682,0.001850091414638576
6637.135605257759,0.0029937881013134,0.001856057635819158
6637.136605029974,0.003023093599262835,0.001863415302545752
6637.137604802188,0.003053579890544158,0.001872277753505712
6637.138604574404,0.0030850795105292557,0.0018827546156254377
6637.139604346619,0.0031174369363128917,0.001894947736220876
6637.140604118835,0.0031505065741105273,0.0019089467037499807
6637.14160389105,0.003184149959332951,0.001924824148031497
6637.142603663266,0.0032182324817688983,0.0019426310141588447
6637.14360343548,0.0032526199888843242,0.001962392008891859
6637.144603207696,0.003287175632146401,0.001984101422552062
6637.145602979911,0.0033217573067446464,0.002007719522943047
6637.146602752127,0.0033562159879284913,0.002033169694419729
6637.147602524342,0.0033903951811784646,0.0020603364587497347
6637.148602296556,0.0034241315812445446,0.002089064472802081
6637.149602068772,0.003457256894807043,0.002119158554347582
6637.150601840987,0.003489600655243831,0.002150384744327324
6637.151601613203,0.003520993777178509,0.002182472383507838
6637.152601385418,0.003551272569728216,0.0022151171714981446
6637.153601157634,0.003580282923617717,0.0022479851745590847
6637.154600929848,0.003607884379643422,0.0022807177357911422
6637.155600702064,0.0036339537801356988,0.0023129372132926884
6637.156600474279,0.003658388229163945,0.002344253437723033
6637.157600246494,0.003681107157302318,0.0023742707457822315
6637.15860001871,0.0037020534023549856,0.0024025954136825426
6637.159599790924,0.0037211933676337718,0.0024288432940316003
6637.16059956314,0.0037385164689743376,0.002452647459613306
6637.161599335355,0.003754034170211304,0.002473665673901768
6637.162599107571,0.003767778893156346,0.002491587520381708
6637.163598879786,0.0037798029941352182,0.0025061410119673654
6637.164598652002,0.003790177889692741,0.0025170984755436623
6637.165598424216,0.0037989933364173324,0.0025242814964579743
6637.166598196432,0.0038063568255382344,0.0025275647347817996
6637.167597968647,0.0038123930186260394,0.0025268784775391837
6637.168597740862,0.0038172431074761865,0.00252220984533642
6637.169597513078,0.0038210639288616174,0.0025136026251081516
6637.170597285292,0.0038240266271282568,0.0025011557633428253
6637.171597057508,0.0038263146738584134,0.0024850206202258664
6637.172596829723,0.0038281211421092526,0.002465397133597319
6637.173596601939,0.003829645255180609,0.0024425290607353145
6637.174596374154,0.00383108831404045,0.0024166984655359506
6637.17559614637,0.00383264911229584,0.002388219619063463
6637.176595918584,0.0038345189030969335,0.0023574324880482273
6637.1775956908,0.0038368759641393265,0.0023246959836373247
6637.178595463015,0.0038398798678199873,0.0022903811252267324
6637.17959523523,0.003843665687342161,0.0022548642567071947
6637.180595007446,0.0038483384895926964,0.0022185204460365405
6637.18159477966,0.0038539685198882073,0.002181717197903948
6637.182594551876,0.0038605874509671854,0.0021448086075374854
6637.183594324091,0.0038681859717785137,0.002108130083113236
6637.184594096307,0.003876712878347242,0.0020719937635991312
6637.185593868522,0.003886075739285587,0.002036684749423088
6637.186593640738,0.003896143145155566,0.002002458235637598
6637.187593412952,0.003906748480580265,0.0019695375920722193
6637.188593185168,0.00391769505066,0.0019381133889246529
6637.189592957383,0.003928762257895235,0.001908343340107842
6637.190592729598,0.003939712408745074,0.0018803531323476144
6637.191592501814,0.003950297689080214,0.0018542381049532156
6637.192592274028,0.00396026691796257,0.0018300657258624512
6637.193592046244,0.003969371831851113,0.0018078787769808034
6637.194591818459,0.0039773727687371216,0.0017876991255095778
6637.195591590675,0.003984043644415043,0.0017695319181799413
6637.19659136289,0.003989176069808847,0.0017533699904531128
6637.197591135105,0.003992582436307134,0.0017391982422669016
6637.19859090732,0.003994097848599207,0.0017269977146221512
6637.199590679536,0.003993580900032514,0.001716749123440287
6637.200590451751,0.003990913425400992,0.0017084356705342417
6637.201590223966,0.003985999491665488,0.0017020450372814979
6637.202589996181,0.003978763964250349,0.001697570544876571
6637.203589768396,0.0039691510054179705,0.0016950115208956345
6637.204589540612,0.003957122841107701,0.0016943729545288828
6637.205589312827,0.003942659083622019,0.0016956645619844893
6637.206589085043,0.003925756803404176,0.0016988994092622276
6637.207588857258,0.003906431398989976,0.0017040922365216774
6637.208588629473,0.0038847181517447683,0.001711257600369692
6637.209588401688,0.0038606742155552873,0.0017204079179437995
6637.210588173904,0.0038343807123355973,0.0017315514754362253
6637.211587946119,0.0038059445992422317,0.0017446904536798451
6637.212587718334,0.0037755000381626577,0.001759819015211251
6637.213587490549,0.003743209087404008,0.0017769214844565297
6637.214587262764,0.0037092615889628266,0.0017959706392895252
6637.21558703498,0.0036738741293637425,0.001816926128635776
6637.216586807195,0.0036372879564137116,0.0018397330425171238
6637.217586579411,0.0035997657879069294,0.0018643206824257394
6637.218586351626,0.003561587553892489,0.0018906016004322736
6637.219586123841,0.003523045241720515,0.0019184709870207547
6637.220585896056,0.003484437126192217,0.0019478064857153283
6637.221585668272,0.003446061727879901,0.001978468494071918
6637.222585440487,0.003408211828035984,0.002010300976389295
6637.223585212702,0.0033711687938647963,0.002043132769447979
6637.224584984917,0.0033351973804815033,0.002076779317787695
6637.225584757132,0.003300541123236817,0.002111044742556591
6637.226584529348,0.0032674184333413765,0.002145724142497677
6637.227584301563,0.0032360195334279144,0.002180606050851293
6637.228584073779,0.0032065043679286405,0.002215475012053929
6637.229583845994,0.003179001568021877,0.0022501142718620555
6637.230583618209,0.0031536084557494846,0.0022843085773021463
6637.231583390424,0.0031303919733028595,0.0023178470592412894
6637.23258316264,0.0031093903554366264,0.0023505261326934226
6637.233582934855,0.0030906153363778957,0.0023821523108890135
6637.23458270707,0.003074054674840645,0.0024125447972900707
6637.235582479285,0.003059674762477078,0.002441537704237425
6637.2365822515,0.003047423064134203,0.0024689817598132556
6637.237582023716,0.003037230170150684,0.0024947454151273405
6637.238581795931,0.003029011343886397,0.0025187153490319673
6637.239581568147,0.0030226675903618706,0.0025407964632219826
6637.240581340362,0.0030180863992505563,0.002560911533158461
6637.241581112577,0.0030151423845844144,0.0025790007047826113
6637.242580884792,0.0030136980443313355,0.002595021005012736
6637.243580657007,0.0030136048238115433,0.0026089459865329613
6637.244580429223,0.0030147046271539074,0.0026207655764242466
6637.245580201438,0.003016831891852271,0.0026304861554515614
6637.246579973653,0.0030198163040730023,0.002638130860552645
6637.247579745868,0.003023486167180218,0.0026437400716109553
6637.248579518084,0.0030276723420019675,0.002647372011811615
6637.249579290299,0.003032212573111202,0.0026491033608531537
6637.250579062515,0.003036955931500719,0.0026490297553512666
6637.25157883473,0.0030417670693607783,0.0026472660326341043
6637.252578606945,0.003046530008330256,0.0026439460662297364
6637.25357837916,0.0030511512490885824,0.002639222054110569
6637.254578151375,0.0030555620513170595,0.0026332631636223117
6637.255577923591,0.0030597197537446104,0.002626253502137591
6637.256577695806,0.003063607999241135,0.0026183894457767315
6637.257577468021,0.00306723575198699,0.0026098763966185476
6637.258577240236,0.003070635080989621,0.002600925043859505
6637.259577012452,0.0030738578281160824,0.002591747191647418
6637.260576784667,0.0030769714291603843,0.002582551214937634
6637.261576556883,0.0030800542531458273,0.002573537233300044
6637.262576329097,0.0030831908384589364,0.00256489214630073
6637.2635761013125,0.0030864673522313433,0.002556784733003277
6637.264575873528,0.0030899675211099277,0.0025493610579721267
6637.265575645743,0.003093769203752878,0.0025427404266158775
6637.266575417959,0.0030979417057194814,0.0025370120938532524
6637.267575190173,0.0031025438752175596,0.002532232876001064
6637.268574962389,0.0031076229597603016,0.0025284257676167882
6637.269574734604,0.0031132141477472402,0.0025255796215367878
6637.27057450682,0.00311934067375873,0.0025236499027898288
6637.271574279035,0.003126014347457573,0.002522560475817931
6637.272574051251,0.003133236379112032,0.002522206337271776
6637.273573823465,0.00314099840209661,0.002522457172003853
6637.2745735956805,0.00314928360362407,0.0025231615880473525
6637.275573367896,0.00315806785452065,0.002524151864050592
6637.276573140111,0.0031673206958530986,0.0025252490092275114
6637.277572912327,0.0031770060353952406,0.0025262679098984526
6637.278572684541,0.0031870824582632324,0.0025270223567207795
6637.279572456757,0.00319750315279498,0.002527329820500028
6637.280572228972,0.0032082155561293127,0.002527015925518528
6637.281572001188,0.003219160898917069,0.0025259186029092636
6637.282571773403,0.003230273860516787,0.0025238918827787085
6637.2835715456185,0.0032414825380467902,0.0025208092365147767
6637.284571317833,0.003252708900231182,0.0025165663559270617
6637.2855710900485,0.0032638698580060342,0.002511083280364816
6637.286570862264,0.003274879041686518,0.002504305844445226
6637.287570634479,0.0032856493137056737,0.002496206478536535
6637.288570406695,0.00329609595230342,0.002486784424983301
6637.289570178909,0.0033061403245754294,0.002476065438281332
6637.290569951125,0.003315713762861509,0.002464101032215499
6637.29156972334,0.0033247613089354257,0.002450967331234908
6637.292569495556,0.0033332450127572535,0.00243676358002346
6637.293569267771,0.0033411465411276077,0.00242161036193775
6637.2945690399865,0.0033484689178865943,0.0024056475693132536
6637.295568812201,0.0033552372487894206,0.0023890321566749024
6637.2965685844165,0.003361498290721343,0.0023719356949929125
6637.297568356632,0.0033673187536338127,0.002354541733570811
6637.298568128847,0.003372782317936115,0.00233704297071623
6637.299567901063,0.003377985503736603,0.0023196382406110876
6637.300567673277,0.0033830326854870263,0.0023025293383770137
6637.301567445493,0.0033880306467339227,0.002285917719578565
6637.302567217708,0.0033930830937700684,0.0022700011237392712
6637.303566989924,0.0033982855181787755,0.0022549701913743537
6637.304566762139,0.0034037207545248183,0.002241005174368201
6637.3055665343545,0.0034094555313925103,0.0022282728724512197
6637.306566306569,0.003415538241807073,0.002216923948770913
6637.3075660787845,0.003421998046969619,0.002207090773301251
6637.308565851,0.0034288452854647133,0.002198885910550032
6637.309565623215,0.003436073016854496,0.002192401311094201
6637.310565395431,0.003443659416205964,0.002187708195276755
6637.311565167645,0.003451570682093502,0.002184857545998776
6637.312564939861,0.003459764133811376,0.0021838810666859818
6637.313564712076,0.003468191232239447,0.002184792416482501
6637.314564484292,0.0034768003206376973,0.0021875885122635192
6637.315564256507,0.003485538916759923,0.0021922506896462648
6637.3165640287225,0.003494355405412886,0.002198745546352738
6637.317563800937,0.0035032000159746493,0.0022070253563665964
6637.3185635731525,0.0035120250450049835,0.0022170280388100067
6637.319563345368,0.0035207843939702547,0.0022286767639036788
6637.320563117583,0.003529432611973367,0.00224187934062922
6637.321562889799,0.003537923729375187,0.002256527538514536
6637.322562662013,0.0035462102065392164,0.002272496460923992
6637.323562434229,0.0035542422901916055,0.002289644034498916
6637.324562206444,0.003561967987503189,0.002307810636501813
6637.32556197866,0.003569333769892155,0.0023268188714815645
6637.326561750875,0.003576286031642489,0.0023464735343445065
6637.32756152309,0.0035827732600940726,0.0023665618382573846
6637.328561295305,0.0035887488138906733,0.0023868540160885223
6637.32956106752,0.0035941741396510146,0.002407104409041763
6637.330560839736,0.0035990221883278207,0.002427053135844679
6637.331560611951,0.003603280745307849,0.0024464283985399927
6637.332560384166,0.0036069553877240063,0.002464949438074005
6637.333560156381,0.00361007182375283,0.002482330112315617
6637.334559928597,0.0036126774148625865,0.002498283031872177
6637.335559700812,0.0036148416994154554,0.002512524157633238
6637.336559473028,0.0036166557402376193,0.002524777745087801
6637.337559245243,0.003618230171828102,0.002534781509896339
6637.338559017458,0.003619691964524325,0.002542291869216717
6637.339558789673,0.003621180114134467,0.0025470890778369463
6637.340558561888,0.0036228406191166356,0.0025489820472452372
6637.341558334104,0.0036248211619646893,0.002547812637767972
6637.342558106319,0.0036272658663194625,0.0025434592606060394
6637.343557878534,0.0036303104026955946,0.002535839701538357
6637.344557650749,0.003634077621811804,0.0025249131479510066
6637.345557422965,0.0036386738388713554,0.0025106814453561273
6637.34655719518,0.0036441858702418784,0.0024931896340596588
6637.347556967396,0.0036506789090943164,0.0024725258343829375
6637.348556739611,0.0036581952917123816,0.0024488205657031714
6637.3495565118255,0.003666754142118319,0.0024222455982827137
6637.350556284041,0.003676351808456125,0.0023930124376900573
6637.351556056256,0.0036869629545595506,0.0023613705197891802
6637.352555828472,0.003698542160805041,0.0023276051520050777
6637.353555600687,0.0037110258977561643,0.0022920351880567117
6637.354555372902,0.0037243347255696726,0.0022550103833409293
6637.355555145117,0.003738375536493337,0.0022169083528685027
6637.356554917333,0.003753043637032923,0.002178131043456839
6637.357554689548,0.0037682244971493,0.002139100638246048
6637.358554461764,0.0037837950739862207,0.0021002548337625236
6637.359554233979,0.0037996247234985065,0.0020620414633139568
6637.3605540061935,0.0038155758213328714,0.0020249124892790663
6637.361553778409,0.0038315042951884244,0.00198931745858602
6637.362553550624,0.0038472602886364792,0.0019556965963570304
6637.36355332284,0.003862689116198142,0.0019244737695463174
6637.364553095055,0.003877632564120753,0.0018960495687912087
6637.36555286727,0.003891930503291087,0.0018707947414284569
6637.366552639485,0.0039054227505404757,0.0018490441747468854
6637.367552411701,0.003917951127097202,0.0018310915851362378
6637.368552183916,0.003929361668692401,0.0018171850255774154
6637.369551956132,0.003939506913325211,0.001807523286111071
6637.370551728347,0.003948248151768027,0.0018022532248348334
6637.3715515005615,0.00395545751293426,0.0018014680240669525
6637.372551272777,0.0039610197873742444,0.0018052063199531275
6637.373551044992,0.003964833949678436,0.001813452117080366
6637.374550817208,0.003966814387683169,0.0018261353884814256
6637.375550589423,0.003966891852092444,0.0018431332796663767
6637.376550361638,0.003965014107463082,0.0018642718670822344
6637.377550133853,0.003961146235640515,0.001889328444284597
6637.378549906069,0.003955270560561568,0.0019180343141813768
6637.379549678284,0.003947386238792451,0.0019500780580937126
6637.3805494505,0.0039375086624003595,0.0019851092381946694
6637.381549222715,0.003925668898434818,0.002022742474106615
6637.3825489949295,0.003911913398878149,0.002062561826849134
6637.383548767145,0.003896304150334069,0.002104125430515067
6637.38454853936,0.0038789193319894656,0.0021469703244116406
6637.385548311576,0.0038598544597382134,0.002190617442128493
6637.386548083791,0.0038392239263460868,0.0022345767139885335
6637.387547856006,0.003817162783448088,0.0022783522519143565
6637.388547628221,0.0037938285384133937,0.002321447611292986
6637.389547400437,0.0037694026740605394,0.002363371143441799
6637.390547172652,0.003744091574869133,0.002403641447851214
6637.391546944868,0.0037181265830640575,0.0024417929092226042
6637.392546717082,0.003691763008147749,0.0024773812789515067
6637.3935464892975,0.0036652780390585573,0.0025099892453081763
6637.394546261513,0.0036389676039173535,0.0025392319247774485
6637.395546033728,0.0036131422498009015,0.0025647621899902427
6637.396545805944,0.0035881220937979087,0.0025862757305635076
6637.397545578158,0.003564230895424681,0.0026035157288337102
6637.398545350374,0.003541789369557533,0.0026162770209792402
6637.399545122589,0.0035211079795821627,0.0026244096015426203
6637.400544894805,0.0035024795597999037,0.0026278213240714544
6637.40154466702,0.0034861721668278064,0.002626479665585647
6637.402544439236,0.003472422542564869,0.002620412455038222
6637.40354421145,0.0034614305034419853,0.0026097075005518376
6637.4045439836655,0.0034533544824630258,0.0025945110855035663
6637.405543755881,0.0034483083707730704,0.0025750253539033085
6637.406543528096,0.0034463597413898813,0.002551504673161691
6637.407543300312,0.003447529470961493,0.00252425112608724
6637.408543072526,0.0034517926859009107,0.002493609319003979
6637.409542844742,0.0034590808540784874,0.002459960692395846
6637.410542616957,0.003469284757616521,0.002423717498892583
6637.411542389173,0.003482258047947574,0.0023853165905679723
6637.412542161388,0.0034978210982022557,0.0023452131408814502
6637.413541933604,0.003515764897005674,0.002303874412248625
6637.414541705818,0.003535854743443572,0.002261773665138447
6637.415541478033,0.0035578335119070986,0.002219384290866548
6637.416541250249,0.003581424297774179,0.0021771742390297227
6637.417541022464,0.0036063323649407945,0.002135600796948799
6637.41854079468,0.0036322464786747327,0.002095105761050977
6637.419540566894,0.0036588398614990805,0.002056111029808378
6637.42054033911,0.00368577110196235,0.002019014652790655
6637.421540111325,0.0037126853628180827,0.0019841873817865855
6637.422539883541,0.0037392161912254023,0.0019519697760499225
6637.423539655756,0.0037649881515726246,0.0019226699102144768
6637.424539427972,0.0037896204041286546,0.0018965617139850674
6637.425539200186,0.003812731256677246,0.0018738839303039454
6637.426538972401,0.003833943627820421,0.0018548396207885133
6637.427538744617,0.003852891278493016,0.0018395960978343838
6637.428538516832,0.003869225586786721,0.0018282851473317588
6637.429538289048,0.003882622560011368,0.001821003433403681
6637.430538061262,0.0038927897194707293,0.0018178130292259603
6637.431537833478,0.0038994724947063212,0.001818742059197217
6637.432537605693,0.003902459834284338,0.001823785437839525
6637.433537377909,0.0039015888379143526,0.001832905652002659
6637.434537150124,0.003896748279832033,0.0018460334898482166
6637.435536922339,0.0038878809056132795,0.0018630686110344126
6637.436536694554,0.00387498438416246,0.0018838798874130796
6637.437536466769,0.0038581108437471708,0.001908305504576887
6637.438536238985,0.003837365038548668,0.001936152883421562
6637.4395360112,0.0038129013477501074,0.001967198548285948
6637.440535783416,0.0037849199390086997,0.0020011881195500436
6637.44153555563,0.003753662476994776,0.0020378366242587015
6637.442535327846,0.0037194077107006304,0.0020768292956003655
6637.443535100061,0.0036824671617547615,0.0021178229876883435
6637.444534872277,0.0036431810134555168,0.0021604482790445584
6637.445534644492,0.0036019142096086107,0.002204312277784564
6637.446534416707,0.003559052728013735,0.0022490020814315524
6637.447534188922,0.003514999982572486,0.002294088801738337
6637.448533961137,0.0034701733028252814,0.002339132047272237
6637.449533733353,0.0034250004162457116,0.002383684760174652
6637.450533505568,0.003379915815147705,0.0024272983290948924
6637.451533277784,0.0033353568552790267,0.0024695279446170773
6637.452533049998,0.0032917594447753893,0.0025099382025928784
6637.453532822214,0.003249553243519408,0.002548108966292978
6637.454532594429,0.003209156361122051,0.0025836414665066122
6637.455532366645,0.003170969576323231,0.002616164567973038
6637.45653213886,0.00313537011394701,0.0026453410759486253
6637.4575319110745,0.0031027050530306544,0.0026708739009120262
6637.45853168329,0.0030732845203929023,0.0026925118448666375
6637.459531455505,0.0030473749235371086,0.002710054729886932
6637.460531227721,0.0030251925598806084,0.0027233575720054517
6637.461530999936,0.003006897981063216,0.0027323335234515893
6637.462530772151,0.002992591477295536,0.0027369553673149043
6637.463530544366,0.0029823099827255874,0.0027372554342288587
6637.464530316582,0.0029760256187648377,0.0027333238949091283
6637.465530088797,0.0029736460140028656,0.0027253054615836215
6637.4665298610125,0.002975016459272126,0.0027133946239408014
6637.467529633228,0.002979923851763652,0.0026978296570721876
6637.4685294054425,0.002988102251805022,0.002678885745348981
6637.469529177658,0.002999239748951809,0.0026568676297725625
6637.470528949873,0.0030129862522930875,0.002632102186012824
6637.471528722089,0.003028961814923391,0.0026049312859348626
6637.472528494304,0.0030467651706864917,0.0025757052137830626
6637.473528266519,0.003065982256790451,0.0025447768186230542
6637.474528038734,0.003086194562277911,0.002512496495676993
6637.47552781095,0.003106987157438917,0.0024792080110282145
6637.476527583165,0.0031279562485300263,0.002445245127157126
6637.4775273553805,0.0031487161085977764,0.002410928951567002
6637.478527127596,0.003168905281682535,0.0023765659130863897
6637.4795268998105,0.0031881920398920006,0.002342446267339293
6637.480526672026,0.003206279167678377,0.00230884303632598
6637.481526444241,0.003222908213427614,0.0022760112875031832
6637.482526216457,0.003237863343952195,0.0022441876585580062
6637.483525988672,0.00325097486433684,0.002213590045166312
6637.484525760887,0.0032621223746581813,0.002184417389575844
6637.485525533102,0.003271237477310793,0.002156849531085213
6637.486525305318,0.003278305930899558,0.00213104710302892
6637.487525077533,0.0032833691398495486,0.002107151478318955
6637.4885248497485,0.0032865248463765408,0.0020852847646058675
6637.489524621964,0.0032879268511816434,0.00206554983176285
6637.4905243941785,0.0032877835522774476,0.0020480303411698915
6637.491524166394,0.003286355094963403,0.0020327907596770917
6637.492523938609,0.0032839490007367292,0.0020198763745756655
6637.493523710825,0.003280914269868403,0.00200931334943972
6637.49452348304,0.0032776340594185245,0.0020011088546083426
6637.495523255255,0.003274517071812204,0.0019952512814300242
6637.49652302747,0.0032719877758595143,0.001991710532626887
6637.497522799686,0.00327047559588364,0.0019904383837493684
6637.498522571901,0.003270403282363483,0.0019913689199265727
6637.4995223441165,0.003272174793816756,0.00199441905379591
6637.500522116332,0.003276163127191731,0.0019994891298247244
6637.501521888546,0.0032826985992578796,0.002006463630082057
6637.502521660762,0.003292058088736741,0.002015212016334912
6637.503521432977,0.00330445569814953,0.002025589758304836
6637.504521205193,0.0033200352019821452,0.0020374395921865128
6637.505520977408,0.003338864542139891,0.002050593024128508
6637.506520749623,0.003360932539348503,0.0020648720546148237
6637.507520521838,0.0033861479143961256,0.002080091070362663
6637.508520294054,0.0034143406325046126,0.002096058837184761
6637.509520066269,0.0034452654771541676,0.0021125805252659867
6637.5105198384845,0.0034786076448980524,0.0021294597044920274
6637.5115196107,0.0035139900753584784,0.0021465002664171557
6637.512519382914,0.0035509822079448678,0.0021635082603964706
6637.51351915513,0.003589109854823488,0.0021802936572594017
6637.514518927345,0.0036278658572933466,0.002196672057362959
6637.515518699561,0.003666721150323919,0.002212466344338226
6637.516518471776,0.0037051358306457523,0.0022275082666945683
6637.517518243991,0.003742569837607495,0.0022416399166654264
6637.518518016206,0.003778492924515663,0.002254715074086343
6637.519517788422,0.003812393717010693,0.002266600393106477
6637.520517560637,0.0038437878042368676,0.002277176424057781
6637.521517332852,0.0038722249455553294,0.002286338473625662
6637.522517105067,0.003897295547061111,0.0022939973107221952
6637.523516877282,0.003918636544935099,0.0023000797253079656
6637.524516649498,0.003935936754622432,0.00230452894946579
6637.525516421713,0.0039489416570044145,0.002307304958504489
6637.526516193929,0.003957457528891012,0.00230838467647903
6637.527515966143,0.003961354786055394,0.00230776210218376
6637.528515738359,0.003960570376896702,0.0023054483479980105
6637.529515510574,0.003955109044944924,0.0023014715585680046
6637.53051528279,0.003945043292198962,0.002295876665730093
6637.531515055005,0.003930511931079518,0.0022887249486867513
6637.53251482722,0.00391171718537685,0.0022800933966683205
6637.533514599435,0.00388892036257569,0.002270073896375621
6637.53451437165,0.0038624361638926654,0.0022587722729196106
6637.535514143866,0.003832625722555337,0.0022463071980479907
6637.536513916081,0.0037998884708998456,0.0022328089573060922
6637.537513688297,0.003764652960963412,0.002218418062078905
6637.538513460511,0.0037273668292705808,0.0022032837122192912
6637.539513232727,0.0036884861997263075,0.0021875621449442694
6637.540513004942,0.0036484649278769117,0.002171414927921654
6637.541512777158,0.0036077441663945474,0.002155007265017817
6637.542512549373,0.003566742741745883,0.002138506384481006
6637.543512321588,0.0035258487684828666,0.0021220800691184
6637.544512093803,0.0034854128157830017,0.002105895360045255
6637.545511866018,0.003445742812879741,0.002090117422186544
6637.546511638234,0.0034071007583665242,0.0020749085218127747
6637.547511410449,0.00336970120424138,0.0020604270575981256
6637.548511182665,0.003333711431107836,0.0020468266035476414
6637.549510954879,0.0032992531962103677,0.0020342549372686716
6637.550510727095,0.0032664058855286,0.002022853025735725
6637.55151049931,0.0032352108307797576,0.0020127539347167714
6637.5525102715255,0.003205676493206902,0.0020040816316179936
6637.553510043741,0.0031777841921366086,0.001996949664025951
6637.554509815956,0.0031514940560150723,0.001991459711776746
6637.555509588171,0.0031267508703821706,0.001987700031167493
6637.556509360386,0.0031034894929603753,0.0019857438432721013
6637.557509132602,0.003081639542643998,0.0019856477592562934
6637.558508904817,0.003061129179265153,0.0019874503611594175
6637.559508677033,0.0030418879476822327,0.0019911710493091136
6637.560508449247,0.00302384879638649,0.0019968092344157147
6637.561508221463,0.0030069494519517773,0.002004343909790473
6637.562507993678,0.002991133338940639,0.002013733593388986
6637.5635077658935,0.0029763502076845935,0.0020249165831234765
6637.564507538109,0.0029625565890994913,0.002037811434897346
6637.565507310324,0.002949716145740273,0.0020523175723255846
6637.566507082539,0.0029377999460989974,0.0020683159796586726
6637.567506854754,0.0029267866679656696,0.0020856699941274055
6637.56850662697,0.0029166627305509795,0.0021042262618353206
6637.569506399185,0.002907422344283423,0.00212381592962136
6637.570506171401,0.0028990674419155133,0.0021442561201778605
6637.571505943615,0.0028916074290526858,0.0021653516962016816
6637.572505715831,0.002885058690847784,0.002186897273464417
6637.573505488046,0.0028794438158230634,0.002208679406671118
6637.5745052602615,0.0028747905220039686,0.0022304788667285107
6637.575505032477,0.0028711302796830267,0.0022520729577593466
6637.576504804692,0.0028684966307123776,0.0022732378608106125
6637.577504576907,0.0028669232174004626,0.002293751011267365
6637.578504349122,0.0028664415544924194,0.002313393517572196
6637.579504121338,0.0028670786119383844,0.00233195262288227
6637.580503893553,0.0028688543338882644,0.0023492242013113005
6637.581503665769,0.0028717792851833267,0.0023650152602248103
6637.582503437983,0.002875852651235677,0.0023791463956001134
6637.583503210199,0.0028810607943453186,0.002391454141366724
6637.584502982414,0.00288737649817466,0.0024017931785572776
6637.5855027546295,0.0028947589434463747,0.0024100384052146177
6637.586502526845,0.002903154383798294,0.0024160868785317725
6637.587502299059,0.002912497447492707,0.002419859619603083
6637.588502071275,0.0029227129688182254,0.0024213032446793533
6637.58950184349,0.002933718227913959,0.002420391376083527
6637.590501615706,0.002945425438517119,0.0024171257800984325
6637.591501387921,0.002957744287847591,0.002411537153284107
6637.592501160136,0.0029705843324303715,0.00240368542954099
6637.593500932351,0.0029838570957713296,0.002393659438626441
6637.594500704567,0.002997477764254209,0.0023815757518051237
6637.595500476782,0.0030113663954155078,0.002367576610796004
6637.5965002489975,0.0030254485458725586,0.002351826928664306
6637.597500021213,0.0030396552489762004,0.0023345104533826692
6637.598499793427,0.0030539223612748275,0.0023158252868827186
6637.599499565643,0.0030681894286577645,0.002295979035346939
6637.600499337858,0.003082398336291399,0.002275183898932571
6637.601499110074,0.0030964920503964914,0.0022536519780482728
6637.602498882289,0.0031104137253792153,0.002231591000443275
6637.603498654504,0.003124106366689976,0.0022092005974643477
6637.604498426719,0.00313751314679258,0.002186669205033049
6637.605498198935,0.0031505783903194792,0.0021641716341544667
6637.60649797115,0.0031632491808718938,0.002141867332567017
6637.6074977433655,0.0031754774971707953,0.0021198993377654803
6637.608497515581,0.0031872227520102483,0.0020983939046246413
6637.609497287795,0.003198454563686672,0.0020774607752443415
6637.610497060011,0.0032091555293125087,0.0020571940363844268
6637.611496832226,0.0032193237221488087,0.0020376734770023866
6637.612496604442,0.0032289746437945627,0.00201896631803537
6637.613496376657,0.003238142430561554,0.0020011291494004125
6637.614496148872,0.003246880192095369,0.0019842098923039176
6637.615495921087,0.00325525939633317,0.0019682496208700937
6637.616495693303,0.0032633682081186716,0.001953284119836366
6637.617495465518,0.003271308693877261,0.0019393451028102272
6637.618495237733,0.0032791928823514,0.001926461053746088
6637.619495009949,0.0032871378286644017,0.0019146576909028188
6637.620494782163,0.0032952600033847017,0.0019039580987105498
6637.621494554379,0.003303669443328154,0.0018943826140418285
6637.622494326594,0.003312464129191001,0.001885948561740143
6637.62349409881,0.003321725013126321,0.001878669908963981
6637.624493871025,0.0033315120286631205,0.0018725568762156376
6637.62549364324,0.0033418612948264287,0.0018676155262198591
6637.626493415455,0.0033527836005387817,0.0018638473536375466
6637.627493187671,0.0033642641448250058,0.001861248914974194
6637.628492959886,0.0033762634160560295,0.001859811555331472
6637.629492732101,0.0033887190162691667,0.0018595212840727961
6637.630492504317,0.0034015481835213703,0.0018603588164494908
6637.631492276531,0.0034146507529199998,0.0018622997517330738
6637.632492048747,0.003427912332056083,0.0018653148265933644
6637.633491820962,0.0034412075314721536,0.0018693701768366753
6637.634491593178,0.003454403143463728,0.0018744275600823157
6637.635491365393,0.0034673611696888853,0.001880444528365999
6637.636491137608,0.0034799415735837004,0.0018873745751905892
6637.637490909823,0.003492004624436324,0.0018951672955724527
6637.638490682039,0.003503412739432295,0.0019037685816059493
6637.639490454254,0.0035140318152979463,0.0019131208384714376
6637.640490226469,0.003523732141406812,0.0019231631665963607
6637.641489998685,0.0035323890629343885,0.0019338314353073377
6637.642489770899,0.003539883593648558,0.0019450581809612724
6637.643489543115,0.0035461031647363275,0.00195677229498588
6637.64448931533,0.003550942651141663,0.0019688985165401654
6637.645489087546,0.0035543057555301838,0.0019813567982047975
6637.646488859761,0.003556106769400553,0.0019940616520117615
6637.647488631976,0.00355627267689302,0.002006921593353412
6637.648488404191,0.0035547455083279945,0.002019838786823615
6637.649488176407,0.0035514847847116274,0.0020327089772706128
6637.650487948622,0.0035464698451407374,0.0020454217721786673
6637.651487720837,0.003539701842025241,0.002057861326659927
6637.652487493052,0.003531205222369848,0.0020699074601792
6637.653487265267,0.00352102856194214,0.002081437197208817
6637.654487037483,0.0035092446552743386,0.0020923266808670175
6637.655486809698,0.0034959497717194253,0.002102453381505089
6637.656486581914,0.003481261975038877,0.002111698521570757
6637.657486354128,0.0034653184098798135,0.0021199496510060463
6637.658486126344,0.003448271527797283,0.0021271033204582294
6637.659485898559,0.003430284369782949,0.0021330678105407038
6637.660485670775,0.0034115251963026307,0.0021377658776072337
6637.66148544299,0.003392161878906422,0.002141137460080117
6637.662485215205,0.003372356487403765,0.0021431422605651023
6637.66348498742,0.0033522604423008293,0.0021437620947921316
6637.664484759635,0.0033320105129008245,0.002143002886473198
6637.665484531851,0.0033117258641119575,0.002140896189235239
6637.666484304066,0.003291506283802074,0.002137500141812785
6637.667484076282,0.003271431639777248,0.002132899812546757
6637.668483848496,0.0032515625193284175,0.002127206938275898
6637.669483620712,0.003231941905224763,0.002120559081645271
6637.670483392927,0.003212597661230645,0.0021131182273812035
6637.671483165143,0.0031935455725435424,0.0021050688420218323
6637.672482937358,0.0031747927259459336,0.0020966154361345434
6637.673482709573,0.003156341077822056,0.002087979668847569
6637.674482481788,0.0031381910796112913,0.0020793970132448997
6637.675482254003,0.0031203451877594842,0.0020711129790647537
6637.676482026219,0.003102811018863053,0.0020633788863388776
6637.677481798434,0.003085603888903593,0.0020564471997618484
6637.67848157065,0.00306874854154112,0.002050566460298154
6637.679481342864,0.003052280004738725,0.0020459758843762643
6637.68048111508,0.0030362436539162437,0.002042899740720801
6637.681480887295,0.003020694651990712,0.0020415416536520223
6637.682480659511,0.0030056969689303318,0.0020420790080796876
6637.683480431726,0.00299132216726177,0.002044657639532694
6637.684480203941,0.0029776480994579994,0.002049386986955662
6637.685479976156,0.0029647576302512394,0.002056335875975255
6637.686479748371,0.0029527374888378977,0.002065529091886856
6637.687479520587,0.0029416773538598518,0.0020769448918008795
6637.688479292802,0.002931669245760022,0.0020905135869997388
6637.689479065018,0.002922807240899487,0.0021061172994453667
6637.690478837232,0.0029151874511064856,0.0021235909637326465
6637.691478609448,0.002908908156202312,0.002142724602623466
6637.692478381663,0.002904069951509518,0.0021632668451341867
6637.693478153879,0.0029007757727347403,0.0021849295901897113
6637.694477926094,0.0028991306599707766,0.0022073936677332187
6637.695477698309,0.002899241104733149,0.0022303153302009613
6637.696477470524,0.0029012138128669614,0.002253333415586448
6637.697477242739,0.0029051537518805627,0.0022760770316027374
6637.698477014955,0.002911161447462148,0.0022981735958434602
6637.69947678717,0.002919329628267245,0.0023192570341738334
6637.700476559386,0.002929739444374821,0.0023389759102876435
6637.7014763316,0.0029424565522356214,0.0023570012473746347
6637.702476103816,0.002957527344627489,0.0023730338104155026
6637.703475876031,0.002974975535703095,0.002386810644997667
6637.704475648246,0.0029947992460914686,0.00239811071308179
6637.705475420462,0.003016968709358189,0.0024067595141595683
6637.706475192677,0.0030414247273700483,0.002412632614517015
6637.707474964892,0.003068077994764954,0.0024156580243225546
6637.708474737107,0.003096809362017755,0.0024158173712828046
6637.709474509323,0.0031274710196603378,0.002413145827705693
6637.710474281538,0.003159888492467238,0.0024077307591419666
6637.711474053754,0.003193863260660757,0.002399709090703334
6637.712473825968,0.0032291757928302727,0.002389263446781648
6637.713473598184,0.003265588781788029,0.0023766172022616303
6637.714473370399,0.0033028503992194843,0.0023620286549302094
6637.715473142614,0.0033406974044565235,0.0023457845631342975
6637.71647291483,0.0033788579604627886,0.0023281932905661142
6637.717472687044,0.0034170540577472385,0.002309577780121909
6637.71847245926,0.0034550035442098745,0.002290268558422203
6637.719472231475,0.003492421878342084,0.002270596955557549
6637.720472003691,0.0035290238094671,0.0022508887043357745
6637.721471775906,0.003564525209401451,0.0022314580557460406
6637.722471548122,0.0035986452428733396,0.0022126025168597322
6637.723471320336,0.003631108999528232,0.0021945982897004774
6637.724471092552,0.0036616506516941225,0.002177696461990736
6637.725470864767,0.0036900171642242404,0.002162119965788319
6637.726470636982,0.0037159725494773973,0.0021480612844782527
6637.727470409198,0.003739302605262731,0.0021356808725797568
6637.728470181412,0.0037598199896687282,0.0021251062616218746
6637.729469953628,0.0037773693928572234,0.0021164318394734805
6637.730469725843,0.0037918324943801707,0.0021097192905777332
6637.731469498059,0.0038031323723582812,0.002104998669446354
6637.732469270274,0.003811237060566991,0.0021022700601636118
6637.733469042489,0.0038161620071070603,0.0021015057591331943
6637.734468814704,0.0038179712394843853,0.0021026529056836912
6637.73546858692,0.0038167770664187866,0.002105636467675522
6637.736468359135,0.0038127381660532575,0.00211036246325145
6637.73746813135,0.0038060559701903755,0.0021167212703154
6637.738467903566,0.0037969693800603776,0.002124590851651719
6637.73946767578,0.003785748015521889,0.002133839716125323
6637.740467447996,0.0037726843494812444,0.002144329454143099
6637.741467220211,0.0037580851641392235,0.0021559167329550303
6637.742466992427,0.003742262776943128,0.002168454710461047
6637.743466764642,0.0037255264540969352,0.002181793907495862
6637.744466536857,0.003708174394973381,0.0021957826411965354
6637.745466309072,0.0036904866367936467,0.0022102671490057497
6637.746466081288,0.0036727191753271626,0.0022250915278837014
6637.747465853503,0.0036550995136681694,0.0022400975908387463
6637.748465625718,0.0036378237468048477,0.0022551247194423237
6637.749465397934,0.00362105517736943,0.002270009783749071
6637.750465170148,0.0036049243504515933,0.002284587216412799
6637.751464942364,0.00358953030935996,0.0022986893502646827
6637.752464714579,0.0035749428187097933,0.002312147133392547
6637.753464486795,0.003561205273059015,0.002324791309975419
6637.75446425901,0.00354833800195629,0.0023364541027523843
6637.755464031225,0.0035363416889236336,0.002346971370879245
6637.75646380344,0.003525200641716808,0.0023561851664854554
6637.757463575656,0.003514885694429513,0.0023639465836655256
6637.758463347871,0.0035053565963144876,0.0023701187791152914
6637.759463120086,0.0034965638408022623,0.002374580040314311
6637.760462892302,0.003488449992873004,0.002377226785273983
6637.761462664516,0.0034809506558549953,0.002377976389511265
6637.762462436732,0.0034739952533329754,0.002376769741277695
6637.763462208947,0.003467507790505484,0.0023735734272219964
6637.764461981163,0.0034614077369449553,0.0023683814571445936
6637.765461753378,0.0034556111651729304,0.0023612164547303417
6637.766461525593,0.003450032270331213,0.002352130269471215
6637.767461297808,0.003444585351308713,0.002341203990140918
6637.768461070024,0.003439187246989018,0.0023285473427146386
6637.769460842239,0.0034337601213601313,0.002314297429206415
6637.770460614454,0.003428234414617277,0.002298616729993514
6637.77146038667,0.003422551749840435,0.002281690289998816
6637.772460158884,0.003416667611547538,0.0022637220627029103
6637.7734599311,0.0034105536651367224,0.0022449304801692525
6637.774459703315,0.003404199612153129,0.002225543412531871
6637.775459475531,0.0033976144456854874,0.0022057927473386465
6637.776459247746,0.003390826913656568,0.0021859088510654857
6637.777459019961,0.003383884982996309,0.002166115177436687
6637.778458792176,0.003376854169654683,0.0021466232662864368
6637.779458564392,0.0033698147453493465,0.002127628337034029
6637.780458336607,0.0033628579973674797,0.0021093056282287634
6637.781458108822,0.003356081847344203,0.002091807577252473
6637.782457881037,0.0033495861979651333,0.002075261878901089
6637.783457653252,0.0033434683707250306,0.0020597704132207678
6637.784457425468,0.0033378189443728943,0.0020454089978033255
6637.785457197683,0.0033327182312125007,0.002032227901519573
6637.786456969899,0.00332823355179391,0.0020202530491782874
6637.787456742114,0.0033244173844269817,0.002009487836427499
6637.788456514329,0.003321306372887092,0.0019999154568725638
6637.789456286544,0.003318921090637556,0.0019915016318045333
6637.790456058759,0.003317266407260203,0.0019841976416182273
6637.791455830975,0.003316332293548428,0.001977943581330601
6637.79245560319,0.0033160949302638533,0.001972671777627369
6637.793455375405,0.0033165180326967577,0.001968310295246423
6637.79445514762,0.0033175543351176063,0.001964786429678242
6637.795454919836,0.003319147167148787,0.001962030044718463
6637.796454692051,0.003321232006937752,0.0019599765804817057
6637.797454464267,0.003323737858460878,0.0019585695428074182
6637.798454236481,0.0033265883156872707,0.00195776229780135
6637.799454008697,0.0033297022582982334,0.0019575190360609897
6637.800453780912,0.0033329942514021705,0.0019578148378982794
6637.801453553127,0.0033363748479923894,0.0019586348599720704
6637.802453325343,0.0033397510631572526,0.001959972754274867
6637.803453097558,0.0033430272713105185,0.0019618284878014456
6637.804452869773,0.003346106684180184,0.0019642057405799404
6637.805452641988,0.0033488934432183205,0.0019671090410402644
6637.806452414204,0.0033512952472402537,0.0019705407825111724
6637.807452186419,0.003353226346659013,0.0019744982680953557
6637.808451958635,0.003354610660559465,0.0019789709445035097
6637.809451730849,0.0033553847135354064,0.001983937986950114
6637.8104515030645,0.0033555000746234727,0.0019893663719145393
6637.81145127528,0.0033549250393067813,0.001995209528952161
6637.812451047495,0.0033536454110632253,0.0020014066188407975
6637.813450819711,0.0033516643522791606,0.0020078824552365814
6637.814450591926,0.003349001334400029,0.0020145480592234405
6637.815450364141,0.0033456902187713766,0.0020213017977818823
6637.816450136356,0.0033417764818017585,0.002028031021396503
6637.817449908572,0.0033373136130846583,0.0020346141082361715
6637.818449680787,0.003332358784591285,0.002040922842616639
6637.819449453003,0.0033269679907763595,0.0020468250754458557
6637.820449225217,0.003321190959330497,0.002052187612797593
6637.8214489974325,0.003315066209211495,0.0020568792650789295
6637.822448769648,0.00330861667335128,0.0020607739919076187
6637.823448541863,0.003301846297344277,0.002063754111107015
6637.824448314079,0.0032947379658497763,0.0020657135811551915
6637.825448086294,0.0032872529976085605,0.0020665613761945483
6637.826447858509,0.003279332306993355,0.002066224939936617
6637.827447630724,0.00327089918510181,0.0020646536486009907
6637.82844740294,0.003261863524866679,0.002061822151574367
6637.829447175155,0.003252127202210162,0.0020577333979901803
6637.830446947371,0.003241590236568118,0.0020524211101610674
6637.831446719585,0.0032301573227348254,0.002045951457634912
6637.8324464918005,0.003217744376579439,0.002038423735351718
6637.833446264016,0.0032042848365786357,0.0020299699361503876
6637.834446036231,0.0031897355358137124,0.0020207531943750253
6637.835445808447,0.003174081957256996,0.0020109651461621665
6637.836445580662,0.0031573426300306926,0.002000822303461366
6637.837445352877,0.0031395723872663065,0.001990561571455701
6637.838445125092,0.0031208642555957083,0.0019804350566911566
6637.839444897308,0.0031013498902267606,0.00197070433162106
6637.840444669523,0.0030811986412034686,0.001961634348395138
6637.8414444417385,0.003060615450723544,0.0019534872184512075
6637.842444213953,0.003039837805641866,0.001946516076867435
6637.8434439861685,0.0030191319328722217,0.001940959224375958
6637.844443758384,0.0029987883783975716,0.0019370346931111282
6637.845443530599,0.0029791170877183533,0.0019349353334886272
6637.846443302815,0.0029604421114120412,0.0019348244871281387
6637.847443075029,0.0029430960710254825,0.0019368322952336837
6637.848442847245,0.0029274145108022453,0.0019410526763445016
6637.84944261946,0.0029137302223933973,0.001947540980165
6637.850442391676,0.002902367574167307,0.0019563122988804603
6637.851442163891,0.0028936368280630485,0.0019673404167478855
6637.8524419361065,0.0028878284168430963,0.0019805574013758605
6637.853441708321,0.0028852071944466618,0.001995853862723843
6637.8544414805365,0.00288600672906313,0.0020130799128485347
6637.855441252752,0.0028904237355570567,0.0020320468476909175
6637.856441024967,0.0028986127300075627,0.0020525295405452227
6637.857440797183,0.00291068096506723,0.0020742694924677837
6637.858440569397,0.002926683710952365,0.002096978447286607
6637.859440341613,0.0029466200021719714,0.002120342464587151
6637.860440113828,0.0029704290566337083,0.002144026355882795
6637.861439886044,0.0029979876474529846,0.002167678419832921
6637.862439658259,0.0030291087330806413,0.0021909354471891856
6637.863439430474,0.0030635416204481455,0.0022134279875108513
6637.864439202689,0.0031009738557346315,0.0022347858710747774
6637.8654389749045,0.0031410349186347312,0.002254643970700364
6637.86643874712,0.0031833016590545895,0.0022726481808032677
6637.867438519335,0.003227305290403464,0.002288461584514424
6637.868438291551,0.0032725396648501316,0.002301770765716371
6637.869438063765,0.0033184705101537517,0.002312292193951004
6637.870437835981,0.0033645453069907462,0.0023197785647562814
6637.871437608196,0.0034102035323891333,0.0023240249230541223
6637.872437380412,0.003454887069930531,0.002324874347622422
6637.873437152627,0.0034980506413882285,0.002322222944449868
6637.874436924842,0.003539172103203179,0.0023160238904870924
6637.875436697057,0.003577762374818729,0.0023062902896912106
6637.876436469272,0.0036133746666563936,0.0022930966602672915
6637.877436241488,0.003645612610602399,0.0022765789634562766
6637.878436013703,0.0036741369142236128,0.00225693317347308
6637.879435785919,0.0036986702799825413,0.0022344124310029433
6637.880435558133,0.003719000521684283,0.002209322818643949
6637.881435330349,0.003734982001527135,0.0021820177917692535
6637.882435102564,0.003746535633047473,0.002152891333158983
6637.88343487478,0.0037536477231840367,0.002122369974041019
6637.884434646995,0.0037563678916532543,0.0020909039111150552
6637.88543441921,0.0037548062616397323,0.0020589575213005662
6637.886434191425,0.003749130091085104,0.0020269996135595563
6637.88743396364,0.0037395599984923642,0.0019954937537890335
6637.888433735856,0.0037263659091862564,0.0019648889641467847
6637.889433508071,0.0037098628024797116,0.0019356110485740092
6637.890433280287,0.003690406296115784,0.0019080547477346326
6637.891433052501,0.0036683880871715086,0.001882576891766071
6637.892432824717,0.003644231279640636,0.001859490696966704
6637.893432596932,0.0036183856347321,0.0018390613269272413
6637.894432369148,0.0035913227433539306,0.0018215027971652579
6637.895432141363,0.0035635310430590737,0.0018069762476844201
6637.8964319135775,0.0035355105329369094,0.001795589550403903
6637.897431685793,0.0035077670354419833,0.0017873981646703912
6637.898431458008,0.0034808059215561088,0.001782407103551633
6637.899431230224,0.0034551253098406517,0.0017805738247804663
6637.900431002439,0.003431208830763267,0.0017818118196461824
6637.901430774655,0.0034095181164070024,0.0017859946577483171
6637.902430546869,0.003390485241531939,0.0017929602717335772
6637.903430319085,0.0033745053910998173,0.0018025153291693077
6637.9044300913,0.003361930047140663,0.0018144396066101832
6637.905429863516,0.0033530609787306397,0.0018284903229152706
6637.906429635731,0.003348145287885146,0.001844406404628664
6637.9074294079455,0.0033473717054458858,0.0018619126635522505
6637.908429180161,0.003350868245892764,0.0018807238727453406
6637.909428952376,0.003358701235588399,0.0019005487272678496
6637.910428724592,0.0033708756425406233,0.001921093669737936
6637.911428496807,0.003387336569049813,0.0019420665574490378
6637.912428269022,0.003407971736217601,0.0019631801550389566
6637.913428041237,0.0034326147953785435,0.0019841554489942923
6637.914427813453,0.0034610493166290124,0.0020047247829197163
6637.915427585668,0.003493013286520255,0.002024634798610239
6637.916427357884,0.003528203892355257,0.002043649147347752
6637.917427130099,0.003566282327564955,0.0020615509240542356
6637.9184269023135,0.0036068783749820133,0.0020781447789962695
6637.919426674529,0.0036495946171744217,0.002093258671806513
6637.920426446744,0.003694010235253111,0.0021067452456303443
6637.92142621896,0.0037396844344145135,0.002118482812610436
6637.922425991175,0.0037861595665539824,0.0021283759500383493
6637.92342576339,0.003832964042039159,0.002136355708251223
6637.924425535605,0.00387961516558592,0.002142379436835519
6637.925425307821,0.003925622089249227,0.002146430252141376
6637.926425080036,0.003970489115494982,0.002148516190739647
6637.927424852252,0.004013719572821696,0.002148669110888153
6637.928424624466,0.004054820413571931,0.00214694340897547
6637.9294243966815,0.004093307568093836,0.002143414601547095
6637.930424168897,0.004128711975896338,0.0021381777891708205
6637.931423941112,0.004160586140053382,0.002131345989215793
6637.932423713328,0.0041885110206829135,0.002123048321301433
6637.933423485543,0.004212103076522016,0.0021134280440129934
6637.934423257758,0.004231021249847919,0.0021026404477102246
6637.935423029973,0.004244973642475607,0.0020908505922873142
6637.936422802189,0.004253723555274511,0.0020782308540014467
6637.937422574404,0.004257094512425305,0.0020649582370792095
6637.93842234662,0.004254973923638295,0.0020512114276362175
6637.939422118834,0.0042473151669982535,0.0020371676102635752
6637.9404218910495,0.004234138059346455,0.002022999107709076
6637.941421663265,0.004215527849699154,0.002008869927600512
6637.94242143548,0.004191632970524792,0.00199493231421072
6637.943421207696,0.004162661806821215,0.001981323421350825
6637.944420979911,0.004128878726757542,0.0019681622481436552
6637.945420752126,0.0040905995874816305,0.0019555470019511196
6637.946420524341,0.004048186887392185,0.0019435530540939615
6637.947420296557,0.004002044681007326,0.001932231625256058
6637.948420068772,0.0039526133180697864,0.0019216092868697917
6637.949419840988,0.0039003640289873584,0.0019116883079175818
6637.950419613202,0.0038457933583556365,0.0019024478260307861
6637.9514193854175,0.003789417445639877,0.0018938457852556926
6637.952419157633,0.003731766161710064,0.0018858215604929073
6637.953418929848,0.003673377121557525,0.0018782991706047306
6637.954418702064,0.0036147895928453104,0.0018711909576628622
6637.955418474279,0.0035565382946818533,0.0018644015799870206
6637.956418246494,0.0034991470390640564,0.0018578321455295335
6637.957418018709,0.0034431221475774883,0.0018513843155336751
6637.958417790925,0.0033889456236791344,0.001844964238100113
6637.95941756314,0.003337068186236862,0.0018384862046619003
6637.960417335356,0.0032879024290144304,0.0018318759308930683
6637.96141710757,0.00324181648930843,0.0018250733507552323
6637.962416879785,0.003199128632102553,0.0018180348127140261
6637.963416652001,0.003160103082731006,0.0018107346032453127
6637.964416424216,0.003124947313173532,0.0018031657833660463
6637.965416196432,0.003093810853640283,0.0017953403826742283
6637.966415968647,0.0030667855934568447,0.0017872890363905814
6637.967415740862,0.003043907460985624,0.0017790601758799528
6637.968415513077,0.0030251593180579115,0.0017707188977102702
6637.969415285293,0.0030104748527877744,0.001762345637701118
6637.970415057508,0.0029997432090011693,0.0017540347612894434
6637.971414829724,0.0029928140782309537,0.0017458931544939579
6637.972414601938,0.002989503022852881,0.0017380388652549457
6637.973414374153,0.002989596879245652,0.001730599802391053
6637.974414146369,0.0029928591559364465,0.0017237124546665016
6637.975413918584,0.002999035349870853,0.0017175205640953075
6637.9764136908,0.0030078580598370667,0.0017121736898550125
6637.977413463014,0.003019051731248415,0.0017078256213582373
6637.97841323523,0.0030323368710536234,0.0017046326137328785
6637.979413007445,0.003047433631235668,0.0017027514119532232
6637.980412779661,0.003064064742252012,0.001702337014119608
6637.981412551876,0.0030819578527253714,0.0017035401239779077
6637.982412324092,0.0031008473851363034,0.0017065042681611987
6637.983412096306,0.003120476042960275,0.0017113625930312122
6637.984411868521,0.003140596102581447,0.0017182343888927918
6637.985411640737,0.003160970608257055,0.0017272214080563718
6637.986411412952,0.0031813745779608487,0.0017384040577008474
6637.987411185168,0.0032015963167014664,0.0017518375706248777
6637.988410957382,0.0032214388993415063,0.001767548287800897
6637.989410729598,0.0032407218224936806,0.0017855302163326736
6637.990410501813,0.003259282757388493,0.0018057420383732036
6637.991410274029,0.00327697928802543,0.0018281047284599164
6637.992410046244,0.003293690502851503,0.0018524998953693863
6637.9934098184585,0.0033093183192147908,0.0018787689227986555
6637.994409590674,0.0033237884379205274,0.0019067129567988215
6637.995409362889,0.0033370508266031018,0.001936093773386427
6637.996409135105,0.003349079613010872,0.0019666355479543225
6637.99740890732,0.0033598722652612417,0.001998027537674226
6637.998408679536,0.0033694479866191816,0.0020299276790564334
6637.99940845175,0.003377845357985457,0.0020619670909022233
6638.000408223966,0.0033851193740227128,0.002093755456390253
6638.001407996181,0.0033913380899069866,0.002124887238129875
6638.002407768397,0.0033965791160880357,0.0021549486527847337
6638.003407540612,0.003400926186590428,0.0021835252926357017
6638.0044073128265,0.0034044659932457944,0.0022102102356668387
6638.005407085042,0.003407285421384126,0.0022346124449329563
6638.006406857257,0.003409469251261062,0.002256365225882448
6638.007406629473,0.0034110983329470657,0.002275134481028886
6638.008406401688,0.0034122482170782713,0.0022906264722664564
6638.009406173904,0.0034129882118483926,0.0023025947850435504
6638.010405946118,0.0034133808170254826,0.0023108462075192393
6638.011405718334,0.003413481470649213,0.0023152453000166652
6638.012405490549,0.0034133385560481217,0.0023157175193620457
6638.0134052627645,0.003412993641828543,0.0023122508534800562
6638.01440503498,0.00341248191861278,0.002304895994260587
6638.0154048071945,0.003411832727557911,0.002293765119260552
6638.01640457941,0.003411069979124201,0.002279029365904312
6638.017404351625,0.0034102122122047773,0.0022609150838849273
6638.018404123841,0.0034092721087412314,0.0022396989668089055
6638.019403896056,0.003408255449123819,0.00221570220446292
6638.020403668272,0.0034071596811486296,0.0021892838541892664
6638.021403440486,0.0034059723874858747,0.002160833680208967
6638.022403212702,0.003404669950904959,0.00213076472731782
6638.023402984917,0.003403216675103557,0.002099505870339221
6638.0244027571325,0.00340156457088629,0.0020674945290917028
6638.025402529348,0.003399653975476803,0.002035169688247029
6638.0264023015625,0.0033974151167614455,0.0020029653294549575
6638.027402073778,0.0033947706474715305,0.001971304371953136
6638.028401845993,0.003391639067603685,0.0019405932208037006
6638.029401618209,0.003387938851389363,0.0019112170210574464
6638.030401390424,0.0033835930144834143,0.0018835356920521133
6638.03140116264,0.0033785338085667357,0.0018578807709068613
6638.032400934854,0.0033727072283795197,0.001834553050535149
6638.03340070707,0.0033660770636512126,0.0018138209686855344
6638.034400479285,0.0033586282941127353,0.0017959196833938938
6638.0354002515005,0.0033503696572368263,0.0017810507463829253
6638.036400023716,0.003341335196263879,0.0017693822611362473
6638.0373997959305,0.003331584566801151,0.0017610493965234462
6638.038399568146,0.0033212019200047696,0.0017561551256486839
6638.039399340361,0.003310293323087534,0.0017547710673730124
6638.040399112577,0.0032989828811282405,0.0017569383120016086
6638.041398884792,0.0032874079037037564,0.0017626681093217105
6638.042398657007,0.0032757135533971757,0.0017719423057541855
6638.043398429222,0.003264047416866582,0.0017847134646601375
6638.044398201438,0.0032525543934789885,0.0018009046861404872
6638.045397973653,0.0032413722372056646,0.0018204092184909068
6638.0463977458685,0.0032306280133602818,0.0018430899870330209
6638.047397518084,0.0032204356235107593,0.0018687791626160139
6638.048397290298,0.0032108944082991286,0.0018972778789188393
6638.049397062514,0.0032020886907337533,0.0019283561965084144
6638.050396834729,0.0031940880267220958,0.001961753394351009
6638.051396606945,0.0031869479280432532,0.001997178640843063
6638.05239637916,0.003180710903065413,0.0020343120666537853
6638.053396151375,0.0031754077558194555,0.002072806248882414
6638.05439592359,0.003171059128541268,0.0021122881307500114
6638.055395695806,0.0031676772461147213,0.0021523614334355208
6638.056395468021,0.003165267748494608,0.002192609640227019
6638.0573952402365,0.003163831428270032,0.0022325996284457248
6638.058395012451,0.0031633656725435803,0.0022718859960537395
6638.059394784666,0.00316386546213054,0.0023100160955429267
6638.060394556882,0.003165323889383556,0.002346535759387396
6638.061394329097,0.003167732275984711,0.002380995676516465
6638.062394101313,0.0031710800582558556,0.0024129583452371537
6638.063393873528,0.0031753546292961287,0.0024420054737783682
6638.064393645743,0.0031805412848492738,0.0024677456311333543
6638.065393417958,0.0031866233455429814,0.0024898218919676973
6638.066393190174,0.0031935824568406065,0.0025079191913424566
6638.067392962389,0.0032013990081543003,0.0025217711143517576
6638.0683927346045,0.0032100525557236083,0.0025311658933069394
6638.069392506819,0.0032195220826043993,0.0025359514663394656
6638.070392279034,0.003229785904671022,0.00253603954160661
6638.07139205125,0.0032408210592933273,0.002531408671103055
6638.072391823465,0.0032526020990189743,0.002522106343611483
6638.073391595681,0.0032650993253918693,0.0025082500671689077
6638.074391367896,0.0032782765841674723,0.0024900273558736033
6638.075391140111,0.0032920887670920534,0.0024676944905639557
6638.076390912326,0.003306479140052455,0.0024415739102255974
6638.077390684542,0.003321376591717864,0.00241205012457547
6638.078390456757,0.0033366929139124115,0.0023795641058910583
6638.079390228972,0.003352320292674084,0.0023446061880555546
6638.080390001187,0.003368129278389847,0.002307707559509896
6638.081389773402,0.003383967564300649,0.0022694305011308476
6638.082389545618,0.003399659892840728,0.0022303576026998125
6638.083389317833,0.003415009324971853,0.002191080276479349
6638.084389090049,0.0034297999819782386,0.002152186945575452
6638.085388862264,0.003443801239184097,0.0021142513058259394
6638.086388634479,0.0034567732328541173,0.0020778210517157546
6638.087388406694,0.00346847343332336,0.0020434074331323595
6638.08838817891,0.003478663936154854,0.0020114759719714725
6638.089387951125,0.0034871190373513745,0.0019824386076069803
6638.09038772334,0.003493632611798907,0.0019566474591421463
6638.091387495555,0.0034980248334597883,0.0019343903066963296
6638.09238726777,0.0035001478673792052,0.0019158878206925107
6638.093387039986,0.0034998902957831426,0.0019012925101921563
6638.094386812201,0.003497180159535969,0.0018906893130481443
6638.095386584417,0.003491986565943265,0.0018840977084993383
6638.096386356632,0.003484319845677442,0.0018814751937337407
6638.097386128847,0.0034742302790939272,0.0018827219269309705
6638.098385901062,0.00346180548760394,0.0018876863072472313
6638.0993856732775,0.0034471666952923634,0.0018961712493372827
6638.100385445493,0.0034304641765717362,0.001907940915982246
6638.101385217708,0.0034118722760591007,0.0019227276871841155
6638.102384989923,0.0033915843922165943,0.001940239165318579
6638.103384762138,0.003369808264216731,0.001960165044524234
6638.104384534354,0.0033467618230592342,0.001982183697363733
6638.105384306569,0.0033226697877136646,0.0020059683384992034
6638.106384078785,0.0032977611042449193,0.0020311926176385803
6638.107383850999,0.003272267228963618,0.0020575354966043827
6638.108383623215,0.00324642114893359,0.0020846853020957076
6638.10938339543,0.003220456939717795,0.0021123429171032242
6638.1103831676455,0.0031946096120638915,0.0021402241520565523
6638.111382939861,0.003169115005683613,0.0021680613872859414
6638.112382712076,0.003144209527409211,0.0021956045899570193
6638.113382484291,0.003120129576572387,0.0022226217962561814
6638.114382256506,0.0030971105441766947,0.00224889913215975
6638.115382028722,0.003075385310068285,0.0022742404366484846
6638.116381800937,0.0030551821861063643,0.002298466565585899
6638.117381573153,0.0030367222727133276,0.0023214145009062114
6638.118381345367,0.003020216240463073,0.002342936445077598
6638.119381117583,0.0030058606337110276,0.0023628991023670557
6638.120380889798,0.0029938338976787837,0.002381183316488652
6638.1213806620135,0.0029842924093308448,0.0023976841700238958
6638.122380434229,0.002977366815234805,0.002412311592446935
6638.123380206444,0.002973158948598937,0.0024249914876747942
6638.124379978659,0.002971739536114728,0.0024356673620084582
6638.125379750874,0.002973146833286296,0.0024443023855619515
6638.12637952309,0.0029773862496460394,0.0024508817584912514
6638.127379295305,0.0029844309393989928,0.002455415201746637
6638.128379067521,0.0029942232417871813,0.002457939361057215
6638.129378839735,0.003006676776665624,0.0024585198942096097
6638.130378611951,0.003021678959336771,0.0024572530060374977
6638.131378384166,0.0030390937072070296,0.0024542662158822887
6638.1323781563815,0.003058764158731095,0.0024497181875482972
6638.133377928597,0.0030805152860292123,0.002443797505333273
6638.134377700812,0.0031041563262452026,0.002436720331491724
6638.135377473027,0.0031294829604845142,0.002428726926800496
6638.136377245242,0.0031562791362804462,0.0024200770544457544
6638.137377017458,0.0031843184000405235,0.0024110443312464675
6638.138376789673,0.0032133646372689948,0.0024019096608545822
6638.139376561889,0.0032431722388493807,0.002392953977603404
6638.140376334103,0.0032734858834669728,0.0023844506131804
6638.141376106319,0.0033040402662533595,0.002376657638494069
6638.142375878534,0.0033345601528146666,0.0023698105206905167
6638.1433756507495,0.0033647610995170434,0.002364115381356435
6638.144375422965,0.003394351094025707,0.0023597430698817905
6638.145375195179,0.003423033265744022,0.0023568242036782466
6638.146374967395,0.0034505097048807424,0.002355445292473709
6638.14737473961,0.003476486312738254,0.0023556460524986373
6638.148374511826,0.0035006784864756884,0.002357418005212812
6638.149374284041,0.0035228173270581203,0.002360704422896442
6638.150374056257,0.003542655971792623,0.002365401625972527
6638.151373828471,0.00355997562534902,0.0023713615695990513
6638.152373600687,0.003574590905295984,0.0023783956029602366
6638.153373372902,0.0035863541984927096,0.0023862792582331877
6638.1543731451175,0.0035951588039424107,0.0023947579261836384
6638.155372917333,0.0036009407057993287,0.0024035532880448524
6638.156372689547,0.0036036788885717777,0.0024123703776158076
6638.157372461763,0.0036033941852971893,0.0024209051298117517
6638.158372233978,0.0036001467408083546,0.002428852242454414
6638.159372006194,0.003594032273528834,0.002435913156501124
6638.160371778409,0.003585177423108811,0.002441803946777456
6638.161371550625,0.003573734556536276,0.0024462628965721362
6638.162371322839,0.0035598764360130694,0.0024490575030811815
6638.163371095055,0.0035437911060947997,0.0024499906453886917
6638.16437086727,0.0035256772584382106,0.0024489056679384597
6638.165370639485,0.003505740232348248,0.002445690200857282
6638.166370411701,0.0034841887431559973,0.0024402786386892627
6638.167370183915,0.0034612323897699883,0.002432653299583175
6638.168369956131,0.0034370799448019814,0.0024228443580990313
6638.169369728346,0.0034119383596614653,0.002410928675352536
6638.170369500562,0.0033860123394790784,0.0023970276578425646
6638.171369272777,0.0033595042885851707,0.0023813042890967672
6638.172369044992,0.003332614417357724,0.00236395949744631
6638.173368817207,0.0033055408333348573,0.0023452280242628335
6638.174368589423,0.0032784794839449266,0.002325373928848243
6638.175368361638,0.0032516238409908732,0.0023046858232961334
6638.176368133853,0.0032251642188873583,0.0022834718879999574
6638.177367906069,0.0031992866351236307,0.0022620546796599055
6638.178367678283,0.0031741711768668783,0.0022407657135230163
6638.179367450499,0.003149989922556795,0.002219939792535187
6638.180367222714,0.0031269045584637095,0.0021999090772593486
6638.18136699493,0.00310506390162641,0.0021809969388750035
6638.182366767145,0.0030846015656381507,0.0021635116991513157
6638.18336653936,0.0030656339760441777,0.0021477404150525184
6638.184366311575,0.003048258877676298,0.002133942892440786
6638.185366083791,0.0030325544092850844,0.002122346105343009
6638.186365856006,0.0030185787746703553,0.002113139160209369
6638.187365628221,0.0030063705114001917,0.002106468895833961
6638.188365400436,0.0029959493201227793,0.0021024361731276763
6638.189365172651,0.0029873173501653795,0.002101092903267659
6638.190364944867,0.0029804607617231788,0.002102439888159884
6638.191364717082,0.0029753513487483316,0.002106425584187392
6638.192364489298,0.002971948036416616,0.0021129459223300762
6638.193364261513,0.002970198138064702,0.0021218453085076936
6638.194364033728,0.0029700383128174854,0.0021329188869013316
6638.195363805943,0.0029713951765266314,0.0021459160831091796
6638.196363578159,0.002974185512256321,0.002160545362798258
6638.197363350374,0.0029783160555400825,0.0021764800617226025
6638.198363122589,0.0029836829122358854,0.002193365085603522
6638.199362894804,0.002990170764806534,0.0022108242539458436
6638.200362667019,0.002997652085075514,0.002228468066531232
6638.201362439235,0.0030059865818980345,0.002245901697794154
6638.20236221145,0.0030150210838912617,0.0022627330627626864
6638.203361983666,0.0030245900058991936,0.002278580829945045
6638.204361755881,0.003034516487499795,0.002293082265667851
6638.205361528096,0.003044614238618415,0.002305900783473096
6638.206361300311,0.0030546900905241998,0.002316733052651382
6638.207361072527,0.0030645472230676893,0.002325315496793629
6638.208360844742,0.0030739889999458416,0.0023314299878274027
6638.209360616957,0.0030828232802131237,0.002334908520808017
6638.210360389172,0.0030908670042491186,0.00233563665400891
6638.211360161387,0.003097950811192345,0.0023335555288928984
6638.212359933603,0.0031039234448960347,0.0023286623447742036
6638.213359705818,0.003108655726066266,0.002321009247828276
6638.214359478034,0.0031120438852805005,0.002310700698736774
6638.215359250249,0.0031140120625275406,0.002297889488794071
6638.216359022464,0.0031145138030988554,0.0022827716459374076
6638.217358794679,0.003113532440520499,0.0022655804908307416
6638.218358566895,0.0031110803563653383,0.0022465800836623325
6638.21935833911,0.0031071972213894935,0.0022260582717599535
6638.220358111325,0.003101947428659225,0.002204319522921432
6638.22135788354,0.003095417006827045,0.0021816777157187568
6638.222357655755,0.003087710324604621,0.0021584490566008037
6638.223357427971,0.003078946855119918,0.0021349452967371614
6638.224357200186,0.0030692581895190737,0.002111467415427215
6638.225356972402,0.0030587854172710247,0.0020882999151975706
6638.226356744617,0.0030476769428214243,0.002065705846302797
6638.227356516832,0.003036086766600915,0.0020439226593369515
6638.228356289047,0.0030241732043889513,0.0020231589747253323
6638.229356061263,0.0030120979595224186,0.0020035923461955854
6638.230355833478,0.003000025419487625,0.0019853680750269043
6638.231355605693,0.002988122035855792,0.001968599105018315
6638.232355377908,0.002976555658493518,0.0019533669977658875
6638.233355150123,0.0029654947108640403,0.0019397239523988152
6638.234354922339,0.002955107096435037,0.0019276957906626082
6638.235354694554,0.0029455587206456612,0.0019172857781951397
6638.23635446677,0.0029370115173854624,0.0019084791000818129
6638.237354238984,0.0029296209021667497,0.0019012477579279001
6638.2383540112,0.0029235326507045458,0.0018955556157301823
6638.239353783415,0.002918879323146488,0.0018913633110112457
6638.240353555631,0.002915776486801721,0.0018886327814384431
6638.241353327846,0.0029143190706229618,0.0018873312235266645
6638.242353100061,0.002914578174211647,0.0018874343603969025
6638.243352872276,0.0029165985768612236,0.0018889289209864
6638.244352644491,0.0029203971060052774,0.0018918142308965073
6638.245352416707,0.0029259619656656533,0.0018961028163593692
6638.246352188922,0.002933253089755267,0.0019018199536287822
6638.247351961138,0.0029422035467616984,0.001909002157905669
6638.248351733352,0.0029527219603782883,0.0019176946788837322
6638.249351505568,0.0029646958255906326,0.0019279481368566775
6638.250351277783,0.0029779955172284348,0.0019398144907064802
6638.251351049998,0.00299247874116756,0.0019533425742172938
6638.252350822214,0.003007995176233891,0.0019685734616138612
6638.253350594428,0.0030243910715826417,0.001985535923141528
6638.254350366644,0.003041513570298836,0.0020042422119679773
6638.255350138859,0.0030592145261986396,0.0020246843919338184
6638.256349911075,0.0030773535912849426,0.002046831374602978
6638.25734968329,0.0030958003972013978,0.0020706267835745185
6638.258349455506,0.0031144357460599014,0.002095987705593814
6638.25934922772,0.0031331518570911236,0.0021228043247495357
6638.260348999936,0.0031518518479259736,0.002150940375363811
6638.261348772151,0.0031704487126876114,0.0021802343097047597
6638.262348544366,0.0031888640749581287,0.002210501076631723
6638.263348316582,0.0032070269658658547,0.002241534435579794
6638.264348088796,0.003224872832626187,0.0022731097470429476
6638.265347861012,0.003242342922982189,0.0023049871611870265
6638.266347633227,0.0032593841169775758,0.002336915090011738
6638.267347405443,0.0032759492105658896,0.0023686338328983416
6638.268347177658,0.003291997613087111,0.002399879241614993
6638.269346949874,0.0033074963910846144,0.0024303863417992426
6638.270346722088,0.0033224215541642612,0.002459892860019501
6638.271346494304,0.0033367594411071624,0.0024881426382136495
6638.272346266519,0.0033505080552623467,0.0025148889420999873
6638.273346038734,0.0033636782234398237,0.002539897667306589
6638.27434581095,0.003376294473266133,0.002562950412189376
6638.275345583164,0.003388395503622898,0.0025838473434491777
6638.27634535538,0.003400034081200656,0.002602409761311187
6638.277345127595,0.0034112761915887947,0.002618482291096081
6638.278344899811,0.0034221993408690746,0.0026319346797633193
6638.279344672026,0.003432890028516032,0.00264266322927912
6638.280344444242,0.003443440547966142,0.002650591917454072
6638.281344216456,0.0034539453668311986,0.0026556732330271504
6638.282343988672,0.003464497366730061,0.002657888717887043
6638.283343760887,0.0034751841983115665,0.0026572492036455735
6638.284343533102,0.003486084970122543,0.0026537947525146436
6638.285343305318,0.003497267462178824,0.002647594330463495
6638.286343077532,0.0035087860269367283,0.0026387452309412944
6638.287342849748,0.0035206802910438878,0.0026273722397733993
6638.288342621963,0.003532974687490726,0.0026136265091726966
6638.289342394179,0.0035456787373232576,0.0025976841037808887
6638.290342166394,0.003558787899127206,0.0025797441928037406
6638.29134193861,0.0035722847586899266,0.002560026876747203
6638.292341710824,0.003586140355841501,0.0025387706409871957
6638.29334148304,0.003600315508296716,0.002516229425828042
6638.294341255255,0.0036147620394283626,0.0024926693129533766
6638.29534102747,0.0036294238140270486,0.002468364857403499
6638.296340799686,0.0036442374441567242,0.0024435951307167515
6638.2973405719,0.00365913249543973,0.002418639573742851
6638.298340344116,0.003674031054047848,0.002393773783344544
6638.299340116331,0.0036888466236573354,0.002369265376132266
6638.300339888547,0.003703482478894208,0.00234537008454022
6638.301339660762,0.003717829741432787,0.002322328237016765
6638.302339432977,0.0037317655094053583,0.0023003617406530475
6638.303339205192,0.0037451513586622496,0.002279671625149762
6638.304338977408,0.0037578324917538915,0.002260436155986068
6638.305338749623,0.0037696377727831115,0.002242809518437659
6638.306338521838,0.0037803808507358883,0.0022269211052302466
6638.307338294054,0.003789862521263438,0.002212875458880716
6638.308338066268,0.003797874391954166,0.002200752889280148
6638.309337838484,0.0038042037959965676,0.0021906107200414006
6638.310337610699,0.003808639763460082,0.002182485043702806
6638.311337382915,0.00381097974528222,0.0021763928004320653
6638.31233715513,0.0038110367197455846,0.0021723339469537054
6638.313336927345,0.003808646292095131,0.0021702934741457385
6638.31433669956,0.0038036733992870848,0.0021702430801220744
6638.315336471776,0.003796018233101931,0.002172142397813737
6638.316336243991,0.00378562100718208,0.0021759397759591468
6638.317336016206,0.0037724652539924235,0.002181572685704578
6638.318335788421,0.003756579468842226,0.0021889678575490743
6638.319335560636,0.0037380370986105937,0.0021980412540286974
6638.320335332852,0.0037169550508555672,0.0022086979698219774
6638.321335105067,0.0036934910257933715,0.002220832134589447
6638.322334877283,0.003667840026063001,0.0022343268840976467
6638.323334649498,0.0036402303856892795,0.0022490544701467864
6638.324334421713,0.003610919608563986,0.0022648765925151935
6638.325334193928,0.0035801902442146767,0.0022816450348887417
6638.326333966144,0.0035483459661418645,0.0022992026593213885
6638.327333738359,0.003515707952049975,0.002317384769217662
6638.328333510574,0.003482611582851768,0.0023360208050123826
6638.329333282789,0.0034494033759078866,0.002354936296539318
6638.330333055004,0.0034164379784186855,0.0023739549608720657
6638.33133282722,0.0033840750198023523,0.002392900808044593
6638.332332599435,0.0033526756766842315,0.0024116001107851405
6638.333332371651,0.0033225988999735657,0.0024298831144704733
6638.334332143866,0.00329419732459734,0.002447585402674874
6638.335331916081,0.0032678128990703713,0.0024645488770159347
6638.336331688296,0.003243772258090521,0.0024806223443557393
6638.337331460511,0.0032223818590115553,0.0024956617287077228
6638.338331232727,0.0032039229365590873,0.002509529954694621
6638.339331004942,0.0031886463985546743,0.0025220965976803945
6638.340330777157,0.0031767678667943156,0.002533237450299055
6638.341330549372,0.0031684631265015617,0.0025428341830441275
6638.342330321588,0.003163864258594078,0.002550774256418804
6638.343330093803,0.0031630566916716067,0.0025569511837553716
6638.344329866019,0.003166077343337529,0.0025612651747523017
6638.345329638234,0.0031729139388145013,0.0025636241302334647
6638.346329410449,0.003183505505805962,0.002563944918709994
6638.347329182664,0.0031977439553743164,0.002562154856619498
6638.348328954879,0.0032154765789652253,0.002558193341220231
6638.349328727095,0.003236509228843128,0.0025520136278988368
6638.35032849931,0.003260609918320184,0.0025435847695647403
6638.351328271525,0.0032875126087517316,0.0025328937289993934
6638.35232804374,0.0033169210497248657,0.0025199476397996597
6638.353327815956,0.0033485126556926773,0.0025047761370231873
6638.354327588171,0.003381942457516324,0.0024874336176525574
6638.355327360387,0.0034168471254453327,0.002468001244745252
6638.356327132602,0.003452848961188467,0.0024465884921123
6638.357326904817,0.0034895596869806886,0.0024233340317798262
6638.358326677032,0.0035265838848141384,0.0023984057834423663
6638.359326449247,0.0035635220508395977,0.002371999980312233
6638.360326221463,0.003599973357696448,0.0023443391692914792
6638.361325993678,0.003635538297503872,0.0023156691434254844
6638.362325765893,0.003669821398699833,0.0022862548785187262
6638.363325538108,0.0037024341918009064,0.0022563756116669225
6638.364325310324,0.003732998559700124,0.002226319272473242
6638.365325082539,0.003761150552704968,0.0021963765544268563
6638.366324854755,0.003786544682258252,0.0021668349649017057
6638.367324626969,0.003808858639686019,0.002137973194646735
6638.3683243991845,0.003827798321721725,0.002110056105223508
6638.3693241714,0.0038431029781668593,0.002083330562811368
6638.370323943615,0.003854550232692024,0.0020580222632041656
6638.371323715831,0.0038619606919299047,0.002034333603569942
6638.372323488046,0.003865201879171694,0.0020124425678900637
6638.373323260261,0.003864191301795869,0.00199250251618535
6638.374323032476,0.00385889853906918,0.0019746427200812303
6638.375322804692,0.0038493462672903943,0.001958969479999316
6638.376322576907,0.003835610119059277,0.0019455676834242966
6638.377322349123,0.003817817258131602,0.001934502698114807
6638.378322121337,0.003796143598455344,0.0019258225232825427
6638.3793218935525,0.003770809709505403,0.001919560136094404
6638.380321665768,0.0037420755901705167,0.0019157359602980024
6638.381321437983,0.003710234617093743,0.0019143603486409446
6638.382321210199,0.0036756070524049003,0.0019154359332296787
6638.383320982413,0.00363853352169439,0.0019189596890530245
6638.384320754629,0.0035993688544873163,0.0019249245854946518
6638.385320526844,0.003558476624309022,0.0019333207420253963
6638.38632029906,0.003516224631053112,0.001944136020004378
6638.387320071275,0.003472981436886051,0.001957355970292651
6638.3883198434905,0.0034291139195459053,0.0019729630526987975
6638.389319615705,0.0033849856756587465,0.0019909350784748894
6638.3903193879205,0.0033409560192509307,0.002011242895327648
6638.391319160136,0.003297379294029717,0.0020338474102357877
6638.392318932351,0.003254604251773714,0.002058696109399268
6638.393318704567,0.0032129733154591523,0.0020857192785117265
6638.394318476781,0.003172821600215298,0.0021148261493983958
6638.395318248997,0.003134475583225316,0.002145901205813839
6638.396318021212,0.0030982513152133326,0.002178800877847305
6638.397317793428,0.0030644520984664716,0.0022133508446280877
6638.398317565643,0.0030333656457441627,0.0022493441505432596
6638.3993173378585,0.0030052608529465546,0.0022865403190176657
6638.400317110073,0.0029803844063303227,0.00232466561391112
6638.4013168822885,0.0029589574662446327,0.002363414546001967
6638.402316654504,0.002941172633238271,0.0024024526506856267
6638.403316426719,0.0029271913389924665,0.0024414204816931026
6638.404316198935,0.0029171417382394716,0.0024799386927620553
6638.405315971149,0.00291111712333847,0.00251761403439475
6638.406315743365,0.002909174847206787,0.0025540460789336265
6638.40731551558,0.0029113357175369306,0.002588834484645112
6638.408315287796,0.0029175837981947057,0.0026215865981913237
6638.409315060011,0.0029278665110651133,0.002651925176296435
6638.4103148322265,0.002942094894161454,0.002679496000159406
6638.411314604441,0.0029601438809827084,0.0027039751738922365
6638.4123143766565,0.0029818525313686597,0.0027250759323131967
6638.413314148872,0.0030070242217357644,0.002742554812039537
6638.414313921087,0.003035426838956012,0.002756217057791985
6638.415313693303,0.0030667930020430233,0.0027659211556124164
6638.416313465517,0.003100820288949906,0.002771582405798366
6638.417313237733,0.003137171423094325,0.0027731754543767963
6638.418313009948,0.0031754744158994062,0.002770735691360806
6638.419312782164,0.0032153227724732777,0.0027643594205731246
6638.420312554379,0.0032562760093299958,0.0027542027328352403
6638.4213123265945,0.0032978608402838656,0.002740479066848884
6638.422312098809,0.0033395734072679136,0.0027234554898996183
6638.423311871024,0.0033808828650675068,0.0027034477527513117
6638.42431164324,0.0034212365147140047,0.0026808141838190014
6638.425311415455,0.0034600665635544712,0.002655948518747194
6638.426311187671,0.003496798485673201,0.002629271825587985
6638.427310959885,0.00353086085332032,0.002601223761438108
6638.428310732101,0.0035616963947482402,0.0025722534475921773
6638.429310504316,0.0035887739085504753,0.0025428102601005712
6638.430310276532,0.0036116005535873005,0.0025133348130900184
6638.431310048747,0.003629733978462463,0.0024842503807308365
6638.432309820962,0.0036427937859848597,0.0024559549650263906
6638.433309593177,0.0036504719273430233,0.0024288141720711105
6638.434309365392,0.003652541721496699,0.0024031550186154635
6638.435309137608,0.0036488652398147187,0.002379260763873082
6638.436308909823,0.003639398786275951,0.0023573668475287916
6638.437308682039,0.0036241961927152536,0.0023376580035005816
6638.438308454253,0.003603409689958422,0.0023202666003817774
6638.439308226469,0.0035772882260430936,0.0023052722311180246
6638.440307998684,0.0035461732630151462,0.0022927025410371675
6638.4413077709,0.0035104922539706722,0.002282535249277651
6638.442307543115,0.003470750134490944,0.002274701283110954
6638.44330731533,0.003427519225448336,0.0022690889090467344
6638.444307087545,0.003381427942487656,0.0022655487184734774
6638.44530685976,0.003333148673874607,0.002263899316243346
6638.446306631976,0.0032833851529847544,0.0022639335612617776
6638.447306404191,0.003232859624892755,0.0022654252021251757
6638.448306176406,0.0031823000798384834,0.0022681357266188863
6638.449305948621,0.003132427785212105,0.0022718212063049534
6638.450305720837,0.0030839452919898163,0.0022762388901281204
6638.451305493052,0.0030375250429263323,0.00228115331418507
6638.452305265268,0.002993798690215026,0.0022863417569917725
6638.453305037483,0.0029533472361764684,0.0022915989542853835
6638.4543048096975,0.002916692114358618,0.0022967410592118777
6638.455304581913,0.0028842873069654575,0.002301608876801198
6638.456304354128,0.002856512556958421,0.00230607041902268
6638.457304126344,0.002833667715401949,0.002310022829338967
6638.458303898559,0.00281596828861906,0.002313393721495028
6638.459303670774,0.002803542301272156,0.002316141961986411
6638.460303442989,0.002796428642267506,0.002318257891829108
6638.461303215205,0.0027945770887289278,0.002319762940943636
6638.46230298742,0.0027978501914100004,0.002320708562492972
6638.463302759636,0.002806027143789139,0.0023211744197234327
6638.464302531851,0.0028188096580629668,0.0023212657902313147
6638.4653023040655,0.002835829757893152,0.002321110201589914
6638.466302076281,0.0028566592900863014,0.002320853364670485
6638.467301848496,0.002880820866827442,0.0023206545085064376
6638.468301620712,0.002907799878466721,0.0023206812350879866
6638.469301392927,0.0029370571625408097,0.00232110401877235
6638.470301165142,0.0029680418870198823,0.0023220904913946487
6638.471300937357,0.0030002042197753253,0.002323799678928802
6638.472300709573,0.003033007407426336,0.0023263763753696683
6638.473300481788,0.0030659389488482108,0.0023299458470668858
6638.474300254004,0.0030985205981636024,0.0023346090509393297
6638.475300026219,0.003130316962257381,0.0023404385177888745
6638.4762997984335,0.003160942480885136,0.002347475005912179
6638.477299570649,0.0031900666189678462,0.002355724992201207
6638.478299342864,0.003217417177347351,0.0023651590510614636
6638.47929911508,0.003242781733064246,0.0023757111656613787
6638.480298887295,0.003266007334769571,0.002387278998912496
6638.48129865951,0.0032869986826667905,0.0023997251134283536
6638.482298431725,0.003305715089707843,0.002412879083348074
6638.483298203941,0.0033221665334076628,0.0024265404074459676
6638.484297976156,0.0033364090754876654,0.0024404821233475083
6638.485297748372,0.003348539878472867,0.0024544550324390496
6638.486297520587,0.0033586919990586744,0.0024681924618671558
6638.4872972928015,0.003367029079843175,0.0024814155028793617
6638.488297065017,0.00337373998949067,0.0024938386655799162
6638.489296837232,0.003379033394369589,0.0025051758736709963
6638.490296609448,0.0033831322137704858,0.0025151466898333166
6638.491296381663,0.0033862679368640313,0.0025234826225322394
6638.492296153878,0.0033886748509669774,0.0025299333351869653
6638.493295926093,0.003390584304369551,0.002534272572415892
6638.494295698309,0.0033922191556637845,0.002536303628471466
6638.495295470524,0.0033937885254879006,0.0025358641918921017
6638.49629524274,0.0033954828889741287,0.0025328304101640948
6638.497295014955,0.0033974694826793914,0.002527120044656384
6638.4982947871695,0.0033998879977094904,0.0025186946231096317
6638.499294559385,0.003402846599367934,0.0025075605271652
6638.5002943316,0.0034064184212579747,0.002493768985327957
6638.501294103816,0.003410638783245649,0.002477415002298984
6638.502293876031,0.0034155034369333435,0.0024586353414461737
6638.503293648246,0.0034209681248911984,0.0024376057539008907
6638.504293420461,0.0034269496580742725,0.002414537681686469
6638.505293192677,0.0034333286010585287,0.0023896746436496454
6638.506292964892,0.0034399535341414346,0.002363288454422582
6638.507292737108,0.0034466467425895747,0.0023356753526470944
6638.508292509322,0.0034532110635868106,0.002307152047850659
6638.5092922815375,0.003459437505798203,0.0022780516451803377
6638.510292053753,0.00346511317230145,0.002248719378083765
6638.511291825968,0.003470029010859469,0.0022195080829150705
6638.512291598184,0.003473987011266421,0.0021907733902140998
6638.513291370398,0.0034768066248818965,0.0021628686630584992
6638.514291142614,0.00347833030135061,0.002136139759648833
6638.515290914829,0.003478428059692425,0.0021109197377956477
6638.516290687045,0.0034770009643987337,0.0020875236609160584
6638.51729045926,0.0034739833451477727,0.0020662436914877856
6638.518290231476,0.0034693436371880325,0.00204734464672947
6638.51929000369,0.003463083820676006,0.0020310601508114197
6638.520289775905,0.003455237559955196,0.00201758947723671
6638.521289548121,0.003445867253822617,0.0020070951473869798
6638.522289320336,0.0034350602851424997,0.001999701325021235
6638.523289092552,0.0034229247907655983,0.001995493007444874
6638.524288864766,0.0034095852644463595,0.0019945159616171658
6638.525288636982,0.0033951782752144628,0.001996777300790651
6638.526288409197,0.0033798485449380612,0.0020022465633322997
6638.527288181413,0.0033637455815760903,0.002010857152064613
6638.528287953628,0.003347021010416269,0.0020225080173472466
6638.529287725844,0.0033298266906086737,0.002037065510918191
6638.530287498058,0.00331231364230725,0.002054365390600697
6638.531287270273,0.003294631728282921,0.0020742150026690593
6638.532287042489,0.0032769299450906625,0.0020963956877736345
6638.533286814704,0.0032593571167513183,0.0021206654372048104
6638.53428658692,0.0032420627618580215,0.002146761781347233
6638.535286359134,0.0032251979002792717,0.0021744048537152326
6638.53628613135,0.003208915559875707,0.0022033005753708855
6638.537285903565,0.003193370758680511,0.002233143951346738
6638.538285675781,0.003178719806581853,0.0022636225294483223
6638.539285447996,0.0031651188857636597,0.002294420098309956
6638.540285220211,0.0031527219906090174,0.0023252206784631236
6638.541284992426,0.0031416784034494485,0.0023557128040423048
6638.542284764641,0.003132129937661091,0.002385594034455678
6638.543284536857,0.0031242081837629743,0.00241457559774975
6638.544284309072,0.003118031949152348,0.0024423870543171617
6638.545284081288,0.0031137050102856625,0.0024687808687862234
6638.546283853502,0.003111314223928706,0.002493536775553311
6638.547283625718,0.0031109279849837537,0.0025164658187084655
6638.548283397933,0.003112594973339364,0.0025374139464217397
6638.549283170149,0.0031163431004820677,0.0025562650357167298
6638.550282942364,0.0031221785616490252,0.002572943199723307
6638.551282714579,0.003130084944689378,0.0025874141941544587
6638.552282486794,0.0031400224351940792,0.0025996857323301093
6638.553282259009,0.003151927229989996,0.002609806572657444
6638.554282031225,0.003165711267442532,0.002617864353262794
6638.55528180344,0.0031812623014090746,0.002623982270892583
6638.556281575656,0.0031984442422103624,0.002628314783040948
6638.55728134787,0.003217097630784693,0.0026310425332103666
6638.558281120086,0.0032370401344916275,0.002632366683996374
6638.559280892301,0.003258067037225614,0.0026325028281690074
6638.5602806645165,0.0032799518014193785,0.0026316746454637303
6638.561280436732,0.0033024468724867726,0.002630107473111558
6638.562280208947,0.003325284953790512,0.0026280219566268558
6638.563279981162,0.003348180983306458,0.0026256279493571412
6638.564279753377,0.0033708349906636115,0.002623118836438062
6638.565279525593,0.0033929359287111164,0.002620666457798254
6638.566279297808,0.0034141664864081175,0.00261841677701596
6638.567279070024,0.0034342088093624657,0.002616486388363338
6638.568278842238,0.003452750969899817,0.002614959897826803
6638.569278614454,0.0034694939335575404,0.002613888181230451
6638.570278386669,0.003484158683374987,0.002613287517851115
6638.5712781588845,0.0034964931276315046,0.002613139601189701
6638.5722779311,0.0035062784542293254,0.0026133924155727134
6638.5732777033145,0.0035133346778073275,0.002613961934958665
6638.57427747553,0.0035175251935133356,0.002614734572910161
6638.575277247745,0.0035187601719602717,0.002615570315254702
6638.576277019961,0.00351699862499608,0.0026163064929708006
6638.577276792176,0.003512248985417529,0.002616762168305572
6638.578276564391,0.003504568107313324,0.0026167430878377466
6638.579276336606,0.003494058715188402,0.002616047109272775
6638.580276108822,0.003480865484679695,0.0026144699603953755
6638.581275881037,0.003465170072280081,0.0026118111633650137
6638.5822756532525,0.0034471854810664802,0.0026078799639748596
6638.583275425468,0.0034271501488975726,0.002602501130455935
6638.5842751976825,0.0034053220939206054,0.0025955205048943802
6638.585274969898,0.00338197336636325,0.0025868101844524513
6638.586274742113,0.003357384956933964,0.0025762731834135574
6638.587274514329,0.0033318422303473035,0.0025638474078389633
6638.588274286544,0.0033056308992156437,0.002549508788451199
6638.589274058759,0.0032790335143711275,0.002533273458472615
6638.590273830974,0.0032523264139817545,0.0025151989022618067
6638.59127360319,0.003225777064372464,0.002495384024196059
6638.592273375405,0.0031996417603184463,0.0024739681096320873
6638.5932731476205,0.0031741637110654086,0.002451128686444705
6638.594272919836,0.003149571561052653,0.002427078340909583
6638.5952726920505,0.003126078338380268,0.0024020605758855846
6638.596272464266,0.0031038807112173123,0.0023763448152931393
6638.597272236481,0.003083158338231503,0.0023502206776765343
6638.598272008697,0.003064073094744672,0.00232399168600888
6638.599271780912,0.0030467680500742313,0.002297968634176966
6638.600271553127,0.003031366204996227,0.0022724628476322897
6638.601271325342,0.0030179691034989318,0.0022477795390719586
6638.602271097558,0.0030066554846483054,0.002224211398591906
6638.603270869773,0.002997480152124452,0.0022020325087439008
6638.6042706419885,0.0029904732330893998,0.0021814926530797914
6638.605270414204,0.0029856399864462086,0.0021628120910817676
6638.606270186418,0.002982961299343858,0.0021461768954597698
6638.607269958634,0.0029823949653458998,0.0021317349728313564
6638.608269730849,0.002983877758799116,0.002119592899749814
6638.609269503065,0.0029873282180181665,0.0021098137014796447
6638.61026927528,0.002992649950300183,0.0021024156820036288
6638.611269047495,0.0029997351985862576,0.002097372372145313
6638.61226881971,0.0030084683779595125,0.0020946135957749922
6638.613268591926,0.0030187293007755173,0.0020940275784003984
6638.614268364141,0.003030395841102991,0.0020954639625800566
6638.6152681363565,0.003043345820808019,0.0020987375627622637
6638.616267908572,0.0030574579448844103,0.0021036326815632076
6638.617267680786,0.0030726117073620624,0.002109907810632369
6638.618267453002,0.003088686333409508,0.0021173005555053994
6638.619267225217,0.003105558976314311,0.002125532658868932
6638.620266997433,0.003123102502999719,0.002134315036816885
6638.621266769648,0.003141183252289914,0.0021433527685914265
6638.622266541863,0.003159659130407885,0.00215234998866914
6638.623266314078,0.0031783783336504,0.002161014631702409
6638.624266086294,0.0031971788909516663,0.0021690629841358677
6638.625265858509,0.003215889127389464,0.0021762240017442233
6638.626265630724,0.0032343290734204696,0.002182243354693649
6638.62726540294,0.003252312782138814,0.002186887154141976
6638.628265175154,0.0032696514662677824,0.002189945300315312
6638.62926494737,0.0032861573210195834,0.0021912343873010296
6638.630264719585,0.00330164784317475,0.0021906001146309168
6638.631264491801,0.0033159503902614553,0.0021879191856031517
6638.632264264016,0.0033289066775859934,0.002183100703813081
6638.633264036231,0.0033403769149610726,0.0021760870946707527
6638.634263808446,0.0033502433256877976,0.0021668545708185866
6638.635263580662,0.0033584128256309745,0.002155413148075014
6638.636263352877,0.0033648186556118867,0.002141806225068316
6638.637263125092,0.003369420792969952,0.0021261097615047223
6638.638262897307,0.0033722050677430877,0.0021084311037679548
6638.639262669522,0.0033731810771894344,0.002088907498829115
6638.640262441738,0.0033723791692567015,0.002067704313733207
6638.641262213953,0.0033698468792884993,0.002045012950586893
6638.642261986169,0.0033656452236985493,0.0020210484268046607
6638.643261758383,0.003359845191480146,0.001996046584755632
6638.644261530599,0.0033525246615735364,0.0019702609024527884
6638.645261302814,0.0033437658526315897,0.0019439588876801039
6638.6462610750295,0.003333653319719858,0.0019174180476806764
6638.647260847245,0.003322272465272521,0.0018909214437023598
6638.64826061946,0.0033097085190081288,0.0018647528742017799
6638.649260391675,0.0032960459446720117,0.0018391917824829543
6638.65026016389,0.0032813682363997906,0.0018145080419044513
6638.651259936106,0.0032657580703051156,0.0017909568128096512
6638.652259708321,0.003249297783087301,0.0017687736739366048
6638.653259480537,0.0032320701578801036,0.001748170212328859
6638.654259252751,0.0032141594882266777,0.001729330226642256
6638.655259024967,0.0031956528477328533,0.001712406668421194
6638.656258797182,0.003176641433430824,0.0016975194126078578
6638.6572585693975,0.003157221817869451,0.0016847539080783976
6638.658258341613,0.0031374969678111134,0.0016741607121195455
6638.659258113828,0.0031175769560558833,0.0016657558673534604
6638.660257886043,0.0030975793680364607,0.0016595220468842216
6638.661257658258,0.0030776294560563395,0.0016554103794883934
6638.662257430474,0.00305786012074025,0.0016533428663365048
6638.663257202689,0.003038411811536245,0.0016532153021821738
6638.664256974905,0.0030194324351934627,0.0016549006101608918
6638.665256747119,0.0030010773358534583,0.0016582524921934065
6638.666256519335,0.002983509361192548,0.00166310929133353
6638.66725629155,0.0029668989621144033,0.0016692979584670227
6638.6682560637655,0.0029514242007788677,0.0016766380102820248
6638.669255835981,0.0029372704800373485,0.001684945362546818
6638.670255608196,0.002924629776158879,0.0016940359335163452
6638.671255380411,0.0029136991749582177,0.001703728935159721
6638.672255152626,0.0029046785873417936,0.0017138497877130553
6638.673254924842,0.0028977676338063107,0.0017242325989992667
6638.674254697057,0.0028931617881849544,0.0017347221562554968
6638.675254469273,0.0028910479114806252,0.001745175393326995
6638.676254241487,0.002891599284857525,0.001755462316192321
6638.677254013703,0.0028949702174541035,0.0017654663951969668
6638.678253785918,0.0029012903245137253,0.0017750844700770254
6638.6792535581335,0.0029106586679073505,0.001784226260045538
6638.680253330349,0.0029231380831022534,0.0017928136056666758
6638.681253102564,0.0029387501137574015,0.0018007795733130025
6638.682252874779,0.0029574709954091525,0.0018080675278189246
6638.683252646994,0.0029792290767537114,0.0018146302420826062
6638.68425241921,0.0030039039658421025,0.0018204290836446716
6638.685252191425,0.003031327561945894,0.0018254333100792327
6638.686251963641,0.0030612869969555293,0.001829619514930862
6638.687251735855,0.0030935293720834697,0.0018329712777648464
6638.688251508071,0.003127768044870146,0.0018354790703900602
6638.689251280286,0.00316369011205743,0.0018371404509134987
6638.6902510525015,0.0032009646612606974,0.001837960538435925
6638.691250824717,0.0032392513332380564,0.0018379527103120122
6638.692250596932,0.0032782087414898234,0.0018371394174967544
6638.693250369147,0.0033175023332943712,0.0018355529921109048
6638.694250141362,0.003356811339169092,0.0018332363339678196
6638.695249913578,0.0033958345243753326,0.0018302433991856137
6638.696249685793,0.0034342945128752814,0.001826639453064729
6638.697249458009,0.003471940522978359,0.0018225010721951956
6638.698249230223,0.0035085494634086037,0.0018179158787194095
6638.699249002439,0.0035439254823910666,0.0018129819687555174
6638.700248774654,0.0035778982107888555,0.0018078069766017152
6638.7012485468695,0.0036103200649496327,0.0018025067207288682
6638.702248319085,0.0036410630497007795,0.0017972034212312975
6638.703248091299,0.003670015513845748,0.0017920235530213225
6638.704247863515,0.003697079272285297,0.0017870954722174369
6638.70524763573,0.0037221674392747574,0.0017825469873700079
6638.706247407946,0.0037452032215169392,0.001778503030184979
6638.707247180161,0.003766119797836511,0.0017750835342425903
6638.708246952376,0.0037848612685033845,0.0017724015842288901
6638.709246724591,0.003801384503185127,0.00177056186278842
6638.710246496807,0.0038156615765402315,0.0017696593938137557
6638.711246269022,0.0038276823904334683,0.0017697785577139033
6638.712246041237,0.0038374570713934813,0.0017709923356875224
6638.713245813453,0.0038450178008842643,0.0017733617264289912
6638.714245585667,0.0038504198407553957,0.0017769352751989338
6638.715245357883,0.003853741596812857,0.0017817486662777726
6638.716245130098,0.0038550835970699144,0.0017878243476670717
6638.717244902314,0.003854566281136787,0.0017951711691157485
6638.718244674529,0.003852326557875761,0.0018037840238175307
6638.719244446744,0.0038485132184929113,0.00181364350393373
6638.720244218959,0.00384328146617401,0.001824715608512344
6638.721243991175,0.0038367869718024233,0.001836951558413656
6638.72224376339,0.0038291799270051816,0.0018502877640725233
6638.723243535605,0.003820599536953046,0.001864645969515503
6638.724243307821,0.0038111693237927466,0.0018799335775600695
6638.725243080035,0.003800993540872544,0.0018960441527137622
6638.726242852251,0.0037901549253719444,0.0019128580992330696
6638.727242624466,0.0037787139165844498,0.0019302435213146279
6638.728242396682,0.0037667093369531594,0.0019480572843259352
6638.729242168897,0.0037541603975706564,0.001966146301146313
6638.730241941112,0.003741069777310351,0.0019843490682933673
6638.731241713327,0.0037274274649249663,0.00200249748365244
6638.732241485543,0.0037132150701093235,0.0020204189890747127
6638.733241257758,0.0036984103828820556,0.00203793907756048
6638.734241029973,0.003682992018859486,0.002054884175142941
6638.735240802189,0.00366694396772347,0.0020710848654879
6638.736240574403,0.00365025977301578,0.002086379392570731
6638.737240346619,0.003632945990762101,0.0021006173573101814
6638.738240118834,0.0036150245873844983,0.002113663501036418
6638.73923989105,0.0035965340756109482,0.002125401432574562
6638.740239663265,0.0035775294059095454,0.002135737122612945
6638.74123943548,0.003558080840187213,0.002144601978842946
6638.742239207695,0.003538272159751566,0.0021519553243760036
6638.743238979911,0.003518198581491265,0.002157786115717813
6638.744238752126,0.0034979647016735176,0.0021621137573471488
6638.745238524341,0.003477682696932792,0.0021649879098861575
6638.746238296557,0.0034574709212623024,0.0021664872486559486
6638.747238068771,0.0034374529608549374,0.002166717200989733
6638.748237840987,0.0034177571357081834,0.0021658067647270752
6638.749237613202,0.003398516354585414,0.0021639045709182007
6638.750237385418,0.0033798681483283373,0.002161174387297023
6638.751237157633,0.003361954653984731,0.002157790272803952
6638.752236929848,0.003344922318900905,0.00215393160345525
6638.753236702063,0.0033289211352366616,0.0021497781922448296
6638.754236474279,0.0033141032722215206,0.0021455057003751314
6638.755236246494,0.003300621013094316,0.002141281480923847
6638.756236018709,0.0032886239226625367,0.0021372609386912586
6638.757235790925,0.0032782552038201334,0.002133584467280252
6638.758235563139,0.0032696472838102974,0.0021303750384088003
6638.759235335355,0.0032629168039968156,0.0021277365332762342
6638.76023510757,0.0032581593330890607,0.0021257528862883507
6638.761234879786,0.0032554442319683093,0.0021244880550786234
6638.762234652001,0.0032548101284479427,0.0021239867617622063
6638.763234424216,0.0032562614066720856,0.0021242758954791476
6638.764234196431,0.003259766011354182,0.0021253664394424083
6638.765233968647,0.0032652547531674425,0.002127255784259069
6638.766233740862,0.003272622195097177,0.002129930298721552
6638.767233513077,0.0032817290918987817,0.0021333680347025734
6638.768233285292,0.0032924062347004877,0.002137541439283972
6638.769233057507,0.003304459426752886,0.0021424199440811405
6638.770232829723,0.003317675215667526,0.002147972316887986
6638.771232601938,0.003331826976310102,0.002154168700533372
6638.772232374154,0.003346680997974829,0.0021609823099746216
6638.773232146368,0.0033620023436544814,0.0021683907884172066
6638.774231918584,0.0033775603438990177,0.002176377231160727
6638.775231690799,0.003393133612328049,0.002184930874154395
6638.776231463015,0.003408514429442647,0.002194047415484603
6638.77723123523,0.003423512281638438,0.0022037289114390495
6638.778231007445,0.003437956325845298,0.0022139831944105685
6638.77923077966,0.003451696625027113,0.0022248228011306757
6638.780230551875,0.003464604156043863,0.0022362634460783306
6638.781230324091,0.003476569755872563,0.002248322098608624
6638.782230096306,0.0034875022662082924,0.0022610147229123003
6638.783229868522,0.0034973261391921546,0.0022743537351583823
