Time,Filtered_EMG_Bicep,Filtered_EMG_Tricep
6416.870789650815,0.002171580965079124,0.0007517270382662746
6416.87178942303,0.0023184314817213366,0.0008109369793430594
6416.872789195246,0.002463832642376954,0.0008710419614127497
6416.873788967461,0.0026071740491066557,0.0009317219679613335
6416.874788739677,0.002747927915187731,0.0009926557856543483
6416.875788511891,0.002885659183248539,0.001053525876746379
6416.876788284107,0.0030200325220866887,0.001114023111278165
6416.877788056322,0.0031508158730129765,0.0011738512655289934
6416.8787878285375,0.003277880366250638,0.001232731215055169
6416.879787600753,0.0034011965885235914,0.0012904047714141493
6416.880787372968,0.003520827368303234,0.001346638131839228
6416.881787145183,0.0036369174289058504,0.0014012249256060666
6416.882786917398,0.003749680395400762,0.0014539888378999543
6416.883786689614,0.003859383708950258,0.0015047857705265627
6416.884786461829,0.003966332016424003,0.001553505479547389
6416.885786234045,0.00407084959052933,0.0016000726362778073
6416.886786006259,0.004173262315188602,0.0016444472860490716
6416.887785778475,0.004273879741924121,0.0016866246991753603
6416.88878555069,0.004372977673110606,0.0017266346005494705
6416.8897853229055,0.004470781662330648,0.0017645397389554267
6416.890785095121,0.004567451771426914,0.001800433743755779
6416.891784867335,0.004663068913350194,0.001834438239504047
6416.892784639551,0.004757623136310197,0.0018666992474474608
6416.893784411766,0.004851004246208493,0.0018973829638673776
6416.894784183982,0.004942995193550345,0.001926671032289085
6416.895783956197,0.0050332686382835645,0.001954755421110016
6416.896783728413,0.005121387032066103,0.001981833015652112
6416.897783500627,0.005206806432990123,0.0020081000592329073
6416.898783272843,0.005288884130129468,0.002033746621200787
6416.899783045058,0.005366890041105588,0.0020589513023757285
6416.9007828172735,0.005440021766805653,0.002083876393021628
6416.901782589489,0.0055074231247868,0.002108663679478499
6416.902782361703,0.005568205904850822,0.0021334310637157045
6416.903782133919,0.005621474479259732,0.0021582701196780386
6416.904781906134,0.005666352758589618,0.002183244663889159
6416.90578167835,0.005702012817008309,0.002208390371440521
6416.906781450565,0.005727704326574612,0.002233715425278936
6416.907781222781,0.005742783772981305,0.002259202142988463
6416.908780994995,0.005746742329903049,0.002284809475836388
6416.909780767211,0.005739231286601429,0.002310476215849611
6416.910780539426,0.005720084043998497,0.0023361246787892485
6416.911780311641,0.005689333855767711,0.0023616645670279652
6416.912780083857,0.0056472266281357725,0.0023869966816168807
6416.913779856071,0.005594228190982509,0.0024120161710323123
6416.914779628287,0.005531025560346824,0.0024366150828334723
6416.915779400502,0.00545852190983865,0.002460684110653762
6416.916779172718,0.005377825298677523,0.002484113574383943
6416.917778944933,0.005290231590401095,0.0025067938012519543
6416.918778717149,0.005197202280527412,0.0025286151581045105
6416.919778489363,0.005100338046339142,0.0025494680051934013
6416.920778261579,0.005001348799313132,0.00256924280671927
6416.921778033794,0.004902020990099468,0.002587830564380864
6416.922777806009,0.0048041829616121004,0.0026051236568302286
6416.923777578225,0.004709669248620925,0.0026210170830664363
6416.924777350439,0.004620284815652059,0.002635410032986117
6416.925777122655,0.00453777025031921,0.002648207658005527
6416.92677689487,0.004463768862292739,0.002659322898791727
6416.927776667086,0.004399796495380365,0.00266867824227907
6416.928776439301,0.004347214684397112,0.002676207315027458
6416.929776211516,0.004307207616404416,0.002681856265786608
6416.930775983731,0.004280763196535368,0.002685584938527101
6416.931775755947,0.004268658363743898,0.0026873678729563625
6416.932775528162,0.004271448652053996,0.0026871951741046043
6416.933775300377,0.004289461866098787,0.0026850732577494056
6416.934775072593,0.004322795653759037,0.0026810254169131915
6416.935774844807,0.00437131871770917,0.002675092100024817
6416.936774617023,0.004434675413775561,0.0026673307846555388
6416.937774389238,0.004512293544389256,0.002657815389433949
6416.938774161454,0.004603395250574903,0.0026466352601540767
6416.939773933669,0.004707010966608626,0.0026338938379109
6416.940773705884,0.004821996361415124,0.0026197071338813073
6416.941773478099,0.004947052058624254,0.0026042021008757478
6416.9427732503145,0.005080745770617542,0.0025875149268520846
6416.94377302253,0.005221536349836237,0.002569789204506307
6416.944772794745,0.00536779915599526,0.0025511738799814097
6416.945772566961,0.005517852058988442,0.0025318208751166425
6416.946772339175,0.005669981368372304,0.0025118823204500094
6416.947772111391,0.005822467027610173,0.0024915074194701453
6416.948771883606,0.005973606528510876,0.0024708390618235977
6416.949771655822,0.006121737152540029,0.0024500103869136564
6416.950771428037,0.006265256293110203,0.002429141551414718
6416.951771200252,0.0064026397371793236,0.0024083369629157633
6416.952770972467,0.006532457889209256,0.002387683202541578
6416.9537707446825,0.00665339002158238,0.002367247784382514
6416.954770516898,0.006764236736006286,0.0023470788140551486
6416.955770289113,0.00686393089335545,0.0023272055305307146
6416.956770061328,0.00695154727398992,0.0023076396515228498
6416.957769833543,0.00702631115457034,0.0022883774021109876
6416.958769605759,0.007087605862425544,0.002269402095323149
6416.959769377974,0.0071349792275276136,0.002250687143282946
6416.96076915019,0.007168148701125064,0.0022321993939237303
6416.961768922405,0.007187004776113164,0.0022139027057720977
6416.96276869462,0.00719161230534919,0.0021957616864100166
6416.963768466835,0.00718220942186496,0.0021777455149095152
6416.9647682390505,0.007159203959554829,0.0021598317384592908
6416.965768011266,0.00712316742321468,0.002142009893514542
6416.966767783481,0.00707482657777262,0.002124284773649804
6416.967767555696,0.007015052641625348,0.002106679159993296
6416.968767327911,0.006944847981185634,0.0020892358483840076
6416.969767100127,0.006865330227117591,0.0020720188495933095
6416.970766872342,0.006777713918064665,0.0020551136903445492
6416.971766644558,0.006683290061164002,0.002038626780842364
6416.972766416773,0.006583404236441453,0.0020226838386364376
6416.973766188988,0.006479433955566912,0.0020074273951947636
6416.974765961203,0.006372765917123913,0.0019930134769140908
6416.9757657334185,0.006264773663562817,0.001979607628333574
6416.976765505634,0.006156796029122533,0.001967380501021036
6416.977765277849,0.006050116723065809,0.001956503253584256
6416.978765050064,0.005945945411092582,0.0019471429997297651
6416.979764822279,0.005845400683596526,0.001939458505114649
6416.980764594495,0.005749495276751175,0.0019335962715899837
6416.98176436671,0.0056591238384663565,0.0019296870709413503
6416.982764138926,0.005575053440225566,0.001927842922512364
6416.983763911141,0.005497916943506343,0.0019281544724483435
6416.984763683356,0.00542820923188606,0.0019306887329915558
6416.985763455571,0.005366286229441175,0.0019354871651181486
6416.9867632277865,0.005312366567131956,0.001942564117161101
6416.987763000002,0.0052665357300187236,0.0019519056529637138
6416.988762772217,0.005228752480241847,0.001963468809656891
6416.989762544432,0.005198857262691071,0.0019771813168849663
6416.990762316647,0.005176582169046902,0.0019929417939493184
6416.991762088863,0.0051615619275004266,0.0020106204292245945
6416.992761861078,0.005153345378212894,0.002030060139794208
6416.993761633294,0.005151407009647622,0.002051078205795194
6416.994761405508,0.005155158303078546,0.002073468372254683
6416.995761177724,0.005163958752477555,0.002097003406741083
6416.996760949939,0.005177126427866945,0.0021214380860361667
6416.997760722154,0.005193947870854771,0.0021465125622978794
6416.99876049437,0.00521368707133482,0.002171956045197043
6416.999760266585,0.005235593369958011,0.0021974907416927236
6417.0007600388,0.005258908343546689,0.0022228360116882838
6417.001759811015,0.005282871948317983,0.0022477127085288725
6417.002759583231,0.005306728319343022,0.002271847665386666
6417.003759355446,0.005329731635990249,0.002294978262340321
6417.004759127662,0.0053511523995732535,0.002316856975237296
6417.005758899876,0.005370284371157019,0.0023372557736082576
6417.006758672092,0.0053864523123095115,0.0023559702025588492
6417.007758444307,0.005399020576158148,0.002372822962920225
6417.008758216522,0.005407402502100475,0.0023876668124559325
6417.009757988738,0.005411070445558429,0.002400386652552433
6417.010757760953,0.005409566120500016,0.0024109007244827074
6417.011757533168,0.005402510800415585,0.002419160899665794
6417.012757305383,0.005389614885466801,0.0024251521013575706
6417.013757077599,0.005370686426003025,0.0024288909374803203
6417.014756849814,0.005345638351272447,0.002430423652119113
6417.01575662203,0.005314494298860863,0.0024298235139730544
6417.016756394244,0.005277392996549294,0.0024271877525353825
6417.01775616646,0.005234591090064035,0.0024226341301308105
6417.018755938675,0.005186464176300923,0.0024162972131142953
6417.01975571089,0.005133505666312652,0.0024083243980370836
6417.020755483106,0.00507632303807701,0.0023988717724541986
6417.02175525532,0.005015631083957513,0.0023880999394930084
6417.022755027536,0.00495224190405606,0.0023761699803058
6417.023754799751,0.004887051609430551,0.002363239737962368
6417.024754571967,0.004821023937432413,0.002349460577760233
6417.025754344182,0.0047551711940053065,0.002334974731247283
6417.026754116398,0.004690533067304246,0.0023199132755202336
6417.027753888612,0.004628153886956215,0.002304394737211157
6417.028753660828,0.004569058889452495,0.002288524252298199
6417.029753433043,0.004514230066165252,0.002272393176816811
6417.030753205258,0.0044645822320951685,0.00225607903951159
6417.031752977474,0.004420940025491036,0.0022396457454309355
6417.032752749688,0.004384016596891139,0.0022231439559117568
6417.033752521904,0.00435439475125581,0.0022066115776603473
6417.034752294119,0.004332511258457676,0.0021900743155117493
6417.035752066335,0.004318644952233666,0.0021735462974451017
6417.03675183855,0.00431290911118584,0.0021570308414325975
6417.037751610766,0.0043152484638277555,0.002140521466258991
6417.03875138298,0.004325440985916686,0.0021240032517998654
6417.039751155196,0.004343104474153278,0.0021074546449809718
6417.040750927411,0.004367707701176292,0.0020908497834529567
6417.041750699626,0.004398585793019883,0.0020741613583986824
6417.042750471842,0.004434959327171584,0.0020573639675414116
6417.043750244056,0.004475956527952999,0.00204043784093695
6417.044750016272,0.00452063783110168,0.0020233727719458005
6417.045749788487,0.0045680219975246655,0.0020061720576079333
6417.046749560703,0.004617112890353309,0.001988856239213003
6417.047749332918,0.004666926015859021,0.0019714664220438446
6417.0487491051335,0.004716513976817017,0.001954066936081768
6417.049748877348,0.004764990071117659,0.001936747086885019
6417.050748649564,0.004811549344747187,0.0019196217639144094
6417.051748421779,0.004855486450329971,0.0019028307477114445
6417.052748193994,0.0048962097029811805,0.0018865366846678516
6417.05374796621,0.004933250855177181,0.0018709218367299813
6417.054747738424,0.004966270389100581,0.0018561838104280723
6417.05574751064,0.004995058474120968,0.001842530502059618
6417.056747282855,0.005019531998331495,0.0018301744829271323
6417.057747055071,0.005039728162928791,0.0018193270312537653
6417.058746827286,0.005055795067677679,0.0018101920261647158
6417.0597465995015,0.005067979621336215,0.0018029599511373933
6417.060746371716,0.00507661307154613,0.0017978022780614563
6417.061746143932,0.005082094502364221,0.0017948664885844203
6417.062745916147,0.005084872770142698,0.0017942719337599338
6417.063745688362,0.005085427466526691,0.0017961066554156217
6417.064745460578,0.005084249547422337,0.0018004252148435854
6417.065745232792,0.005081822249678627,0.0018072475097992877
6417.066745005008,0.005078602880487308,0.001816558514701405
6417.067744777223,0.005075006042041626,0.0018283088530771045
6417.068744549439,0.005071388841714556,0.0018424161044107228
6417.069744321654,0.005068038616201141,0.0018587667489744697
6417.070744093869,0.005065163653133665,0.0018772186471774414
6417.071743866084,0.005062887317140386,0.0018976039321432112
6417.0727436383,0.005061245871312744,0.0019197321847312068
6417.073743410515,0.005060190130578757,0.0019433937741536202
6417.07474318273,0.005059590908251165,0.001968363274502473
6417.075742954946,0.005059248047632205,0.0019944028881217673
6417.07674272716,0.0050589026855118405,0.002021265818078451
6417.077742499376,0.0050582522709709124,0.0020486995467238543
6417.078742271591,0.005056967741245514,0.002076449001381282
6417.079742043807,0.005054712125451476,0.0021042596114324397
6417.080741816022,0.005051159723937401,0.0021318802704167615
6417.081741588237,0.005046014928787386,0.0021590662104518732
6417.082741360452,0.0050390297413163395,0.002185581782708354
6417.083741132668,0.005030019135457165,0.002211203124046951
6417.084740904883,0.005018873615245066,0.0022357206771421553
6417.085740677098,0.005005568560370896,0.0022589415204324905
6417.086740449314,0.004990170162943799,0.0022806914612711203
6417.087740221528,0.00497283791034437,0.002300816854369962
6417.088739993744,0.004953823703231207,0.0023191861189743633
6417.089739765959,0.004933467837078319,0.0023356909281733447
6417.090739538175,0.004912192190937597,0.0023502470315037985
6417.09173931039,0.00489049101315206,0.0023627946593992185
6417.092739082605,0.004868919659183691,0.0023732984539057253
6417.09373885482,0.004848081558263299,0.002381746875533743
6417.094738627035,0.004828613616713141,0.0023881510493129485
6417.095738399251,0.004811170242710118,0.0023925430338563526
6417.096738171466,0.0047964062127399,0.0023949735331415586
6417.097737943681,0.0047849586844369435,0.002395509131857773
6417.098737715896,0.004777428758036525,0.0023942292115692646
6417.099737488112,0.004774363051276044,0.0023912227615295683
6417.100737260327,0.0047762357572350015,0.002386585305142999
6417.101737032543,0.004783431630971936,0.002380416124055949
6417.102736804758,0.004796230363069667,0.002372815901729225
6417.103736576973,0.004814792880738099,0.002363884845766381
6417.104736349188,0.004839150226904846,0.002353721290095879
6417.105736121403,0.004869195717724316,0.0023424207341913475
6417.106735893619,0.004904681015521342,0.0023300752600913578
6417.107735665834,0.004945216587122321,0.0023167732776439125
6417.108735438049,0.004990276790186091,0.002302599563821464
6417.109735210264,0.005039209582999998,0.0022876355630948877
6417.11073498248,0.005091250608506616,0.0022719599007835867
6417.111734754695,0.005145541167181785,0.002255649042487674
6417.112734526911,0.00520114936889754,0.002238778019985271
6417.113734299126,0.005257093555594459,0.0022214211380151934
6417.1147340713405,0.005312366943450225,0.0022036525767645844
6417.115733843556,0.005365962378744919,0.002185546811884051
6417.116733615771,0.005416896153490995,0.0021671787820226633
6417.117733387987,0.005464229959884241,0.002148623740694886
6417.118733160202,0.005507090210373078,0.0021299567501697945
6417.119732932417,0.005544684070237575,0.002111251827473714
6417.120732704632,0.005576311685816651,0.0020925808239600123
6417.121732476848,0.005601374325828296,0.0020740121750059165
6417.122732249063,0.005619378484566203,0.0020556096749562167
6417.123732021279,0.005629936314374447,0.002037431421135576
6417.124731793494,0.00563276296121956,0.002019529046679445
6417.1257315657085,0.005627671475467593,0.0020019473362448263
6417.126731337924,0.0056145660081669034,0.0019847242888324616
6417.127731110139,0.00559343398575178,0.0019678916468592908
6417.128730882355,0.005564337870263861,0.001951475848066532
6417.12973065457,0.005527406985316014,0.0019354992925874521
6417.130730426785,0.0054828297633103,0.0019199817726614685
6417.131730199,0.0054308466609228135,0.001904941900090119
6417.132729971216,0.005371743898852143,0.0018903983929544088
6417.133729743431,0.005305848123962415,0.0018763711419672864
6417.134729515647,0.005233522076718541,0.00186288203479839
6417.135729287861,0.0051551613495554914,0.0018499555334402771
6417.1367290600765,0.0050711922973785285,0.0018376189707142204
6417.137728832292,0.00498207108236538,0.001825902492974204
6417.138728604507,0.004888283710589175,0.0018148385656956147
6417.139728376723,0.004790346778599219,0.001804460989085649
6417.140728148938,0.004688808533835699,0.0017948034287918139
6417.141727921153,0.004584249816732552,0.001785897532151536
6417.142727693368,0.004477284535941679,0.0017777707587839173
6417.143727465584,0.004368559500979354,0.0017704440966240492
6417.144727237799,0.004258753591839624,0.0017639298546552585
6417.145727010015,0.004148576286796364,0.0017582297174091994
6417.146726782229,0.004038765498734552,0.0017533332137975616
6417.1477265544445,0.003930084579777604,0.001749216705628136
6417.14872632666,0.003823318343722991,0.001745842960841735
6417.149726098875,0.003719268044887184,0.0017431613552576085
6417.150725871091,0.0036187453726314995,0.0017411087330080305
6417.151725643306,0.0035225656003472407,0.0017396109293391045
6417.152725415521,0.0034315400545348014,0.0017385849152501453
6417.153725187736,0.0033464680756056303,0.0017379414760844124
6417.154724959952,0.0032681286470427375,0.0017375883047943794
6417.155724732167,0.0031972718585247238,0.0017374333856671669
6417.156724504383,0.0031346103162669258,0.001737388561062965
6417.157724276597,0.0030808105233618064,0.001737373193050782
6417.1587240488125,0.003036484167415914,0.0017373178334101737
6417.159723821028,0.0030021792300190114,0.00173716779600484
6417.160723593243,0.0029783709030773826,0.0017368865019723255
6417.161723365459,0.0029654524380586175,0.001736458460444065
6417.162723137673,0.0029637262005864683,0.0017358917599575804
6417.163722909889,0.0029733952875739106,0.001735219966707061
6417.164722682104,0.0029945560630754314,0.0017345033423074693
6417.16572245432,0.00302719191365216,0.00173382930276837
6417.166722226535,0.0030711684654179164,0.0017333120474168334
6417.167721998751,0.003126230468589355,0.0017330912995163145
6417.168721770965,0.0031920005306082687,0.0017333301249573948
6417.1697215431805,0.0032679798413207278,0.0017342118307167797
6417.170721315396,0.003353550970923212,0.001735935984078064
6417.171721087611,0.0034479827376412277,0.0017387136305516608
6417.172720859827,0.0035504370451080176,0.001742761819160994
6417.173720632041,0.0036599774817827305,0.0017482975656663688
6417.174720404257,0.003775579363117235,0.001755531397620882
6417.175720176472,0.0038961408150321648,0.0017646606358051632
6417.176719948688,0.0040204945046636254,0.0017758625848121128
6417.177719720903,0.0041474197488153754,0.00178928783425665
6417.178719493119,0.004275654910302603,0.001805053895858296
6417.179719265333,0.0044039101248391065,0.0018232393997534443
6417.180719037548,0.004530880451100907,0.0018438790446258962
6417.181718809764,0.004655259548891496,0.0018669594613320596
6417.182718581979,0.004775753997571934,0.0018924161307913466
6417.183718354195,0.004891098342693276,0.0019201314965946715
6417.184718126409,0.0050000708731922205,0.001949934410471594
6417.185717898625,0.005101510003836879,0.001981601021050276
6417.18671767084,0.005194331011558599,0.002014857159355824
6417.187717443056,0.005277542772827971,0.0020493822017911218
6417.188717215271,0.005350264070951616,0.002084814318846479
6417.189716987487,0.005411738975420481,0.0021207569565925596
6417.190716759701,0.005461350727120002,0.0021567863522855943
6417.191716531916,0.005498633507214967,0.0021924598501995964
6417.192716304132,0.005523281485593516,0.0022273247512608115
6417.193716076347,0.005535154689382895,0.002260927403945904
6417.194715848563,0.005534281457411116,0.0022928222394385995
6417.195715620777,0.0055208574298664555,0.002322580476007525
6417.196715392993,0.005495241103893361,0.0023497982494941243
6417.197715165208,0.00545794604425637,0.0023741039507117626
6417.198714937424,0.005409629983963176,0.0023951645719501595
6417.199714709639,0.005351081271990173,0.0024126909093876857
6417.2007144818535,0.0052832032989966705,0.0024264415479908724
6417.201714254069,0.005206997558427495,0.0024362256483096345
6417.202714026284,0.005123545889448849,0.0024419046311952063
6417.2037137985,0.005033992282463834,0.0024433929079951517
6417.204713570715,0.004939524497271495,0.002440657829363083
6417.205713342931,0.0048413557007725636,0.0024337190224816463
6417.206713115145,0.004740706371154113,0.002422647260554621
6417.207712887361,0.0046387867941249175,0.002407562970903693
6417.208712659576,0.004536780547027834,0.00238863444178376
6417.209712431792,0.004435829398865707,0.0023660757370138515
6417.210712204007,0.004337020034415103,0.0023401442836859126
6417.2117119762215,0.004241372936076025,0.0023111380696607675
6417.212711748437,0.004149833632035426,0.0022793923771486807
6417.213711520652,0.004063266355518338,0.0022452759935580407
6417.214711292868,0.003982449989598797,0.0022091868835303974
6417.215711065083,0.003908076042772624,0.0021715473594375407
6417.216710837299,0.0038407483332966717,0.002132798823827474
6417.217710609513,0.003780984024890772,0.0020933961642817375
6417.218710381729,0.003729215616137,0.0020538018756254325
6417.219710153944,0.003685793457257736,0.00201447999551081
6417.22070992616,0.0036509884018486698,0.001975889975731358
6417.221709698375,0.0036249943084640064,0.0019384806494769482
6417.2227094705895,0.0036079302335751844,0.0019026844651060292
6417.223709242805,0.0035998422408418714,0.0018689121370631537
6417.22470901502,0.0036007047829471586,0.0018375478318915447
6417.225708787236,0.003610421629551899,0.0018089449736001272
6417.226708559451,0.0036288263490586005,0.0017834227188728638
6417.227708331666,0.003655682397569428,0.0017612631220644348
6417.228708103881,0.003690682899925618,0.00174270898873505
6417.229707876097,0.0037334502048459546,0.0017279624031949453
6417.230707648312,0.003783535262887521,0.0017171839046294583
6417.231707420528,0.0038404168468341065,0.001710492277740157
6417.232707192743,0.0039035006556035956,0.0017079649151675817
6417.2337069649575,0.003972118435058787,0.0017096386889006285
6417.234706737173,0.00404552738217965,0.001715511232520925
6417.235706509388,0.004122910208927653,0.0017255425030524845
6417.236706281604,0.0042033762795068525,0.0017396564845473055
6417.237706053819,0.004285964203113596,0.0017577429222446364
6417.238705826034,0.004369646210177336,0.001779659022223403
6417.239705598249,0.004453334607009843,0.0018052310975725714
6417.240705370465,0.004535890593189768,0.0018342561775627083
6417.24170514268,0.0046161356996668144,0.0018665036191598142
6417.242704914896,0.004692866027656087,0.0019017167691381478
6417.243704687111,0.004764869340919598,0.001939614718059029
6417.2447044593255,0.004830944915313199,0.001979894172785228
6417.245704231541,0.004889925899351025,0.0020222314737252155
6417.246704003756,0.004940703787534208,0.0020662848076114645
6417.247703775972,0.004982254448011325,0.0021116966936624813
6417.248703548187,0.005013664980715671,0.0021580968146658846
6417.249703320402,0.005034160523287112,0.0022051052154290463
6417.250703092617,0.005043129975525089,0.0022523358223041127
6417.251702864833,0.005040149473306441,0.0022994001804426734
6417.252702637048,0.005025002329236371,0.002345911277188555
6417.253702409264,0.004997694157412909,0.002391487318351099
6417.254702181479,0.0049584621222885225,0.002435755341059455
6417.2557019536935,0.004907777686729679,0.0024783545811375004
6417.256701725909,0.00484634270688174,0.0025189395606913197
6417.257701498124,0.004775079060347848,0.002557182907127909
6417.25870127034,0.004695112203826885,0.0025927779403329457
6417.259701042555,0.00460774924289123,0.002625441061290589
6417.26070081477,0.0045144522960805875,0.0026549139475336055
6417.261700586985,0.0044168081009572195,0.002680965532104639
6417.262700359201,0.004316494900161789,0.0027033937415045835
6417.263700131416,0.004215247654947944,0.0027220269909833633
6417.264699903632,0.0041148225768452675,0.0027367254461725513
6417.265699675846,0.004016961877876994,0.0027473820391107663
6417.266699448061,0.00392335955411592,0.0027539231978644003
6417.267699220277,0.0038356289482927236,0.0027563092428492405
6417.268698992492,0.003755272764521381,0.0027545344192579143
6417.269698764708,0.0036836561120091064,0.0027486265515859762
6417.270698536923,0.0036219830391887855,0.002738646310175032
6417.271698309138,0.0035712768974880413,0.0027246860783477723
6417.272698081353,0.0035323647455011153,0.002706868414265065
6417.273697853569,0.0035058658714068177,0.0026853441163534474
6417.274697625784,0.0034921843970272923,0.002660289925963114
6417.275697398,0.003491505863602186,0.002631905939187058
6417.276697170214,0.00350379769435445,0.0026004128357364513
6417.277696942429,0.0035288134495645063,0.0025660490335270183
6417.278696714645,0.0035661007972536836,0.00252906783554872
6417.27969648686,0.003615013109524624,0.0024897345849671814
6417.280696259076,0.003674724569092861,0.0024483238282737223
6417.281696031291,0.003744248619449217,0.002405116518704151
6417.282695803506,0.0038224594921468153,0.002360397345599694
6417.283695575721,0.0039081163982562705,0.0023144523026251322
6417.284695347937,0.003999889807268559,0.002267566585967469
6417.285695120152,0.004096389082485306,0.00222002286136121
6417.286694892367,0.0041961906095124854,0.0021720998866050023
6417.287694664582,0.004297865460171025,0.0021240714389781945
6417.288694436797,0.0044000056055050535,0.002076205477938603
6417.289694209013,0.004501247741913873,0.0020287634718454944
6417.290693981228,0.004600293918811754,0.001981999822326616
6417.291693753444,0.0046959283661040215,0.0019361613184787892
6417.292693525658,0.004787030228558752,0.0018914865509705512
6417.293693297874,0.004872582262777704,0.0018482052283901077
6417.294693070089,0.004951675813290006,0.0018065373611411888
6417.295692842305,0.005023512478766113,0.0017666922948055396
6417.29669261452,0.00508740285234079,0.0017288675849165052
6417.297692386735,0.005142762683633863,0.0016932477241174424
6417.29869215895,0.005189106852434761,0.0016600027631372952
6417.299691931165,0.005226041685701857,0.0016292868933573098
6417.300691703381,0.005253256331398275,0.0016012370704232629
6417.301691475596,0.005270514012444218,0.00157597175759134
6417.302691247812,0.005277643941314982,0.0015535898581201502
6417.303691020026,0.00527453449728389,0.001534169892034578
6417.304690792242,0.005261128034781551,0.0015177694611546516
6417.305690564457,0.005237417476163056,0.0015044250393515606
6417.306690336673,0.005203444682585773,0.0014941521149178444
6417.307690108888,0.0051593004952179165,0.0014869456907526156
6417.308689881103,0.005105126274547839,0.0014827811150361567
6417.309689653318,0.005041116720850868,0.0014816151777803039
6417.310689425533,0.004967523734088019,0.0014833873814779032
6417.311689197749,0.00488466106009716,0.0014880212879262627
6417.312688969964,0.004792909441262625,0.0014954258526886052
6417.31368874218,0.004692721917948558,0.0015054966673503074
6417.314688514394,0.004584628825857752,0.0015181170322074223
6417.31568828661,0.004469241953655977,0.0015331587914131672
6417.316688058825,0.004347257320193435,0.0015504828916255594
6417.3176878310405,0.0042194561326470105,0.0015699396665237366
6417.318687603256,0.004086703673817328,0.0015913688842157713
6417.319687375471,0.003949946060811143,0.0016145996115688034
6417.320687147686,0.003810204942444385,0.0016394499492833347
6417.321686919901,0.003668570258703286,0.0016657266846910625
6417.322686692117,0.003526191236773587,0.001693224915673955
6417.323686464332,0.0033842658778664913,0.0017217277282134465
6417.324686236548,0.0032440292549380596,0.0017510060439477582
6417.325686008762,0.003106740941232813,0.001780818767960362
6417.326685780978,0.0029736718311773576,0.001810913357349892
6417.327685553193,0.0028460905498019513,0.0018410269107479397
6417.3286853254085,0.0027252496114161784,0.0018708878561450506
6417.329685097624,0.002612371481229861,0.0019002182879084414
6417.330684869839,0.00250863469642806,0.0019287369717981885
6417.331684642054,0.0024151602094311057,0.001956163002280764
6417.332684414269,0.002332998131881086,0.0019822200644696707
6417.333684186485,0.002263115078272242,0.0020066412238561172
6417.3346839587,0.0022063823120164047,0.00202917413679547
6417.335683730916,0.002163564875126986,0.0020495865433768365
6417.33668350313,0.0021353118520181878,0.002067671875895765
6417.337683275346,0.0021221478933118655,0.002083254791622119
6417.338683047561,0.002124466100478923,0.0020961964160697254
6417.3396828197765,0.002142522333622387,0.002106399062182313
6417.340682591992,0.0021764309548343423,0.0021138101754943155
6417.341682364207,0.0022261619766882988,0.0021184252642134477
6417.342682136422,0.0022915395649253517,0.0021202896380446623
6417.343681908637,0.0023722418404881055,0.0021194989028189715
6417.344681680853,0.002467801924735935,0.0021161982842057584
6417.345681453068,0.002577610176077403,0.0021105809159401743
6417.346681225284,0.00270091758836119,0.002102885209610924
6417.347680997498,0.0028368403553856326,0.002093391354670333
6417.348680769714,0.0029843656284920094,0.002082416919179618
6417.349680541929,0.0031423584856174413,0.002070311472879645
6417.3506803141445,0.0033095700891759973,0.0020574501686131687
6417.35168008636,0.003484646959501539,0.0020442263022239877
6417.352679858574,0.003666141267325852,0.0020310429942654177
6417.35367963079,0.0038525220707721014,0.002018304255444866
6417.354679403005,0.00404218746381377,0.0020064057766962184
6417.355679175221,0.0042334776227618155,0.0019957258057354773
6417.356678947436,0.0044246887292251754,0.001986616442327771
6417.357678719651,0.004614087738941169,0.001979395631379871
6417.358678491866,0.00479992796993122,0.001974340075049047
6417.359678264082,0.004980465499954736,0.0019716792213782925
6417.360678036297,0.005153976406513737,0.0019715904168785404
6417.3616778085125,0.005318774956934444,0.0019741952475981045
6417.362677580728,0.0054732329119825136,0.0019795570521197437
6417.363677352942,0.005615800074358303,0.0019876795697289706
6417.364677125158,0.005745026070887896,0.0019985066763754658
6417.365676897373,0.005859583135711824,0.0020119231539746686
6417.366676669589,0.005958289407112908,0.002027756437691458
6417.367676441804,0.00604013200302403,0.002045779292189309
6417.368676214019,0.0061042889388828675,0.002065713374713674
6417.369675986234,0.006150148833895409,0.0020872336444454293
6417.37067575845,0.006177327345894291,0.002109973578922882
6417.371675530665,0.00618567939712377,0.002133531165422505
6417.37267530288,0.006175306498693575,0.0021574756380487847
6417.373675075096,0.006146558802205742,0.002181354914426808
6417.37467484731,0.006100031818955328,0.00220470365060443
6417.375674619526,0.006036557976847329,0.00222705179153238
6417.376674391741,0.005957193307163016,0.002247933453714609
6417.377674163957,0.005863199596443864,0.002266895943110862
6417.378673936172,0.005756022374463611,0.0022835086980307765
6417.379673708387,0.005637265206573206,0.0022973719517142945
6417.380673480602,0.0055086609240491986,0.0023081249111455695
6417.381673252818,0.005372040595037205,0.0023154532408354586
6417.382673025033,0.00522930113648789,0.0023190956478930103
6417.383672797248,0.005082372471459808,0.002318849409582687
6417.384672569464,0.004933185078118838,0.0023145747486587433
6417.385672341678,0.0047836386957418545,0.0023061980022681078
6417.386672113894,0.004635572855367966,0.002293713526922604
6417.387671886109,0.004490739770736266,0.002277184253946277
6417.388671658325,0.004350779960153036,0.0022567407904383174
6417.38967143054,0.004217200811085913,0.002232578977942663
6417.390671202755,0.004091358191733955,0.002204955891389877
6417.39167097497,0.003974441173468495,0.002174184376291378
6417.392670747186,0.003867459941157416,0.0021406263425695934
6417.393670519401,0.0037712370032349373,0.002104685113107259
6417.394670291616,0.003686401827404095,0.002066797146378466
6417.395670063831,0.003613388985659848,0.0020274234279545112
6417.396669836046,0.0035524397893661377,0.0019870407766681216
6417.397669608262,0.0035036072637291515,0.0019461332538698907
6417.398669380477,0.0034667641991214856,0.0019051838108030024
6417.399669152693,0.00344161394858544,0.0018646662715766005
6417.400668924908,0.003427703599613606,0.0018250377357079707
6417.401668697123,0.003424439113707837,0.001786731492588768
6417.402668469338,0.0034311020147163216,0.0017501505566848172
6417.4036682415535,0.003446867240828922,0.0017156619420604902
6417.404668013769,0.003470821843776982,0.0016835917962725374
6417.405667785984,0.0035019842830990126,0.0016542215144123263
6417.406667558199,0.0035393240918167816,0.0016277849532834283
6417.407667330414,0.0035817816773538037,0.0016044668512308056
6417.40866710263,0.003628287986898044,0.0015844025236632163
6417.409666874845,0.003677783729748793,0.0015676788544790165
6417.410666647061,0.003729237813553234,0.0015543365500711433
6417.411666419276,0.0037816646193280473,0.0015443735682837778
6417.412666191491,0.0038341397337115883,0.001537749577779286
6417.413665963706,0.003885813801923687,0.001534391247298621
6417.4146657359215,0.00393592426545606,0.0015341981193581343
6417.415665508137,0.003983804879212084,0.0015370487974123305
6417.416665280352,0.004028893015688404,0.001542807170047528
6417.417665052567,0.004070734811182144,0.0015513284050473024
6417.418664824782,0.004108988177624352,0.0015624644648693877
6417.419664596998,0.004143423629604988,0.001576068920602553
6417.420664369213,0.004173922826850866,0.001592000871702227
6417.421664141429,0.004200474765398772,0.001610127810530314
6417.422663913643,0.004223169671687113,0.001630327303511361
6417.423663685859,0.004242190810177978,0.0016524874044182509
6417.424663458074,0.004257804533851152,0.0016765057873878786
6417.4256632302895,0.004270348942599537,0.00170228768988443
6417.426663002505,0.004280221479587082,0.0017297428610785124
6417.42766277472,0.004287865751267788,0.0017587817836532732
6417.428662546935,0.004293757856348657,0.0017893114640532108
6417.42966231915,0.004298392544967647,0.0018212310780371397
6417.430662091366,0.004302269550999455,0.0018544277340429723
6417.431661863581,0.004305880419998505,0.0018887725935058997
6417.432661635797,0.0043096961165485555,0.0019241175707664566
6417.433661408011,0.0043141556718159085,0.0019602928156199537
6417.434661180227,0.004319656120680972,0.0019971051444038685
6417.435660952442,0.004326543947048133,0.002034337528104322
6417.4366607246575,0.004335108198909789,0.0020717496799950628
6417.437660496873,0.004345575380624059,0.0021090797272891974
6417.438660269088,0.004358106204436851,0.0021460469114826606
6417.439660041303,0.004372794281063151,0.002182355236232169
6417.440659813518,0.004389666826268489,0.0022176979534072575
6417.441659585734,0.004408687435713378,0.002251762737481272
6417.442659357949,0.004429760924062121,0.0022842373560838414
6417.443659130165,0.00445274014063625,0.0023148156191738056
6417.444658902379,0.004477434576259451,0.0023432033855915226
6417.445658674595,0.0045036204769424324,0.002369124412636751
6417.44665844681,0.004531052086202595,0.002392325847837029
6417.4476582190255,0.0045594735504877115,0.0024125831967565436
6417.448657991241,0.004588630939225255,0.002429704664928708
6417.449657763456,0.004618283752631137,0.0024435348413697966
6417.450657535671,0.0046482152311725445,0.0024539577219410613
6417.451657307886,0.004678240776001161,0.0024608990401914243
6417.452657080102,0.004708213877628239,0.002464327804176517
6417.453656852317,0.004738029130309149,0.002464256887770294
6417.454656624533,0.004767622124308471,0.0024607425461502875
6417.455656396747,0.004796966181571107,0.0024538828222524208
6417.456656168963,0.004826066010103141,0.002443814937196499
6417.457655941178,0.004854948455132174,0.0024307118560089893
6417.4586557133935,0.004883650693425985,0.0024147782657871234
6417.459655485609,0.004912206456964286,0.002396246203762749
6417.460655257823,0.004940631114417252,0.002375370539886936
6417.461655030039,0.004968906601590145,0.002352424459170897
6417.462654802254,0.004996967239821677,0.00232769501066347
6417.46365457447,0.005024687431171579,0.0023014787075112827
6417.464654346685,0.00505187210179398,0.002274077101787955
6417.465654118901,0.005078250594598759,0.002245792252968304
6417.466653891115,0.0051034744924025,0.0022169220778123174
6417.467653663331,0.005127119593567462,0.0021877556800485917
6417.468653435546,0.005148691987608059,0.0021585688419487256
6417.469653207761,0.005167637919069977,0.0021296198717838367
6417.470652979977,0.005183356910329672,0.0021011459528654463
6417.471652752191,0.0051952174587879965,0.0020733600726220397
6417.472652524407,0.005202574559060213,0.002046448557301979
6417.473652296622,0.00520478835020309,0.002020569212150245
6417.474652068838,0.005201243324102693,0.0019958500637478737
6417.475651841053,0.005191367665298303,0.001972388707028089
6417.476651613269,0.005174652351405761,0.0019502522619691146
6417.477651385483,0.005150669633820104,0.0019294779415828316
6417.478651157699,0.0051190904981203746,0.0019100742288523159
6417.479650929914,0.005079700714630138,0.0018920226567107983
6417.480650702129,0.005032415130432927,0.0018752801768869567
6417.481650474345,0.004977289896857001,0.001859782093872127
6417.482650246559,0.00491453235270101,0.0018454455419563785
6417.483650018775,0.0048445083019973455,0.0018321734942849444
6417.48464979099,0.004767746461258782,0.0018198592886074256
6417.485649563206,0.004684939928172789,0.0018083916133109106
6417.486649335421,0.004596944636867319,0.001797659824208468
6417.487649107636,0.004504774866474016,0.0017875593845260984
6417.488648879851,0.004409595902294148,0.0017779971696821274
6417.4896486520665,0.004312713899850627,0.0017688963741452552
6417.490648424282,0.004215562917695937,0.0017602007972933027
6417.491648196497,0.0041196890388554,0.0017518783504333793
6417.492647968713,0.004026731549740235,0.0017439236934471702
6417.493647740927,0.003938401288769123,0.0017363599539937844
6417.494647513143,0.0038564564498971133,0.0017292395001550383
6417.495647285358,0.0037826762464729753,0.0017226437478845974
6417.496647057574,0.003718832876692035,0.0017166820041714245
6417.497646829789,0.0036666622274621487,0.0017114893684830005
6417.498646602004,0.0036278337820789736,0.0017072237265386846
6417.499646374219,0.0036039202826233575,0.0017040618787614575
6417.5006461464345,0.0035963677919682324,0.0017021948698205179
6417.50164591865,0.0036064668457808633,0.0017018226326725797
6417.502645690865,0.003635325375528472,0.0017031481170662363
6417.503645463081,0.003683844040085558,0.0017063711178672124
6417.504645235295,0.003752694528025612,0.0017116820435418643
6417.505645007511,0.0038423012749947316,0.0017192558728127937
6417.506644779726,0.003952826893031045,0.0017292465380961738
6417.507644551942,0.004084161472625408,0.0017417819428634013
6417.508644324157,0.004235915836141992,0.0017569597707015171
6417.509644096372,0.004407418801668688,0.0017748441912166797
6417.510643868587,0.004597718529328191,0.001795463520453203
6417.5116436408025,0.004805588032239025,0.0018188088484615778
6417.512643413018,0.005029534926936175,0.0018448336049611352
6417.513643185233,0.005267815463134175,0.0018734540056395423
6417.514642957449,0.005518452790822301,0.0019045503081756556
6417.515642729663,0.00577925929079109,0.0019379687912133006
6417.516642501879,0.006047862652296698,0.001973524336135784
6417.517642274094,0.006321735290642183,0.002011003455164751
6417.51864204631,0.006598226690094058,0.0020501676025310982
6417.519641818525,0.0068745983035461726,0.002090756637528982
6417.52064159074,0.007148060675010167,0.0021324923531790057
6417.521641362955,0.007415812439796001,0.002175082013334197
6417.5226411351705,0.00767508081593062,0.002218221851245353
6417.523640907386,0.007923163143551326,0.0022616004867035445
6417.524640679601,0.008157468933594392,0.0023049022216110634
6417.525640451816,0.008375561739821081,0.0023478101690353878
6417.526640224031,0.008575200020151792,0.002390009161359094
6417.527639996247,0.008754376076462261,0.002431188391739098
6417.528639768462,0.008911352157667324,0.002471043790353163
6417.529639540678,0.009044692805252209,0.002509280208680405
6417.530639312893,0.009153292468940298,0.002545613536275406
6417.531639085108,0.009236397391360479,0.00257977287448453
6417.532638857323,0.009293620881483113,0.00261150285210597
6417.5336386295385,0.009324951412006165,0.002640566117304772
6417.534638401754,0.009330753380896412,0.0026667459894702573
6417.535638173969,0.009311760694590655,0.00268984920785572
6417.536637946184,0.009269063451324304,0.002709708687782592
6417.537637718399,0.00920408796870156,0.0027261862050690583
6417.538637490615,0.009118570361366025,0.0027391749612885176
6417.53963726283,0.009014523974715126,0.0027486020043148572
6417.540637035046,0.008894201252282958,0.0027544304742711293
6417.541636807261,0.008760050970853625,0.0027566616216930266
6417.542636579476,0.008614672076506383,0.002755336511190953
6417.543636351691,0.008460765482975594,0.00275053727962731
6417.5446361239065,0.008301085119758118,0.0027423877689811845
6417.545635896122,0.008138389294972152,0.002731053328167061
6417.546635668337,0.007975393165847505,0.002716739605169282
6417.547635440552,0.007814722885931855,0.002699690229893994
6417.548635212767,0.0076588718907361865,0.002680183389771282
6417.549634984983,0.007510159808116853,0.0026585273982685734
6417.550634757198,0.007370694587477494,0.0026350554358155146
6417.551634529414,0.007242338551151868,0.002610119688977197
6417.552634301628,0.007126679122160113,0.002584085122906144
6417.553634073844,0.007025004952306991,0.002557323107837951
6417.554633846059,0.006938288054767837,0.0025302050960870925
6417.555633618274,0.0068671723335756284,0.002503096511357531
6417.55663339049,0.006811968624115133,0.002476350972307822
6417.557633162705,0.006772656083651996,0.002450304954186541
6417.55863293492,0.006748889591219215,0.0024252730135064463
6417.559632707135,0.006740012781495758,0.0024015437308223956
6417.560632479351,0.006745076403702895,0.0023793765163407517
6417.561632251566,0.006762861763774193,0.002358999363601945
6417.562632023782,0.006791909014749606,0.0023406075580089695
6417.563631795996,0.006830550018103652,0.002324363274098355
6417.564631568212,0.006876945435221425,0.002310395938988748
6417.565631340427,0.006929125614670602,0.002298803214182503
6417.566631112642,0.006985034689571264,0.0022896524639154777
6417.567630884858,0.007042577088986844,0.002282982621265957
6417.568630657073,0.007099665433670558,0.0022788064011623004
6417.569630429288,0.007154268577948888,0.00227711281580898
6417.570630201503,0.00720445841026786,0.00227786991959947
6417.571629973719,0.007248453952116418,0.0022810276700959823
6417.572629745934,0.007284661323795679,0.0022865207714358286
6417.57362951815,0.0073117083122041515,0.0022942713828563942
6417.574629290364,0.0073284725612508,0.0023041916168164587
6417.57562906258,0.007334102693798015,0.0023161857916216833
6417.576628834795,0.007328031857089211,0.0023301524235537327
6417.57762860701,0.007309983299229181,0.0023459859437925702
6417.578628379226,0.007279967783953153,0.0023635781149579384
6417.579628151441,0.007238273020756669,0.0023828191079029786
6417.580627923656,0.007185445736583444,0.0024035981892963757
6417.581627695871,0.007122267361696482,0.0024258039694623084
6417.582627468087,0.0070497244540233765,0.0024493241622150926
6417.583627240302,0.0069689750044375776,0.002474044810382049
6417.584627012518,0.006881311756674738,0.002499848951004068
6417.585626784732,0.006788123681546611,0.002526614761532329
6417.586626556948,0.006690856758886462,0.002554213338993224
6417.587626329163,0.006590975236776963,0.0025825063684677754
6417.588626101378,0.006489924531959398,0.002611343984368632
6417.589625873594,0.0063890968541422365,0.0026405631118537175
6417.590625645808,0.006289800461678419,0.0026699865269943558
6417.591625418024,0.0061932332398952315,0.0026994228203736518
6417.592625190239,0.006100461098011835,0.002728667393460509
6417.593624962455,0.006012401508936645,0.002757504552458858
6417.59462473467,0.005929812328350298,0.0027857106874972877
6417.5956245068855,0.005853285803798668,0.0028130584384688717
6417.5966242791,0.005783247448343104,0.0028393216564469165
6417.597624051316,0.005719959262738209,0.002864280884653416
6417.598623823531,0.005663526690892537,0.002887729030845709
6417.599623595746,0.005613908696850389,0.002909476901274288
6417.600623367962,0.005570930430453366,0.002929358304664915
6417.601623140176,0.005534298044656022,0.0029472344841509944
6417.602622912392,0.005503615275865566,0.0029629976788411155
6417.603622684607,0.00547840136666839,0.002976573666120099
6417.604622456823,0.005458109808898569,0.0029879232114494655
6417.605622229038,0.0054421472590876875,0.002997042447855016
6417.6066220012535,0.005429891901572883,0.003003962279323124
6417.607621773468,0.005420710575989474,0.0030087469097738913
6417.608621545684,0.005413974138732566,0.0030114915532390026
6417.609621317899,0.005409070703470302,0.0030123193428579997
6417.610621090114,0.005405416531448809,0.0030113774749472326
6417.61162086233,0.0054024644371072055,0.003008832684371798
6417.612620634544,0.005399709708290598,0.00300486619346496
6417.61362040676,0.005396693738085723,0.0029996682786009375
6417.614620178975,0.005393005762778161,0.002993432578243254
6417.615619951191,0.005388283199872763,0.0029863502612409035
6417.616619723406,0.005382211042666476,0.002978604188338235
6417.617619495621,0.0053745206337496325,0.002970363211100178
6417.618619267836,0.005364987978762695,0.0029617767592750406
6417.619619040052,0.005353431636294107,0.0029529698923551366
6417.620618812267,0.0053397101795791884,0.0029440390325999348
6417.621618584482,0.0053237192968848815,0.002935048616450277
6417.622618356698,0.00530538875769184,0.002926028866411565
6417.623618128912,0.00528467964265537,0.002916974803732982
6417.624617901128,0.005261582328135268,0.002907846530038659
6417.625617673343,0.005236115693552727,0.0028985707405659172
6417.626617445559,0.005208327899320364,0.0028890434072759838
6417.627617217774,0.005178298892031584,0.0028791335663229333
6417.628616989989,0.005146144550745669,0.002868688124281964
6417.629616762204,0.005112022120284646,0.0028575375466088695
6417.63061653442,0.005076136327613803,0.0028455022271089768
6417.631616306635,0.005038745394865995,0.002832399279452348
6417.63261607885,0.0050001660922270675,0.0028180494472891124
6417.633615851066,0.00496077704899704,0.002802283805628614
6417.63461562328,0.004921019761298735,0.002784949943476882
6417.635615395496,0.0048813970342490905,0.0027659173830928262
6417.636615167711,0.004842468860762583,0.0027450820726866907
6417.637614939927,0.004804845888074374,0.0027223698498293927
6417.638614712142,0.004769180662761443,0.0026977388134495693
6417.639614484357,0.004736156831735549,0.002671180584332329
6417.640614256572,0.004706476461989832,0.002642720480912579
6417.641614028787,0.004680845665007277,0.0026124166821220158
6417.642613801003,0.004659958795913295,0.0025803584971949038
6417.643613573218,0.004644481620715366,0.002546663917124368
6417.644613345434,0.00463503394924652,0.002511476663286506
6417.645613117648,0.004632172286435247,0.0024749629462491292
6417.646612889864,0.0046363730812349286,0.00243730809980586
6417.647612662079,0.004648017172197482,0.002398713192821253
6417.648612434295,0.004667376024560987,0.0023593916792631186
6417.64961220651,0.004694600296144334,0.002319566135321598
6417.650611978725,0.004729711155839504,0.0022794651351306793
6417.65161175094,0.004772594639836889,0.0022393203093416638
6417.652611523155,0.0048229992079674424,0.0021993636046743637
6417.653611295371,0.004880536578940693,0.002159824725853539
6417.654611067586,0.004944685867546447,0.0021209287081837727
6417.655610839801,0.005014800986321073,0.002082893553318899
6417.656610612016,0.00509012118684522,0.0020459278691037966
6417.657610384232,0.005169784497773922,0.002010228476739232
6417.658610156447,0.005252843668199621,0.001975977969129912
6417.659609928663,0.005338284064461797,0.0019433422253503966
6417.660609700878,0.005425042852875924,0.0019124679249207027
6417.6616094730925,0.005512028789598543,0.001883480162626269
6417.662609245308,0.005598142029625452,0.0018564803120915655
6417.663609017523,0.005682293486122861,0.001831544295950727
6417.664608789739,0.0057634233305159585,0.0018087213914250043
6417.665608561954,0.005840518180776916,0.001788033652315637
6417.666608334169,0.005912626412825692,0.00176947597993435
6417.667608106384,0.005978870957240666,0.0017530168348404845
6417.6686078786,0.006038459053351333,0.0017385995529010207
6417.669607650815,0.006090688786460955,0.001726144215524823
6417.670607423031,0.006134952713240079,0.001715550021208523
6417.671607195246,0.006170739259391785,0.0017066981042180322
6417.6726069674605,0.006197632710046841,0.001699454738273544
6417.673606739676,0.006215312530514752,0.001693674846820821
6417.674606511891,0.006223552558988567,0.0016892057211111687
6417.675606284107,0.006222220390326191,0.0016858908334931857
6417.676606056322,0.006211277059201294,0.0016835736396142791
6417.677605828537,0.006190776947049022,0.0016821012910349202
6417.678605600752,0.006160867710702488,0.001681328207542672
6417.679605372968,0.006121790005712017,0.0016811194582855892
6417.680605145183,0.006073876867635545,0.001681353869503203
6417.681604917399,0.006017552769581327,0.0016819267431037815
6417.682604689613,0.005953332497013983,0.0016827520660874847
6417.6836044618285,0.005881819989014324,0.001683764115827926
6417.684604234044,0.005803707178899949,0.001684918394338585
6417.685604006259,0.005719772691147503,0.0016861918401434141
6417.686603778475,0.005630880104931264,0.00168758227984242
6417.68760355069,0.005537975432631907,0.0016891071104061317
6417.688603322905,0.0054420834750338026,0.0016908012521366458
6417.68960309512,0.0053443027479687715,0.0016927144701098054
6417.690602867336,0.005245798690869374,0.0016949082091068158
6417.691602639551,0.005147794896471947,0.0016974521094734762
6417.692602411767,0.005051562202930288,0.0017004203731145972
6417.693602183981,0.004958405664898824,0.0017038881432055349
6417.6946019561965,0.004869649593561928,0.0017079280502234138
6417.695601728412,0.004786620968954667,0.001712607052730445
6417.696601500627,0.004710631603200418,0.0017179836665168324
6417.697601272843,0.00464295951863637,0.00172410564760803
6417.698601045058,0.00458483009872277,0.0017310081860889362
6417.699600817273,0.004537397627944767,0.0017387126718121785
6417.700600589488,0.004501727833362024,0.0017472260923269475
6417.701600361704,0.00447878199537719,0.0017565411074566323
6417.702600133919,0.004469403143001743,0.0017666368134636064
6417.703599906135,0.004474304794619348,0.0017774801639486248
6417.704599678349,0.004494062631121018,0.0017890279554599999
6417.7055994505645,0.004529109386924669,0.0018012292202808492
6417.70659922278,0.0045797331221697985,0.0018140278140486856
6417.707598994995,0.0046460789021869515,0.0018273649583590837
6417.708598767211,0.004728153766920867,0.0018411815004156392
6417.709598539426,0.00482583473367645,0.0018554196782709534
6417.710598311641,0.004938879436590923,0.0018700242355591356
6417.711598083856,0.005066938853107421,0.001884942816778135
6417.712597856072,0.00520957141510518,0.001900125673887123
6417.713597628287,0.005366257692952641,0.0019155247933664668
6417.714597400503,0.005536414800781144,0.001931092588870907
6417.715597172717,0.005719409677983352,0.0019467803047818455
6417.7165969449325,0.005914570408827648,0.001962536264030872
6417.717596717148,0.006121194734238769,0.00197830408458753
6417.718596489363,0.006338554937753847,0.001994020977306941
6417.719596261579,0.0065658984361065395,0.0020096162143239575
6417.720596033793,0.006802443707529768,0.002025009829382874
6417.721595806009,0.007047371584982168,0.002040111598841908
6417.722595578224,0.007299812320053787,0.0020548203668100578
6417.72359535044,0.007558829124525501,0.002069023812528121
6417.724595122655,0.007823399141044478,0.0020825987900044006
6417.725594894871,0.008092393039345227,0.0020954123779436114
6417.726594667085,0.008364554690779574,0.002107323753946064
6417.7275944393,0.008638482573412518,0.0021181869541924813
6417.728594211516,0.008912614612153437,0.0021278545081273546
6417.729593983731,0.009185218033057222,0.0021361818578934997
6417.730593755947,0.009454385554234704,0.0021430323920307603
6417.731593528161,0.00971803891672783,0.0021482828463431363
6417.732593300377,0.009973940418173649,0.0021518287565066743
6417.733593072592,0.01021971275954203,0.0021535895989970083
6417.734592844808,0.010452867147105811,0.002153513252322326
6417.735592617023,0.010670839203555616,0.002151579468091934
6417.736592389239,0.010871031846655093,0.0021478021505291307
6417.737592161453,0.011050863933620021,0.0021422303681886317
6417.738591933668,0.01120782318687976,0.0021349481339480807
6417.739591705884,0.01133952172256065,0.002126073078179803
6417.740591478099,0.011443752399170382,0.0021157541984585626
6417.741591250315,0.011518544206213526,0.002104168886305867
6417.742591022529,0.011562215007238153,0.0020915194036076027
6417.743590794745,0.01157342006510876,0.002078028925389619
6417.74459056696,0.011551194825568135,0.0020639372152947365
6417.745590339176,0.011494990393748733,0.0020494959830677476
6417.746590111391,0.01140470008065133,0.0020349639889145335
6417.7475898836055,0.011280675505737843,0.0020206019809779025
6417.748589655821,0.011123731207753748,0.0020066675559628853
6417.749589428036,0.010935137527827894,0.0019934100232063467
6417.750589200252,0.010716602413964337,0.0019810653494424717
6417.751588972467,0.01047024342197558,0.0019698512743083732
6417.752588744683,0.01019855140029565,0.001959962709432924
6417.753588516897,0.009904347225446145,0.0019515675593055628
6417.754588289113,0.009590732715214483,0.0019448031210951245
6417.755588061328,0.00926103669031481,0.0019397732185168675
6417.756587833544,0.00891875717740299,0.001936546192713215
6417.757587605759,0.00856750092725775,0.0019351538176058942
6417.7585873779735,0.00821092167006315,0.0019355911434664422
6417.759587150189,0.007852658720107715,0.0019378172131670284
6417.760586922404,0.007496277571100836,0.001941756549233895
6417.76158669462,0.007145213981915155,0.001947301284558168
6417.762586466835,0.006802722825981647,0.001954313809391002
6417.763586239051,0.006471832745089626,0.001962629823723565
6417.764586011265,0.00615530741961772,0.001972061702612395
6417.765585783481,0.005855614021568876,0.0019824020949318153
6417.766585555696,0.0055748991528496265,0.001993427685751038
6417.767585327912,0.005314972305458424,0.0020049030695189086
6417.768585100127,0.0050772966316537105,0.002016584717351918
6417.7695848723415,0.004862986599199252,0.002028225070548472
6417.770584644557,0.004672811948821054,0.002039576826165616
6417.771584416772,0.004507207287772003,0.0020503974789664245
6417.772584188988,0.004366286645486931,0.002060454152394047
6417.773583961203,0.004249862339658208,0.0020695287025877113
6417.774583733419,0.004157467484220261,0.0020774230189979583
6417.775583505633,0.004088381388431533,0.002083964377037254
6417.776583277849,0.004041656999942981,0.002089010635824462
6417.777583050064,0.004016149518042133,0.0020924550362590257
6417.77858282228,0.004010545383273518,0.0020942303507216053
6417.779582594495,0.004023391004557578,0.0020943121560964358
6417.7805823667095,0.004053120760354748,0.002092721029613942
6417.781582138925,0.004098083964544103,0.002089523499174249
6417.78258191114,0.004156570590216223,0.0020848316301634
6417.783581683356,0.004226835589178946,0.002078801211332067
6417.784581455571,0.00430712166242402,0.0020716286052642496
6417.785581227786,0.004395680365040355,0.0020635464266423867
6417.786581000001,0.004490791473817014,0.002054818275051822
6417.787580772217,0.004590780578820579,0.0020457327686282116
6417.788580544432,0.004694034846995929,0.002036597110245166
6417.789580316648,0.004799016836055481,0.0020277303841168717
6417.790580088863,0.004904276140001035,0.002019456738149943
6417.7915798610775,0.00500845858592674,0.002012098562612247
6417.792579633293,0.005110312739983548,0.002005969737676756
6417.793579405508,0.005208693636326859,0.002001369006650871
6417.794579177724,0.005302563858986419,0.001998573547321074
6417.795578949939,0.005390992292953484,0.0019978328457980815
6417.796578722154,0.0054731509801328815,0.0019993629985004184
6417.797578494369,0.005548310597717231,0.0020033415706454177
6417.798578266585,0.005615835135500737,0.00200990313656726
6417.7995780388,0.005675176343812531,0.002019135624983511
6417.800577811016,0.005725868429411436,0.002031077584029626
6417.801577583231,0.005767523339313155,0.002045716463921117
6417.8025773554455,0.0057998268643474305,0.0020629879986887203
6417.803577127661,0.00582253574053364,0.0020827767571958396
6417.804576899876,0.0058354758945193255,0.0021049179148719286
6417.805576672092,0.005838541918779613,0.0021292002551784378
6417.806576444307,0.0058316977461838485,0.002155370345783495
6417.807576216522,0.0058149783399403104,0.0021831377680048554
6417.808575988737,0.005788492079138213,0.002212181228282373
6417.809575760953,0.0057524234494094086,0.0022421553531981457
6417.810575533168,0.005707035628684384,0.0022726979575434696
6417.811575305384,0.005652672523089703,0.0023034375684875758
6417.812575077598,0.005589759722174969,0.002334000988585353
6417.813574849813,0.0055188037652493796,0.002364020699028044
6417.814574622029,0.005440389148533739,0.0023931419528597426
6417.815574394244,0.005355172700006521,0.0024210294718550384
6417.81657416646,0.005263875247942378,0.0024473737021761645
6417.817573938675,0.005167270814963928,0.0024718965735175246
6417.81857371089,0.005066173816048301,0.002494356649765109
6417.819573483105,0.004961424900822683,0.0025145534883674117
6417.820573255321,0.004853876152873831,0.0025323309744510127
6417.821573027536,0.004744376345517101,0.0025475793825312744
6417.822572799752,0.004633756873316527,0.0025602359509513616
6417.823572571966,0.004522818866159607,0.0025702838415568763
6417.824572344181,0.004412321877093966,0.0025777494972600095
6417.825572116397,0.004302974426810023,0.0025826985661850056
6417.826571888612,0.0041954265858196345,0.002585230683235147
6417.827571660828,0.004090264673634874,0.0025854734653089967
6417.828571433043,0.003988008046658605,0.00258357608857015
6417.829571205258,0.003889107844276087,0.002579702786943198
6417.830570977473,0.0037939474928760783,0.0025740265609765943
6417.831570749689,0.003702844741148351,0.002566723338194649
6417.832570521904,0.0036160549928455476,0.0025579667828111935
6417.833570294119,0.0035337756841373755,0.002547923900412357
6417.834570066334,0.003456151421483295,0.0025367515216636874
6417.835569838549,0.0033832795792771895,0.0025245936951068457
6417.836569610765,0.003315216076306433,0.002511579978050543
6417.83756938298,0.0032519811070602644,0.0024978245752584607
6417.838569155196,0.00319356468132183,0.00248342623888826
6417.839568927411,0.0031399319003403347,0.002468468831075347
6417.840568699626,0.0030910279548378617,0.0024530224707230036
6417.841568471841,0.003046782862527974,0.002437145210711618
6417.842568244057,0.003007115961142378,0.002420885181424091
6417.843568016272,0.002971940132578248,0.002404283082333432
6417.844567788487,0.0029411656802176955,0.0023873748393607296
6417.845567560702,0.002914703759486967,0.00237019422250006
6417.846567332917,0.0028924692891954336,0.0023527752641820153
6417.847567105133,0.0028743833276465257,0.002335154414214389
6417.848566877348,0.002860374957146266,0.0023173724564712443
6417.849566649564,0.0028503827676963655,0.0022994762540796618
6417.850566421778,0.002844356049498306,0.0022815203861107874
6417.851566193994,0.0028422557828203117,0.0022635687118127356
6417.852565966209,0.002844055457782049,0.0022456958590732785
6417.853565738425,0.0028497416821787976,0.0022279885881446803
6417.85456551064,0.0028593144611002122,0.0022105469428522
6417.855565282855,0.0028727869781006747,0.002193485081378377
6417.85656505507,0.0028901846934775463,0.002176931681330163
6417.857564827285,0.0029115436082994507,0.0021610298349936993
6417.858564599501,0.00293690761412368,0.0021459363749435777
6417.859564371716,0.0029663249391898685,0.0021318205810124365
6417.860564143932,0.002999843784894904,0.0021188622184344216
6417.861563916146,0.003037507285583995,0.0021072488615190266
6417.862563688362,0.003079347901112745,0.00209717248469511
6417.863563460577,0.003125381291156745,0.0020888253574654525
6417.8645632327925,0.0031755996806649717,0.0020823953482804656
6417.865563005008,0.003229964755962216,0.0020780608003385446
6417.866562777223,0.00328840023822572,0.0020759851727422227
6417.867562549438,0.003350784422333804,0.002076311642244322
6417.868562321653,0.0034169430763585917,0.0020791578397088843
6417.869562093869,0.0034866431283981183,0.0020846108580702856
6417.870561866084,0.003559587534667608,0.002092722631956606
6417.8715616383,0.003635411665262484,0.0021035057768066506
6417.872561410514,0.003713681487822264,0.0021169299905966625
6417.87356118273,0.003793893774439672,0.0021329191391541665
6417.874560954945,0.003875478491083893,0.0021513491431092093
6417.8755607271605,0.003957803445706388,0.002172046765187685
6417.876560499376,0.00404018117761137,0.0021947893819264327
6417.877560271591,0.004121877971092327,0.002219305823935911
6417.878560043806,0.004202124767225142,0.002245278371535506
6417.879559816021,0.004280129640611037,0.0022723459809592525
6417.880559588237,0.004355091441225048,0.0023001087894490286
6417.881559360452,0.00442621420330592,0.002328133913589254
6417.882559132668,0.004492721971518076,0.0023559625112184205
6417.883558904882,0.004553873743552051,0.0023831180153999812
6417.884558677098,0.004608978259871308,0.0024091153766025364
6417.885558449313,0.0046574083891246535,0.0024334710816863265
6417.8865582215285,0.004698614856823625,0.002455713660408745
6417.887557993744,0.004732139049555746,0.002475394346999745
6417.888557765959,0.004757624627279968,0.0024920975551163305
6417.889557538174,0.004774827705736241,0.002505450859265338
6417.890557310389,0.004783625398642837,0.0025151342324039043
6417.891557082605,0.004784022501827053,0.002520888333385698
6417.89255685482,0.004776156068258953,0.002522521653685642
6417.893556627036,0.004760297607151945,0.0025199163320927523
6417.89455639925,0.004736852678996889,0.0025130324543903267
6417.895556171466,0.004706357745590269,0.002501910685548798
6417.896555943681,0.004669474223401702,0.002486673126085807
6417.8975557158965,0.0046269797573435,0.002467522334970592
6417.898555488112,0.004579756824066619,0.002444738525783933
6417.899555260326,0.004528778936157763,0.002418675020930845
6417.900555032542,0.004475094913995974,0.002389752120722826
6417.901554804757,0.004419811826024427,0.002358449590280256
6417.902554576973,0.00436407721926484,0.002325297987343167
6417.903554349188,0.004309061193253906,0.0022908690590045023
6417.904554121404,0.004255938763011028,0.0022557654311350676
6417.905553893618,0.004205872855181921,0.0022206098029122143
6417.906553665834,0.004159998217949171,0.0021860338436841204
6417.907553438049,0.004119406498348137,0.0021526669751562475
6417.9085532102645,0.004085132709227807,0.0021211252169119656
6417.90955298248,0.004058143230899654,0.0020920002861417814
6417.910552754694,0.004039325373568329,0.0020658491676537483
6417.91155252691,0.004029478412818591,0.0020431843867106804
6417.912552299125,0.004029305947372952,0.0020244652085980434
6417.913552071341,0.0040394094267855426,0.002010089955599723
6417.914551843556,0.004060282735154646,0.0020003895840705875
6417.915551615771,0.004092307755798517,0.001995622612881011
6417.916551387986,0.0041357508390003255,0.0019959714504524714
6417.917551160202,0.004190760041538052,0.002001540136057587
6417.918550932417,0.004257362955809491,0.0020123534879208
6417.9195507046325,0.00433546497515666,0.0020283576312547643
6417.920550476848,0.004424847970921289,0.002049421869651341
6417.921550249062,0.004525169519679897,0.0020753418696526664
6417.922550021278,0.004635962922225701,0.0021058441361505222
6417.923549793493,0.00475663825794383,0.0021405917375944567
6417.924549565709,0.004886484647568663,0.002179191187772462
6417.925549337924,0.005024673803728668,0.002221200326170927
6417.926549110139,0.005170264854738237,0.0022661369811309636
6417.927548882354,0.005322210322708473,0.0023134881503139963
6417.92854865457,0.005479363015744734,0.002362719391264458
6417.929548426785,0.00564048349910739,0.0024132840952529907
6417.930548199,0.005804247830875816,0.0024646323372834547
6417.931547971216,0.005969255439161987,0.0025162190570820926
6417.93254774343,0.006134037327671753,0.0025675114162858103
6417.933547515646,0.006297065086593111,0.002617995271618316
6417.934547287861,0.006456761325300451,0.0026671807745042154
6417.935547060077,0.006611512081584844,0.002714607132980077
6417.936546832292,0.006759681538779899,0.0027598465511835296
6417.937546604507,0.006899629084510206,0.0028025073203856326
6417.938546376722,0.007029728463293247,0.0028422360133988776
6417.939546148938,0.007148388585254344,0.0028787187618281346
6417.940545921153,0.00725407549134694,0.0029116816674509016
6417.941545693368,0.007345335009885345,0.0029408904697883586
6417.942545465583,0.0074208156954258244,0.0029661496188136383
6417.943545237798,0.007479291671489781,0.0029873008913366135
6417.944545010014,0.007519684999516061,0.0030042216863753013
6417.945544782229,0.007541087172393868,0.0030168231649104066
6417.946544554445,0.007542779291131546,0.0030250484402434656
6417.94754432666,0.007524250446366954,0.0030288710306496094
6417.948544098875,0.007485213787928814,0.0030282937332979693
6417.94954387109,0.0074256197011110785,0.0030233479866858654
6417.9505436433055,0.007345665431342034,0.0030140936958337624
6417.951543415521,0.007245800472815139,0.0030006194225186745
6417.952543187736,0.00712672712919137,0.002983042791602878
6417.953542959951,0.006989395893343184,0.0029615109277548453
6417.954542732166,0.006834995628557717,0.0029362007133921426
6417.955542504382,0.0066649388427465804,0.002907318652397481
6417.956542276597,0.006480842520727487,0.0028751001447050064
6417.957542048813,0.006284505017428299,0.0028398080348630474
6417.958541821028,0.006077879515656063,0.002801730386405603
6417.959541593243,0.005863044607545226,0.002761177519101045
6417.960541365458,0.0056421726784365925,0.002718478391274783
6417.9615411376735,0.005417496907980321,0.002673976414540585
6417.962540909889,0.00519127780868624,0.0026280247909783176
6417.963540682104,0.004965770266015411,0.002580981492846624
6417.964540454319,0.004743192003642476,0.0025332040485215217
6417.965540226534,0.004525694268037625,0.0024850443164182896
6417.96653999875,0.0043153353328202375,0.0024368434023540123
6417.967539770965,0.0041140572064416745,0.002388926823058771
6417.968539543181,0.0039236657209012855,0.0023415999729448893
6417.969539315396,0.0037458140003902903,0.002295143934285519
6417.970539087611,0.003581989156263637,0.0022498116803158366
6417.971538859826,0.003433501923520518,0.0022058247406809557
6417.9725386320415,0.003301478851983605,0.0021633704158313316
6417.973538404257,0.003186856621159218,0.002122599631068381
6417.974538176472,0.003090378092760603,0.0020836255025665196
6417.975537948687,0.0030125898388028145,0.0020465226489331297
6417.976537720902,0.0029538410101310414,0.0020113272413715883
6417.977537493118,0.00291428345401645,0.0019780377667006853
6417.978537265333,0.00289387294435902,0.001946616489456275
6417.979537037549,0.0028923713451402384,0.0019169916249700367
6417.980536809763,0.0029093495908254522,0.001889060244355319
6417.981536581979,0.002944191547708813,0.0018626919098673272
6417.982536354194,0.002996099017162092,0.0018377329952607327
6417.9835361264095,0.003064098240418657,0.0018140116004762758
6417.984535898625,0.0031470482385442923,0.0017913429361101569
6417.98553567084,0.003243651228322502,0.0017695350322211307
6417.986535443055,0.0033524652634733944,0.0017483946188040066
6417.98753521527,0.003471919192106379,0.0017277330391627078
6417.988534987486,0.003600329986802585,0.001707372090495043
6417.989534759701,0.003735922466090387,0.0016871497115994252
6417.990534531917,0.0038768513675094055,0.0016669254278617498
6417.991534304131,0.004021225655091639,0.0016465854229086516
6417.992534076347,0.004167134851262711,0.0016260470629821762
6417.993533848562,0.004312677062278873,0.0016052626769264466
6417.9945336207775,0.00445598820511347,0.0015842224009840974
6417.995533392993,0.004595271758716037,0.0015629559300914318
6417.996533165208,0.004728828204696812,0.00154153305475041
6417.997532937423,0.0048550832506560155,0.0015200628845711303
6417.998532709638,0.0049726139626525044,0.001498691680329398
6417.999532481854,0.005080172027283417,0.0014775992729967333
6418.000532254069,0.005176703450974726,0.0014569941526473254
6418.001532026285,0.005261364053947257,0.0014371074318714322
6418.002531798499,0.00533353015753715,0.0014181859826693343
6418.003531570715,0.005392803971754821,0.0014004850873387143
6418.00453134293,0.00543901343464934,0.0013842609367962688
6418.0055311151455,0.005472206614431296,0.0013697632765086033
6418.006530887361,0.005492641141246929,0.0013572284606218415
6418.007530659575,0.005500769387439658,0.0013468731326784862
6418.008530431791,0.00549722025988362,0.0013388886997287332
6418.009530204006,0.005482778548680938,0.0013334367043655406
6418.010529976222,0.005458362808420231,0.001330645135547256
6418.011529748437,0.005425002717971251,0.0013306056669696812
6418.012529520653,0.00538381676170621,0.0013333717812429
6418.013529292867,0.005335990905496171,0.0013389577323460063
6418.014529065083,0.0052827587306762975,0.001347338311240957
6418.015528837298,0.005225383270614129,0.0013584493957941297
6418.016528609513,0.005165140586185315,0.0013721892713636137
6418.017528381729,0.0051033049306042294,0.0013884206973449472
6418.018528153943,0.005041135217879204,0.0014069736772463525
6418.019527926159,0.004979862452043772,0.0014276488788789352
6418.020527698374,0.004920677794560939,0.0014502216475455623
6418.02152747059,0.004864721016974525,0.0014744465485554605
6418.022527242805,0.004813069188337726,0.0015000623615517962
6418.023527015021,0.00476672558575359,0.0015267974344396076
6418.024526787235,0.004726608985469825,0.0015543752952295656
6418.025526559451,0.004693543652288575,0.0015825204100128971
6418.026526331666,0.004668250436541894,0.001610963950109266
6418.027526103881,0.004651339373919997,0.001639449385436431
6418.028525876097,0.004643304085991348,0.0016677376688553074
6418.029525648311,0.004644518153466636,0.0016956117440512974
6418.030525420527,0.004655233510371946,0.0017228801160234259
6418.031525192742,0.004675580781805402,0.0017493792704204223
6418.032524964958,0.004705571368704023,0.0017749748121632634
6418.033524737173,0.004745101009513347,0.0017995613107264579
6418.034524509389,0.004793954548146702,0.0018230609663033445
6418.035524281603,0.0048518116779307915,0.0018454213059612423
6418.0365240538185,0.004918253447454228,0.0018666121586367339
6418.037523826034,0.004992769287657403,0.0018866221606015578
6418.038523598249,0.00507476430272243,0.0019054550410951068
6418.039523370465,0.005163566619445052,0.0019231259411338414
6418.040523142679,0.005258434711818023,0.0019396580128319863
6418.041522914895,0.0053585647597599855,0.001955079516983909
6418.04252268711,0.005463098206820219,0.001969421582409171
6418.043522459326,0.005571129720188262,0.001982716720329599
6418.044522231541,0.005681715730558821,0.001994998110213727
6418.045522003756,0.005793883657416971,0.0020062995977037004
6418.046521775971,0.005906641814197252,0.002016656277879972
6418.0475215481865,0.006018989837580399,0.0020261054870936873
6418.048521320402,0.006129929316576735,0.0020346880038141432
6418.049521092617,0.006238474171777929,0.002042449271102945
6418.050520864833,0.0063436603352283,0.002049440495731073
6418.051520637047,0.006444554432549585,0.002055719528056166
6418.052520409263,0.006540261392690062,0.002061351460443466
6418.053520181478,0.006629931090858355,0.00206640890352051
6418.054519953694,0.00671276420764705,0.0020709719243036592
6418.055519725909,0.0067880174625141515,0.002075127661194964
6418.056519498124,0.006855008276505071,0.0020789696597996454
6418.057519270339,0.006913118789123156,0.0020825969904400563
6418.0585190425545,0.006961799078441068,0.002086113208648576
6418.05951881477,0.007000569478125734,0.0020896252150462624
6418.060518586985,0.007029022054455249,0.0020932420771698173
6418.061518359201,0.00704682153205236,0.002097073885367424
6418.062518131415,0.007053706129001638,0.0021012306999589627
6418.063517903631,0.007049488791466642,0.002105821596997246
6418.064517675846,0.007034059188847809,0.002110953754093717
6418.065517448062,0.0070073866030867325,0.002116731460300013
6418.066517220277,0.006969523616596831,0.0021232549017618724
6418.067516992492,0.006920610352031485,0.002130618583029235
6418.068516764707,0.0068608789728148096,0.0021389092994683312
6418.0695165369225,0.0067906581987032194,0.0021482036620611286
6418.070516309138,0.006710377679640178,0.0021585652610976998
6418.071516081353,0.006620572138232305,0.0021700416212018336
6418.072515853568,0.00652188516943799,0.0021826611413870364
6418.073515625783,0.006415072444527222,0.0021964302256797627
6418.074515397999,0.0063010038343383175,0.002211330793188772
6418.075515170214,0.006180663727971511,0.0022273183232943377
6418.07651494243,0.006055148688399972,0.002244320552048294
6418.077514714645,0.005925661645231687,0.0022622368886346753
6418.07851448686,0.005793502086824325,0.0022809385621627098
6418.079514259075,0.005660052090517713,0.002300269445936145
6418.0805140312905,0.005526758378974894,0.002320047453797641
6418.081513803506,0.005395110805462199,0.002340066372486686
6418.082513575721,0.005266617750620691,0.0023600979903101857
6418.083513347936,0.005142778950451967,0.0023798944112021726
6418.084513120151,0.005025056364726275,0.0023991905085206755
6418.085512892367,0.004914843855720072,0.0024177065669680744
6418.086512664582,0.004813436619380595,0.002435151254712408
6418.087512436798,0.0047220014130371244,0.0024512251169217306
6418.088512209013,0.004641548616724567,0.002465624758372701
6418.089511981228,0.004572907070170254,0.0024780477987651674
6418.090511753443,0.004516702486848878,0.0024881985751305405
6418.0915115256585,0.0044733400904180725,0.0024957944584160334
6418.092511297874,0.004442991970576016,0.0025005725607084974
6418.093511070089,0.004425589535616039,0.002502296548814047
6418.094510842304,0.0044208213508849245,0.0025007632572194216
6418.095510614519,0.004428136577464642,0.002495808800187799
6418.096510386735,0.004446754138832009,0.0024873139030881057
6418.09751015895,0.004475677627289011,0.0024752082085712696
6418.098509931166,0.0045137158133395005,0.0024594733762833324
6418.099509703381,0.004559508457750626,0.002440144877271645
6418.100509475596,0.004611556975823291,0.0024173124592806287
6418.101509247811,0.00466825937482205,0.002391119313227311
6418.102509020026,0.004727948755935877,0.002361760009434865
6418.103508792242,0.00478893451192248,0.002329477296480895
6418.104508564457,0.00484954515874633,0.0022945578624822406
6418.105508336672,0.004908171554695499,0.0022573271605948303
6418.106508108887,0.0049633091452022235,0.00221814342228221
6418.107507881103,0.005013597864978837,0.00217739102955101
6418.108507653318,0.005057858424650448,0.002135473467129264
6418.109507425534,0.005095123865102755,0.0020928060970538094
6418.110507197748,0.005124665428243821,0.00204980897849389
6418.111506969964,0.0051460119407598336,0.0020068999061830985
6418.112506742179,0.005158962056006495,0.0019644877882532205
6418.113506514394,0.005163588895058014,0.0019229664515521088
6418.11450628661,0.0051602369052966045,0.0018827089536060818
6418.115506058825,0.005149511098299523,0.0018440624839729729
6418.11650583104,0.0051322591629822676,0.0018073439435250195
6418.117505603255,0.0051095471929257135,0.001772836293947207
6418.118505375471,0.005082629906856486,0.001740785764221764
6418.119505147686,0.005052916330782311,0.0017113999759685527
6418.120504919902,0.00502193199189806,0.0016848470061215294
6418.121504692116,0.004991278753089957,0.0016612553586586283
6418.122504464332,0.004962593477467524,0.0016407147805000764
6418.123504236547,0.004937506724300277,0.001623277829161266
6418.124504008762,0.00491760261072423,0.0016089620720168695
6418.125503780978,0.00490438082924481,0.0015977527675769957
6418.126503553193,0.004899221619280969,0.0015896058577632476
6418.127503325408,0.004903354276642269,0.0015844510966960114
6418.128503097623,0.004917829559178099,0.0015821951566665018
6418.129502869839,0.004943496130187691,0.001582724577198219
6418.130502642054,0.004980981017094431,0.0015859084489094762
6418.13150241427,0.0050306739996351475,0.001591600751683761
6418.132502186484,0.005092715894402097,0.001599642307300696
6418.1335019587,0.005166990828543962,0.001609862363032907
6418.134501730915,0.0052531227111357,0.0016220798788894651
6418.13550150313,0.005350476144599049,0.001636104622270826
6418.136501275346,0.005458161962468517,0.001651738167607644
6418.13750104756,0.00557504748931445,0.001668774869290014
6418.138500819776,0.005699771553308501,0.001687002851524051
6418.139500591991,0.005830764248347122,0.0017062050514284979
6418.140500364207,0.0059662714034858875,0.00172616035129988
6418.141500136422,0.0061043836359700445,0.0017466448298867592
6418.142499908638,0.006243069720768413,0.0017674331536080324
6418.143499680852,0.006380213800845712,0.0017883001254999046
6418.144499453068,0.00651365571880286,0.0018090224083744382
6418.145499225283,0.006641233541721662,0.0018293804267708225
6418.146498997498,0.00676082723668002,0.001849160428270405
6418.147498769714,0.006870402422974198,0.0018681566612862935
6418.148498541928,0.006968053108554585,0.0018861736127739478
6418.149498314144,0.007052042258372916,0.0019030282443279728
6418.150498086359,0.007120838948790356,0.0019185521704980341
6418.151497858575,0.007173150799795398,0.0019325937431698638
6418.15249763079,0.007207950446705723,0.0019450200279940877
6418.1534974030055,0.0072244950962939225,0.0019557186562400067
6418.15449717522,0.007222338680792259,0.0019645994986281813
6418.155496947436,0.007201336622793863,0.001971596062140055
6418.156496719651,0.0071616435850999464,0.001976666495214272
6418.157496491866,0.007103704744106982,0.0019797941130843114
6418.158496264082,0.0070282411615859,0.0019809873963925347
6418.159496036296,0.006936229852340665,0.0019802794416022133
6418.160495808512,0.00682887923465133,0.001977726849621263
6418.161495580727,0.006707600813515753,0.0019734080443428283
6418.162495352943,0.006573978124320062,0.0019674210203947887
6418.163495125158,0.006429734079273272,0.001959880530382889
6418.1644948973735,0.006276697863083134,0.0019509147498967686
6418.165494669588,0.006116772415678202,0.0019406615158194817
6418.166494441804,0.005951903359553322,0.001929264304449076
6418.167494214019,0.005784050045711535,0.0019168681624787672
6418.168493986234,0.005615159249737589,0.0019036158013440486
6418.16949375845,0.005447141924846684,0.0018896440250537093
6418.170493530664,0.005281853251597653,0.001875080615037613
6418.17149330288,0.005121075997011039,0.0018600417630875276
6418.172493075095,0.004966506964722707,0.0018446301222366317
6418.173492847311,0.0048197461605166995,0.0018289335251320234
6418.174492619526,0.004682288244318785,0.001813024398268824
6418.175492391741,0.0045555158537971385,0.0017969598822610074
6418.176492163956,0.004440694405319272,0.001780782654764559
6418.177491936172,0.00433896797385916,0.001764522440203544
6418.178491708387,0.004251355837761372,0.001748198170666859
6418.179491480602,0.004178749285137648,0.0017318207291454727
6418.180491252818,0.004121908351795928,0.0017153961641656664
6418.181491025032,0.004081458301130792,0.0016989292261825404
6418.182490797248,0.0040578858207383625,0.0016824270535868765
6418.183490569463,0.004051535031793764,0.0016659028375834882
6418.184490341679,0.004062603454800959,0.001649379314865125
6418.185490113894,0.0040911380748384464,0.001632891955677379
6418.186489886109,0.004137031640006255,0.0016164917205753364
6418.187489658324,0.004200019326692633,0.0016002472647531595
6418.188489430539,0.004279675924450289,0.0015842464956389768
6418.189489202755,0.004375413742569412,0.0015685974367053578
6418.19048897497,0.004486481514022682,0.0015534283953506226
6418.191488747186,0.004611964642581304,0.0015388874598172657
6418.1924885194,0.004750787170743236,0.0015251413632760636
6418.193488291616,0.004901715809809066,0.001512373759373498
6418.194488063831,0.005063366262410387,0.001500782955888692
6418.195487836047,0.005234211920776968,0.0014905791597146336
6418.196487608262,0.0054125949092176965,0.001481981305311647
6418.197487380477,0.00559673939723389,0.0014752135645262623
6418.198487152692,0.005784767121104772,0.0014705016528452958
6418.199486924907,0.005974715076933695,0.001468069047747743
6418.200486697123,0.0061645553797355715,0.0014681332252593842
6418.201486469338,0.006352217332970549,0.0014709020111455635
6418.202486241553,0.006535611800833978,0.0014765701324845279
6418.203486013768,0.006712657963193957,0.0014853160343665183
6418.204485785984,0.006881312413509794,0.0014972989932283487
6418.205485558199,0.007039600338568909,0.0015126565208823716
6418.206485330415,0.00718564823258225,0.001531502017956169
6418.20748510263,0.007317717278360645,0.0015539226049261117
6418.2084848748445,0.007434236214441423,0.0015799770406519113
6418.20948464706,0.007533832287078364,0.0016096936434944757
6418.210484419275,0.007615358876187689,0.0016430681632285118
6418.211484191491,0.007677918632717319,0.0016800616046841802
6418.212483963706,0.007720881379445325,0.001720598057608833
6418.213483735921,0.007743896424777713,0.0017645626232166893
6418.214483508136,0.00774689916687763,0.0018117995413977949
6418.215483280352,0.007730111885244046,0.0018621106235074231
6418.216483052567,0.007694038521019999,0.0019152540958949518
6418.217482824783,0.007639453207296104,0.0019709439615299734
6418.218482596998,0.007567382466124486,0.00202884998734714
6418.2194823692125,0.007479081350650113,0.002088598421534392
6418.220482141428,0.007376004255736755,0.0021497735379934235
6418.221481913643,0.0072597714764329494,0.002211920091217602
6418.222481685859,0.007132132754726065,0.00227454674201939
6418.223481458074,0.006994929049302161,0.0023371304865785194
6418.224481230289,0.006850053706648221,0.0023991220864847383
6418.225481002504,0.0066994141861811745,0.0024599524464402607
6418.22648077472,0.006544895473672693,0.002519039823283372
6418.227480546935,0.006388326229867209,0.0025757977037120725
6418.228480319151,0.0062314485326670525,0.0026296431837061866
6418.229480091366,0.006075891820683944,0.0026800057082063834
6418.2304798635805,0.005923151392666521,0.0027263360495637127
6418.231479635796,0.005774571594102956,0.0027681154011647735
6418.232479408011,0.0056313336407912955,0.0028048644483861366
6418.233479180227,0.00549444789418964,0.002836152261316285
6418.234478952442,0.005364750295743554,0.0028616048282691766
6418.235478724657,0.005242902538970581,0.0028809130119026773
6418.236478496872,0.005129395381574297,0.002893839670806726
6418.237478269088,0.0050245543235144085,0.002900225673780248
6418.238478041303,0.004928546813052285,0.0028999945620527805
6418.239477813519,0.004841390284550096,0.002893155675971867
6418.240477585733,0.004762960655234496,0.0028798056221148952
6418.2414773579485,0.004693001257854668,0.0028601279945448684
6418.242477130164,0.004631132395779881,0.0028343912915456417
6418.243476902379,0.004576861740948188,0.002802945002045869
6418.244476674595,0.0045295957460058855,0.0027662138761839782
6418.24547644681,0.0044886521991434,0.00272469044544387
6418.246476219025,0.004453274010887536,0.002678925926901905
6418.24747599124,0.004422644238246283,0.002629519728745792
6418.248475763456,0.004395902216472846,0.00257710785543602
6418.249475535671,0.004372160527415034,0.0025223505787016383
6418.250475307887,0.004350522428993588,0.0024659197836859586
6418.251475080101,0.004330099310672801,0.0024084864063453233
6418.2524748523165,0.00431002771636862,0.002350708351111791
6418.253474624532,0.0042894854979109295,0.002293219235505249
6418.254474396747,0.004267706752394233,0.0022366182657522138
6418.255474168963,0.0042439953496506855,0.002181461503706741
6418.256473941178,0.004217737009096586,0.0021282547321631257
6418.257473713393,0.004188409956517163,0.0020774480575725196
6418.258473485608,0.004155594148960536,0.0020294323063313672
6418.259473257824,0.004118978943050897,0.001984537179362221
6418.260473030039,0.004078368975600816,0.0019430310422366476
6418.261472802255,0.004033687979267998,0.0019051221596422011
6418.262472574469,0.003984980286993028,0.0018709611407446368
6418.2634723466845,0.003932409884137961,0.0018406443396169472
6418.2644721189,0.003876257022140811,0.0018142179452389768
6418.265471891115,0.003816912555855802,0.0017916825045710182
6418.266471663331,0.0037548702489979785,0.0017729976587613405
6418.267471435545,0.0036907172888157617,0.0017580869304761118
6418.268471207761,0.0036251231901617666,0.0017468424605677538
6418.269470979976,0.003558827205577255,0.001739129638210703
6418.270470752192,0.003492624345288197,0.0017347915948142652
6418.271470524407,0.0034273501661735884,0.0017336535403504056
6418.272470296623,0.003363864582969203,0.0017355269111067855
6418.273470068837,0.00330303504303914,0.0017402132703040892
6418.274469841052,0.003245719455974351,0.0017475078732008553
6418.275469613268,0.00319274927289175,0.0017572028080973232
6418.276469385483,0.0031449130853446576,0.0017690896713863286
6418.277469157699,0.003102941088633335,0.0017829618068359843
6418.278468929913,0.0030674907422063623,0.001798616196157205
6418.279468702129,0.0030391339552468324,0.0018158551069649461
6418.280468474344,0.0030183461178506835,0.001834487586891474
6418.28146824656,0.0030054972744483453,0.001854330851482501
6418.282468018775,0.0030008456847548013,0.0018752115710788365
6418.283467790991,0.003004533940868048,0.0018969670463314418
6418.284467563205,0.0030165877176844937,0.001919446281100821
6418.28546733542,0.0030369171311312843,0.0019425109870436095
6418.286467107636,0.0030653205674897855,0.0019660365517294733
6418.287466879851,0.0031014907444963653,0.0019899129705513835
6418.288466652067,0.0031450227013427494,0.0020140457078933016
6418.289466424281,0.0031954234094915372,0.0020383564315174154
6418.290466196497,0.0032521227294423326,0.002062783551265012
6418.291465968712,0.0033144854578730236,0.002087282482061435
6418.292465740928,0.0033818241741912815,0.0021118255485226578
6418.293465513143,0.003453412511220721,0.002136401469463622
6418.294465285359,0.003528498395160753,0.0021610144103194505
6418.295465057573,0.0036063167958923763,0.0021856826486779646
6418.296464829788,0.003686101626915471,0.0022104369251229705
6418.297464602004,0.003767096579805985,0.0022353185284085635
6418.298464374219,0.003848564790100794,0.002260377107096235
6418.299464146435,0.003929797291085926,0.0022856681465229936
6418.300463918649,0.004010120258115361,0.002311250037713758
6418.301463690865,0.004088901100802516,0.002337180718349414
6418.30246346308,0.004165553501210962,0.002363513976404555
6418.303463235296,0.004239541497770083,0.0023902956224124867
6418.304463007511,0.004310382689173964,0.002417559795837391
6418.3054627797255,0.004377650618278637,0.0024453256555234315
6418.306462551941,0.004440976413992525,0.002473594643051618
6418.307462324156,0.004500049804031498,0.0025023484425761916
6418.308462096372,0.004554619635543244,0.0025315477083163057
6418.309461868587,0.004604494044502914,0.0025611315807696337
6418.310461640803,0.004649540409009637,0.0025910179567563735
6418.311461413017,0.004689685211450517,0.0026211044340071483
6418.312461185233,0.00472491390094891,0.0026512698427347643
6418.313460957448,0.00475527076430085,0.002681376302568143
6418.314460729664,0.004780858682689762,0.0027112717727545694
6418.315460501879,0.004801838516446193,0.002740793063569854
6418.3164602740935,0.004818427782608266,0.0027697692354811555
6418.317460046309,0.004830898305705911,0.0027980252462438886
6418.318459818524,0.004839572617921316,0.002825385649308944
6418.31945959074,0.004844819024259491,0.0028516781278569753
6418.320459362955,0.0048470454059433045,0.002876736668279551
6418.321459135171,0.004846691989057724,0.0029004042113636
6418.322458907385,0.004844223418619352,0.0029225346452132895
6418.323458679601,0.004840120515360032,0.0029429940211361037
6418.324458451816,0.004834872052490374,0.002961660909757869
6418.325458224032,0.004828966809545689,0.0029784258994563274
6418.326457996247,0.004822886083211807,0.0029931903669883873
6418.3274577684615,0.004817096771910737,0.0030058647721032655
6418.328457540677,0.004812045075197644,0.003016366793956815
6418.329457312892,0.004808150736257616,0.0030246196270629806
6418.330457085108,0.004805801633665012,0.0030305507088976167
6418.331456857323,0.004805348474168613,0.003034091077872272
6418.332456629538,0.004807099403816645,0.00303517546638859
6418.333456401753,0.004811314497522383,0.003033743128885151
6418.334456173969,0.004818200206975189,0.003029739303922929
6418.335455946184,0.004827903898581144,0.0030231171248071304
6418.3364557184,0.004840508643348135,0.003013839736374083
6418.337455490615,0.004856028486975748,0.0030018823620314565
6418.3384552628295,0.004874404523300357,0.0029872341072075107
6418.339455035045,0.004895502157356031,0.0029698993730570967
6418.34045480726,0.004919109927566929,0.002949898850335099
6418.341454579476,0.004944940170401375,0.0029272701250640056
6418.342454351691,0.004972631712158602,0.0029020679344674374
6418.343454123906,0.005001754705736588,0.0028743640799720506
6418.344453896121,0.005031817683257732,0.0028442469816219794
6418.345453668337,0.005062276823787786,0.0028118208824674013
6418.346453440552,0.0050925473169015885,0.0027772047614939327
6418.347453212768,0.005122016553958321,0.0027405310324550517
6418.348452984983,0.005150058731243897,0.0027019440761137576
6418.3494527571975,0.005176050323498875,0.0026615986158610074
6418.350452529413,0.005199385782338018,0.002619657945641542
6418.351452301628,0.005219492728209009,0.002576292059322658
6418.352452073844,0.005235845868617295,0.002531675783676221
6418.353451846059,0.005247978955902852,0.002485987047921481
6418.354451618274,0.005255494323305985,0.0024394054136013432
6418.355451390489,0.005258069827977164,0.0023921109493848644
6418.356451162705,0.005255463236015485,0.002344283494807507
6418.35745093492,0.005247514127753759,0.002296102339279046
6418.358450707136,0.005234143347945183,0.0022477463458412984
6418.359450479351,0.00521535001378963,0.0021993945474559256
6418.360450251565,0.005191206193930957,0.002151227215167233
6418.361450023781,0.005161849536089777,0.0021034273429432586
6418.362449795996,0.0051274742590059945,0.0020561824327981434
6418.363449568212,0.005088320992581495,0.0020096864206357516
6418.364449340427,0.005044665973055474,0.0019641415705781455
6418.365449112642,0.0049968101233813685,0.0019197601735997777
6418.366448884857,0.004945068576520342,0.0018767658945552882
6418.367448657073,0.004889761183758721,0.0018353946103253132
6418.368448429288,0.004831204457351141,0.0017958945827710598
6418.369448201504,0.004769705257507276,0.0017585258385928312
6418.370447973718,0.004705556407021543,0.001723558694763892
6418.371447745933,0.004639034321991535,0.0016912714480365318
6418.372447518149,0.004570398656577162,0.0016619472977307894
6418.373447290364,0.004499893845765973,0.0016358705765858468
6418.37444706258,0.004427752296183339,0.0016133223515403168
6418.375446834795,0.004354198850647502,0.0015945754652037989
6418.37644660701,0.00427945607233839,0.0015798891339352927
6418.377446379225,0.004203749885134956,0.0015695032775765725
6418.378446151441,0.004127315178746351,0.0015636327955280988
6418.379445923656,0.004050401118996035,0.001562462011527468
6418.380445695872,0.003973276029186486,0.0015661394947082009
6418.381445468086,0.0038962317626601503,0.001574773435686345
6418.382445240301,0.003819587467483177,0.0015884277119932117
6418.383445012517,0.003743692603206192,0.0016071187167809697
6418.384444784732,0.0036689290526861922,0.0016308129571519093
6418.385444556948,0.003595712191753107,0.0016594253677731485
6418.386444329163,0.0035244908231202203,0.0016928182440116128
6418.387444101378,0.003455745922191253,0.0017308006856598635
6418.388443873593,0.0033899881628117142,0.0017731284636659567
6418.389443645809,0.0033277541970035485,0.0018195042765668658
6418.390443418024,0.0032696016754257214,0.0018695784359648035
6418.391443190239,0.0032161030299992315,0.0019229500879265691
6418.392442962454,0.0031678380997831068,0.0019791691173288977
6418.393442734669,0.003125385754069867,0.0020377388826567683
6418.394442506885,0.003089314727721627,0.0020981198931504944
6418.3954422791,0.003060173913543002,0.0021597344884325253
6418.396442051316,0.0030384823563980217,0.002221972537277828
6418.39744182353,0.0030247191754669304,0.002284198143739841
6418.398441595746,0.003019313614779771,0.002345757320382537
6418.399441367961,0.003022635400432629,0.0024059865497938
6418.400441140177,0.0030349855782931486,0.0024642221170493635
6418.401440912392,0.003056588020638664,0.0025198100661759587
6418.402440684607,0.0030875818137019776,0.002572116602376123
6418.403440456822,0.003128014754759697,0.0026205387159144488
6418.404440229037,0.0031778381842604356,0.0026645147518224673
6418.405440001253,0.0032369033528124457,0.0027035346168598844
6418.406439773468,0.003304959482394012,0.0027371493133479
6418.407439545684,0.003381653630489391,0.002764979505068908
6418.408439317898,0.003466532393613346,0.002786722837722083
6418.409439090114,0.003559045382844047,0.0028021597585500056
6418.410438862329,0.0036585502945506846,0.0028111576166034553
6418.4114386345445,0.003764319342734067,0.0028136728762607754
6418.41243840676,0.0038755468503442465,0.0028097513377094993
6418.413438178975,0.003991357883788715,0.002799526332134347
6418.41443795119,0.0041108178837375884,0.0027832149513000374
6418.415437723405,0.0042329432442661545,0.00276111247729667
6418.416437495621,0.004356712724507835,0.0027335852830218895
6418.417437267836,0.00448107948528798,0.0027010625545572913
6418.418437040052,0.004604983476811763,0.0026640272261734353
6418.419436812266,0.004727363894160536,0.002623006517589585
6418.420436584482,0.004847171473999268,0.0025785624278373415
6418.421436356697,0.004963380510171496,0.0025312824744359377
6418.4224361289125,0.0050750005649019755,0.002481770885348811
6418.423435901128,0.005181087884573593,0.002430640379747667
6418.424435673343,0.005280756480429476,0.0023785046198834645
6418.425435445558,0.005373188752902178,0.002325971363093149
6418.426435217773,0.005457645478168777,0.0022736362779459014
6418.427434989989,0.00553347494257953,0.0022220773273687287
6418.428434762204,0.00560012097622358,0.0021718495923203087
6418.42943453442,0.005657129602862956,0.0021234804223363006
6418.430434306634,0.0057041540417975935,0.002077464838081317
6418.43143407885,0.005740957905634477,0.0020342611535267533
6418.432433851065,0.005767416601558252,0.001994286820672552
6418.4334336232805,0.005783517087237302,0.0019579145256829297
6418.434433395496,0.005789356203680479,0.0019254685843691896
6418.435433167711,0.005785137790690459,0.001897221705513194
6418.436432939926,0.005771168698497425,0.0018733922144648085
6418.437432712141,0.005747853688292865,0.0018541418420339971
6418.438432484357,0.005715689135554932,0.001839574171031212
6418.439432256572,0.005675255462743717,0.0018297337998180367
6418.440432028788,0.005627208324853001,0.0018246062443795909
6418.441431801002,0.00557226870311377,0.0018241185683534062
6418.442431573218,0.0055112121709671134,0.0018281407070309336
6418.443431345433,0.005444857638234595,0.0018364874375353757
6418.4444311176485,0.005374055848389288,0.001848920946673237
6418.445430889864,0.005299677831318114,0.0018651539635729179
6418.446430662079,0.005222603428782091,0.0018848534542155973
6418.447430434294,0.005143709932041932,0.0019076449109566033
6418.448430206509,0.005063860835562637,0.0019331172971563477
6418.449429978725,0.0049838947358947705,0.001960828707875639
6418.45042975094,0.004904614457750528,0.001990312773482533
6418.451429523156,0.0048267765330371505,0.0020210857689028153
6418.45242929537,0.004751081205655493,0.0020526543110388424
6418.453429067586,0.00467816321153407,0.0020845234484686403
6418.454428839801,0.004608583669045498,0.0021162048888874667
6418.4554286120165,0.004542823453815624,0.002147225080882705
6418.456428384232,0.004481278392079848,0.0021771328668495917
6418.457428156446,0.004424256503564572,0.0022055064507438557
6418.458427928662,0.00437197739902012,0.002231959477374344
6418.459427700877,0.004324573831450399,0.0022561460936399913
6418.460427473093,0.004282095340779204,0.002277764943813721
6418.461427245308,0.00424451390815903,0.0022965621211535163
6418.462427017523,0.004211731503168362,0.0023123331351983818
6418.463426789738,0.0041835893355677825,0.002324923951583535
6418.464426561954,0.004159878533271449,0.0023342311355546183
6418.465426334169,0.004140351898806984,0.0023402011078486455
6418.4664261063845,0.0041247363656701464,0.0023428285256645487
6418.4674258786,0.004112745777330893,0.0023421538408465
6418.468425650814,0.004104093625891086,0.002338260143267139
6418.46942542303,0.004098505388736317,0.0023312694370750007
6418.470425195245,0.00409573006849447,0.0023213385081953565
6418.471424967461,0.004095550481896484,0.0023086545372148245
6418.472424739676,0.004097791811471364,0.0022934306084314926
6418.473424511891,0.004102327991322961,0.0022759012630734327
6418.474424284106,0.004109085636441922,0.0022563182352755297
6418.475424056322,0.004118045372841786,0.002234946493773466
6418.476423828537,0.004129240541101636,0.0022120606912539266
6418.477423600752,0.0041427533515108455,0.0021879420893108495
6418.478423372968,0.004158708686839634,0.0021628759788651568
6418.479423145182,0.004177265849799878,0.002137149571497159
6418.480422917398,0.0041986085924358325,0.0021110503164214734
6418.481422689613,0.0042229337427140586,0.002084864599144004
6418.482422461829,0.0042504387086050996,0.002058876780087247
6418.483422234044,0.004281308151269436,0.002033368520052679
6418.484422006259,0.004315700200054577,0.00200861832173786
6418.485421778474,0.0043537327022118355,0.0019849012083693316
6418.48642155069,0.004395470098168712,0.001962488464532957
6418.487421322905,0.004440911544673445,0.0019416473689591977
6418.48842109512,0.004489980869740274,0.001922640845185808
6418.489420867336,0.004542518850916843,0.0019057269472587202
6418.49042063955,0.0045982781709341825,0.0018911580937358231
6418.491420411766,0.004656921227712219,0.0018791799701579986
6418.492420183981,0.004718020780398615,0.0018700300359692874
6418.493419956197,0.004781063246507782,0.0018639355887191495
6418.494419728412,0.004845454375584635,0.0018611113546015674
6418.495419500627,0.004910527013016743,0.0018617566040283044
6418.496419272842,0.0049755506818236666,0.0018660518456061254
6418.4974190450575,0.005039742709645813,0.0018741552171348676
6418.498418817273,0.005102280628558668,0.0018861987398963503
6418.499418589488,0.005162315614870404,0.0019022846191931377
6418.500418361703,0.005218986820563551,0.0019224817635337121
6418.501418133918,0.005271436542486045,0.0019468226653697172
6418.502417906134,0.005318826228304889,0.001975300749302601
6418.503417678349,0.005360353291280734,0.002007868260464913
6418.504417450565,0.005395268599712982,0.0020444347359536838
6418.50541722278,0.005422894360227467,0.0020848660697082954
6418.506416994995,0.005442641969921205,0.002128984154907976
6418.50741676721,0.005454029291862286,0.0021765670867927743
6418.5084165394255,0.005456696718632316,0.002227349934411223
6418.509416311641,0.005450421338751058,0.002281026122925223
6418.510416083856,0.0054351285265658526,0.0023372494928499583
6418.511415856071,0.005410900359947322,0.0023956371142817333
6418.512415628286,0.005377980450535079,0.0024557729249689905
6418.513415400502,0.005336775025898855,0.0025172122197592087
6418.514415172717,0.005287850347416375,0.0025794869480548163
6418.515414944933,0.005231926687324586,0.0026421116988511436
6418.516414717148,0.005169869098723315,0.0027045902001789283
6418.517414489363,0.005102675159860583,0.0027664221452729262
6418.518414261578,0.005031459864718443,0.0028271101704218145
6418.5194140337935,0.004957437928379208,0.002886166832137227
6418.520413806009,0.004881903947705101,0.0029431214580469306
6418.521413578224,0.004806211016037681,0.0029975267722676543
6418.522413350439,0.00473174846270625,0.003048965207900356
6418.523413122654,0.0046599193564538935,0.0030970548024778317
6418.52441289487,0.0045921183013977775,0.003141454528385422
6418.525412667085,0.004529709908639812,0.0031818688684369153
6418.526412439301,0.00447400818364946,0.0032180514531289194
6418.527412211515,0.004426256940574467,0.0032498076491168106
6418.528411983731,0.004387611237574987,0.003276996088536848
6418.529411755946,0.004359119739626049,0.003299529194968099
6418.5304115281615,0.004341707890130686,0.003317372770029865
6418.531411300377,0.004336161817084967,0.003330544677193
6418.532411072592,0.004343112992652857,0.0033391126300163533
6418.533410844807,0.004363023801246654,0.0033431910749524845
6418.534410617022,0.004396174352917834,0.0033429371547299648
6418.535410389238,0.004442651063960464,0.00333854575354661
6418.536410161453,0.004502337640025745,0.003330243666126814
6418.537409933669,0.004574909099794417,0.003318282995520544
6418.538409705883,0.004659829390862073,0.0033029339651420293
6418.539409478099,0.004756353020363422,0.003284477419345697
6418.540409250314,0.004863530983957707,0.0032631973558842806
6418.5414090225295,0.00498022113503988,0.0032393738535213194
6418.542408794745,0.0051051029835749145,0.003213276720468491
6418.54340856696,0.005236696747455512,0.003185160105650398
6418.544408339175,0.005373386305072704,0.0031552582109216853
6418.54540811139,0.005513445522127827,0.0031237821506277285
6418.546407883606,0.005655067251357126,0.00309091794425841
6418.547407655821,0.005796394142088016,0.0030568255970574703
6418.548407428037,0.005935550275240556,0.003021639216502734
6418.549407200251,0.006070672589106523,0.0029854681261569215
6418.550406972467,0.006199941104253208,0.0029483989614213107
6418.551406744682,0.006321607113203453,0.002910498742446706
6418.5524065168975,0.006434018773842257,0.0028718188953460165
6418.553406289113,0.0065356438739941165,0.0028324001245545716
6418.554406061328,0.0066250898072876515,0.002792277940290858
6418.555405833543,0.006701120936105863,0.002751488546075062
6418.556405605758,0.006762673517406148,0.0027100747220242887
6418.557405377974,0.006808868288762783,0.002668091319728143
6418.558405150189,0.006839020716248404,0.0026256100200167426
6418.559404922405,0.006852648835041507,0.002582723080681312
6418.560404694619,0.006849478589220747,0.0025395458874305165
6418.561404466835,0.006829446595006329,0.0024962182057724916
6418.56240423905,0.00679270028077336,0.002452904129014224
6418.563404011265,0.006739595358115236,0.0024097908318288096
6418.564403783481,0.00667069054719577,0.002367086336589779
6418.565403555695,0.006586739474540826,0.002325016541597085
6418.566403327911,0.00648867974729612,0.002283821742102594
6418.567403100126,0.006377619368549271,0.0022437528261769896
6418.568402872342,0.0062548208062906925,0.0022050672797775187
6418.569402644557,0.0061216831062947084,0.0021680251023921886
6418.570402416773,0.005979722463405266,0.0021328847150059098
6418.571402188987,0.005830551676176008,0.0020998989282128917
6418.572401961203,0.005675858917008872,0.002069311019975068
6418.573401733418,0.0055173862382105,0.0020413509461751477
6418.574401505633,0.005356908184757187,0.002016231681286243
6418.575401277849,0.00519621078141825,0.001994145669046959
6418.576401050063,0.00503707100797226,0.001975261353151011
6418.577400822279,0.004881236727808594,0.0019597197610308316
6418.578400594494,0.004730406991647942,0.0019476311432906565
6418.57940036671,0.004586212751200484,0.0019390717228706296
6418.580400138925,0.00445019822031619,0.0019340806551772227
6418.581399911141,0.004323803283583044,0.0019326573262897929
6418.582399683355,0.004208347400835074,0.0019347591269718893
6418.5833994555705,0.004105015407069866,0.0019402998415852001
6418.584399227786,0.004014845503384491,0.0019491487760800637
6418.585399000001,0.003938719600952604,0.0019611307147087715
6418.586398772217,0.003877356045782118,0.001976026753014103
6418.587398544431,0.003831304661283507,0.0019935760199014637
6418.588398316647,0.0038009440169923902,0.0020134782788696335
6418.589398088862,0.0037864808285018054,0.0020353973821130213
6418.590397861078,0.0037879513681425394,0.0020589655294636546
6418.591397633293,0.0038052247183616196,0.0020837882497442162
6418.592397405508,0.003838007663539802,0.0021094499874376492
6418.593397177723,0.0038858510026069243,0.002135520168717766
6418.5943969499385,0.003948157053630197,0.0021615596479940616
6418.595396722154,0.004024188095501659,0.0021871274782807224
6418.596396494369,0.004113075461997168,0.0022117879716429703
6418.597396266585,0.004213828997788575,0.0022351179997561438
6418.598396038799,0.0043253466222410684,0.0022567144367641265
6418.599395811015,0.004446423822377909,0.002276201593990277
6418.60039558323,0.004575763005879079,0.002293238461451431
6418.601395355446,0.004711982793117541,0.002307525554939279
6418.602395127661,0.00485362750043775,0.002318811154820665
6418.603394899876,0.004999177203810381,0.0023268967090290756
6418.604394672091,0.005147058803242373,0.0023316411749113313
6418.6053944443065,0.005295658428256818,0.0023329641122275873
6418.606394216522,0.005443335394935939,0.0023308474091707724
6418.607393988737,0.005588437805852937,0.002325335601026016
6418.608393760953,0.005729319779966648,0.0023165348087094595
6418.609393533167,0.005864360169247053,0.0023046103782988934
6418.610393305383,0.005991982437656464,0.0022897833418873597
6418.611393077598,0.006110675190819054,0.0022723258417529494
6418.612392849814,0.00621901274687902,0.002252555667560086
6418.613392622029,0.006315675188994717,0.0022308300647459673
6418.614392394244,0.00639946749002058,0.002207538994049511
6418.615392166459,0.00646933742711374,0.0021830980470132146
6418.6163919386745,0.0065243920148061515,0.0021579412220479135
6418.61739171089,0.006563912092523071,0.0021325137270487736
6418.618391483105,0.006587364602805399,0.002107264912781718
6418.619391255321,0.006594412082170724,0.0020826413796408445
6418.620391027535,0.006584918989359332,0.0020590802550181416
6418.621390799751,0.006558954689366989,0.002037002622052131
6418.622390571966,0.00651679313175185,0.002016807098307363
6418.623390344182,0.006458909420896737,0.0019988635996418076
6418.624390116397,0.0063859734999492145,0.001983507351478164
6418.625389888612,0.006298841048735679,0.0019710332126182456
6418.626389660827,0.006198541497516942,0.0019616903660692213
6418.6273894330425,0.006086262900601563,0.0019556774252924773
6418.628389205258,0.005963333415678032,0.0019531380125485443
6418.629388977473,0.005831199346467631,0.0019541568898255018
6418.630388749688,0.00569140004813658,0.0019587567589701297
6418.631388521903,0.005545540299149198,0.0019668958871166668
6418.632388294119,0.005395260891575344,0.0019784667429628327
6418.633388066334,0.005242208199628419,0.0019932958371320737
6418.63438783855,0.0050880034516269336,0.0020111449378657355
6418.635387610765,0.00493421243317832,0.0020317137789017613
6418.63638738298,0.004782316398978015,0.0020546442978517086
6418.637387155195,0.00463368501878465,0.0020795263601338025
6418.6383869274105,0.004489552174050516,0.002105904855075848
6418.639386699626,0.004350995343128337,0.0021332880061242336
6418.640386471841,0.004218919194670174,0.0021611567155705984
6418.641386244056,0.004094043877467783,0.0021889747607824065
6418.642386016271,0.003976898351186724,0.002216199662903337
6418.643385788487,0.003867818938282614,0.0022422940440942137
6418.644385560702,0.003766953095880383,0.002266737263329511
6418.645385332918,0.003674268221661895,0.0022890370756468944
6418.646385105133,0.0035895651371649307,0.002308741013049907
6418.647384877348,0.0035124957463705865,0.0023254471587894785
6418.648384649563,0.0034425842435302917,0.002338813988391938
6418.649384421778,0.0033792511309621493,0.0023485689667079594
6418.650384193994,0.0033218392053981295,0.002354515601222141
6418.651383966209,0.0032696405981667105,0.002356538659961938
6418.652383738424,0.00322192393325685,0.0023546072964734897
6418.653383510639,0.003177960708591531,0.002348775912608167
6418.654383282855,0.003137050098303458,0.002339182725823697
6418.65538305507,0.003098541493175797,0.0023260461492049726
6418.656382827286,0.0030618542203239944,0.002309659195888238
6418.6573825995,0.0030264940042997093,0.0022903821734265883
6418.658382371716,0.0029920658650415886,0.0022686339600159608
6418.659382143931,0.002958283308935216,0.0022448821805932527
6418.660381916146,0.00292497384010963,0.0022196326281588956
6418.661381688362,0.002892080960231515,0.0021934182811725387
6418.662381460577,0.002859662913786675,0.0021667882345989715
6418.663381232792,0.0028278884723643154,0.002140296799526428
6418.664381005007,0.0027970300378697085,0.002114492958305351
6418.665380777223,0.0027674542857658167,0.002089910307217554
6418.666380549438,0.00273961049817055,0.0020670575825336166
6418.667380321654,0.0027140167176624807,0.00204640984563867
6418.668380093868,0.0026912439363214716,0.0020284003948434597
6418.669379866084,0.0026718987012141174,0.0020134134738893856
6418.670379638299,0.002656604686151429,0.002001777855261345
6418.671379410514,0.0026459838756288513,0.0019937613800389683
6418.67237918273,0.0026406380092919572,0.0019895665270246543
6418.673378954945,0.002641130866489049,0.0019893270633169063
6418.67437872716,0.002647971867054985,0.0019931058061751924
6418.675378499375,0.002661601357258771,0.002000893511905173
6418.676378271591,0.002682377853631064,0.0020126088992749144
6418.677378043806,0.0027105674331511977,0.002028099800769707
6418.678377816022,0.002746335386450738,0.002047145414764853
6418.679377588236,0.002789740195870256,0.002069459624495925
6418.680377360452,0.0028407298615834996,0.002094695367117308
6418.681377132667,0.0028991405683538446,0.0021224500586975747
6418.682376904882,0.0029646976569393233,0.0021522720780774293
6418.683376677098,0.003037018834051318,0.002183668277919743
6418.684376449313,0.003115619515926867,0.0022161124442692517
6418.685376221528,0.0031999201523004567,0.0022490545876333186
6418.686375993743,0.0032892553344091853,0.002281930926095526
6418.687375765959,0.0033828844641340746,0.0023141744025809365
6418.688375538174,0.003480003741068685,0.002345225545318999
6418.68937531039,0.0035797591988145413,0.0023745434307450705
6418.690375082604,0.00368126050859617,0.002401616456319144
6418.69137485482,0.00378359529172341,0.002425972585707976
6418.692374627035,0.00388584373173027,0.0024471886943142006
6418.69337439925,0.003987093317240649,0.0024648986393504234
6418.694374171466,0.004086453556385511,0.0024787997289900544
6418.69537394368,0.0041830704785602866,0.002488657359614113
6418.696373715896,0.00427614067880006,0.002494307692764836
6418.697373488111,0.0043649245759227445,0.00249565833976351
6418.698373260327,0.0044487584885004,0.0024926871273041372
6418.699373032542,0.004527065131239689,0.002485439129060346
6418.7003728047575,0.004599362203462608,0.0024740222268634627
6418.701372576972,0.004665268839010574,0.0024586014812117587
6418.702372349188,0.004724509786320298,0.002439392565389902
6418.703372121403,0.004776917305486689,0.002416654495081602
6418.704371893618,0.004822430916907085,0.002390681889358514
6418.705371665834,0.004861095278132142,0.002361797022737135
6418.706371438048,0.004893056543362152,0.0023303419528881023
6418.707371210264,0.004918557537887986,0.0022966710131515303
6418.708370982479,0.004937931969310218,0.0022611439261905892
6418.709370754695,0.0049515977523450555,0.0022241197295583934
6418.71037052691,0.0049600494087342255,0.0021859516318675507
6418.7113702991255,0.0049638494649270545,0.002146982856900258
6418.71237007134,0.004963618832967174,0.0021075434730582696
6418.713369843556,0.00496002631186359,0.0020679481329612874
6418.714369615771,0.004953777512119328,0.0020284945721211574
6418.715369387986,0.004945603588266542,0.0019894626673067706
6418.716369160202,0.004936250128848638,0.0019511138573599521
6418.717368932416,0.004926466433417027,0.0019136907700159768
6418.718368704632,0.004916995240481737,0.0018774169402166782
6418.719368476847,0.004908562790749316,0.0018424965253334574
6418.720368249063,0.0049018689818108654,0.0018091139349658953
6418.721368021278,0.004897577382845005,0.0017774333282778569
6418.722367793493,0.004896305055437512,0.001747597998687069
6418.723367565708,0.004898612376370402,0.0017197297375170749
6418.724367337924,0.004904993246373959,0.0016939283100554378
6418.725367110139,0.004915866136311087,0.0016702711780794027
6418.726366882354,0.004931566393430353,0.001648813573947576
6418.72736665457,0.004952340137880794,0.0016295889877618675
6418.728366426784,0.004978339933122124,0.0016126100802286252
6418.729366199,0.005009622236449316,0.0015978699881626349
6418.730365971215,0.0050461464902113356,0.0015853439622458146
6418.731365743431,0.005087775667958166,0.0015749912818507563
6418.732365515646,0.00513427815672211,0.0015667574199963467
6418.733365287861,0.0051853309804963795,0.0015605764503088073
6418.734365060076,0.005240524464840644,0.0015563736752041662
6418.735364832291,0.005299368449291321,0.0015540684180727015
6418.736364604507,0.005361300069376559,0.0015535768829950595
6418.737364376722,0.0054256929991779185,0.0015548149578882005
6418.738364148938,0.005491867931447539,0.0015577008263733744
6418.739363921152,0.005559104015724435,0.0015621572601900394
6418.740363693368,0.005626650973245323,0.0015681134851925703
6418.741363465583,0.005693741632153324,0.0015755065495333604
6418.742363237799,0.005759604656581318,0.0015842821748216895
6418.743363010014,0.0058234772758856785,0.0015943951348698624
6418.744362782229,0.005884617853353054,0.0016058092626587436
6418.745362554444,0.00594231814799344,0.0016184972101775325
6418.746362326659,0.005995915090387102,0.001632440067143806
6418.747362098875,0.006044801809441637,0.0016476268935255766
6418.74836187109,0.006088437555254559,0.0016640541597590453
6418.749361643306,0.006126356140847968,0.0016817250391520425
6418.75036141552,0.006158172632953213,0.001700648471322379
6418.751361187736,0.006183588244521978,0.0017208379140944692
6418.752360959951,0.00620239360678003,0.0017423097184546567
6418.753360732167,0.006214470693146183,0.001765081093042815
6418.754360504382,0.006219793599240368,0.0017891676690170273
6418.755360276597,0.006218428238052763,0.001814580729231444
6418.756360048812,0.006210530888172625,0.0018413242217483086
6418.757359821027,0.0061963454752554,0.0018693917263231006
6418.758359593243,0.006176199470611779,0.0018987635699028735
6418.759359365458,0.0061504983583920946,0.0019294042877829676
6418.760359137674,0.006119718753523071,0.001961260606857942
6418.761358909888,0.006084400402314354,0.0019942600909598333
6418.762358682104,0.006045137381467948,0.002028310533257829
6418.763358454319,0.006002568766876168,0.0020633001102830944
6418.764358226535,0.005957368902533254,0.002099098242620203
6418.76535799875,0.005910237282926357,0.002135557056312246
6418.7663577709645,0.005861888072988898,0.0021725133111470314
6418.76735754318,0.005813039409451576,0.0022097906514267273
6418.768357315395,0.005764402742281013,0.002247202038509006
6418.769357087611,0.00571667249467465,0.0022845522436953964
6418.770356859826,0.005670516241767611,0.002321640312072641
6418.771356632041,0.005626565492008128,0.002358261945624223
6418.772356404256,0.0055854070778571015,0.002394211789425622
6418.773356176472,0.005547575166064446,0.002429285628238325
6418.774355948687,0.005513543949323588,0.002463282509271858
6418.775355720903,0.005483721103097777,0.002496006807803841
6418.776355493118,0.005458442047877518,0.002527270245265356
6418.7773552653325,0.00543796498766245,0.002556893844432391
6418.778355037548,0.0054224666631457205,0.0025847097710170186
6418.779354809763,0.005412038798069637,0.00261056299169683
6418.780354581979,0.005406685335040881,0.002634312691214448
6418.781354354194,0.005406320725626916,0.0026558334234347367
6418.782354126409,0.005410769681313374,0.002675015992123844
6418.783353898624,0.0054197688153945715,0.002691768043904481
6418.78435367084,0.005432970489359143,0.002706014318112067
6418.785353443055,0.0054499489885168504,0.002717696470736978
6418.786353215271,0.005470208977881968,0.002726772400695174
6418.787352987486,0.005493196074530824,0.0027332150594801476
6418.7883527597005,0.005518309309183532,0.0027370108002906387
6418.789352531916,0.0055449151961587785,0.0027381573925677597
6418.790352304131,0.0055723630435821035,0.002736661874095378
6418.791352076347,0.005600001012802889,0.0027325384316974352
6418.792351848562,0.0056271923298902874,0.0027258064959298513
6418.793351620777,0.005653331022101317,0.002716489207690207
6418.794351392992,0.00567785659804036,0.0027046123721214234
6418.795351165208,0.005700267145507043,0.00269020397085474
6418.796350937423,0.005720130326395132,0.002673294265933619
6418.797350709639,0.005737091723699036,0.0026539164923326617
6418.798350481853,0.005750880028710373,0.0026321080912661042
6418.7993502540685,0.005761308716533781,0.002607912381607257
6418.800350026284,0.00576827412751978,0.002581380511188839
6418.801349798499,0.0057717501536287364,0.002552573496249642
6418.802349570715,0.005771779921490111,0.0025215641693700384
6418.80334934293,0.005768464945747519,0.0024884389100438852
6418.804349115145,0.005761952265576548,0.002453299091990925
6418.80534888736,0.005752420157662017,0.002416262214072732
6418.806348659576,0.005740063151880648,0.0023774626866895133
6418.807348431791,0.005725077194399772,0.0023370522486620975
6418.808348204007,0.005707645833507425,0.0022952000119841475
6418.809347976221,0.0056879282300402725,0.002252092167078542
6418.8103477484365,0.005666049649368758,0.002207931402650041
6418.811347520652,0.005642094907391975,0.0021629360849354426
6418.812347292867,0.0056161050305403425,0.0021173392142284364
6418.813347065083,0.005588077160580784,0.002071387162086078
6418.814346837298,0.005557967509996847,0.002025338207663901
6418.815346609513,0.005525696970713995,0.0019794609291318706
6418.816346381728,0.005491158813627962,0.001934032546837233
6418.817346153944,0.005454227816456173,0.001889337338953816
6418.818345926159,0.005414770143340339,0.0018456652421457904
6418.819345698375,0.0053726533478723245,0.0018033107049829212
6418.820345470589,0.005327755930297632,0.001762571793052655
6418.8213452428045,0.005279975926708604,0.0017237494735405407
6418.82234501502,0.005229238072060517,0.0016871469488872286
6418.823344787235,0.005175499210579447,0.001653068869495486
6418.824344559451,0.005118751839098858,0.0016218202384093712
6418.825344331666,0.005059025897195364,0.0015937048299720811
6418.826344103881,0.004996389068593037,0.001569022975315657
6418.827343876096,0.004930945897956701,0.001548068611392566
6418.828343648312,0.0048628360040774005,0.0015311255437634745
6418.829343420527,0.0047922316479781365,0.0015184629325991736
6418.830343192743,0.004719334913731198,0.0015103300627570969
6418.831342964957,0.004644374764877162,0.0015069504945117156
6418.832342737172,0.004567604224749058,0.001508515728239376
6418.833342509388,0.004489297871692516,0.001515178576886869
6418.834342281603,0.004409749732380787,0.001527046518152506
6418.835342053819,0.0043292715210756704,0.0015441753590153806
6418.836341826033,0.00424819105774734,0.0015665635591126013
6418.837341598249,0.004166850653732219,0.0015941475260114694
6418.838341370464,0.004085605305201725,0.001626798134283539
6418.83934114268,0.004004820652326082,0.001664318648848871
6418.840340914895,0.003924870763140437,0.001706444158820538
6418.841340687111,0.0038461358136693846,0.0017528425587153133
6418.842340459325,0.0037689996656761733,0.0018031170624139311
6418.84334023154,0.0036938472653383894,0.0018568102079306516
6418.844340003756,0.003621061770227247,0.0019134092966557675
6418.845339775971,0.0035510213672157367,0.0019723531901750797
6418.846339548187,0.0034840958274698747,0.0020330403520699607
6418.847339320401,0.003420642907022418,0.002094837976796535
