LSL_Time,PLUX_P1_nSeq,PLUX_P1_ECG0,PLUX_P1_EMG1,PLUX_P1_EMG2,PLUX_P1_RESPIRATION3
6700.956064619441,1383405.0,0.04393000155687332,0.004769999999552965,-0.0029100000392645597,0.2842699885368347
6700.957064391657,1383406.0,0.04236000031232834,0.001180000021122396,-0.002589999930933118,0.2822999954223633
6700.958064163872,1383407.0,0.04142000153660774,0.0009500000160187483,0.0019499999471008778,0.2803800106048584
6700.959063936088,1383408.0,0.0399399995803833,9.000000136438757e-05,0.0025400000158697367,0.28725001215934753
6700.960063708302,1383409.0,0.03305999934673309,0.0072200000286102295,0.0002300000051036477,0.2906799912452698
6700.961063480518,1383410.0,0.018869999796152115,0.002589999930933118,0.0009500000160187483,0.28889000415802
6700.962063252733,1383411.0,0.0012600000482052565,0.005810000002384186,-0.0007699999841861427,0.27827000617980957
6700.9630630249485,1383412.0,-0.012129999697208405,0.003220000071451068,0.0012700000079348683,0.2851000130176544
6700.964062797164,1383413.0,-0.015359999611973763,0.0017300000181421638,0.0011399999493733048,0.2874299883842468
6700.965062569379,1383414.0,-0.011950000189244747,-0.001230000052601099,-0.000590000010561198,0.2958100140094757
6700.966062341594,1383415.0,-0.005530000198632479,-0.006039999891072512,-0.0033199999015778303,0.2900800108909607
6700.967062113809,1383416.0,0.0029200001154094934,-0.006949999835342169,-0.0063599999994039536,0.2945699989795685
6700.968061886025,1383417.0,0.011950000189244747,-0.006310000084340572,0.002090000081807375,0.29462000727653503
6700.96906165824,1383418.0,0.023579999804496765,-0.004089999943971634,0.00031999999191612005,0.2943899929523468
6700.970061430456,1383419.0,0.03359999880194664,-0.0011399999493733048,-0.0028200000524520874,0.2942500114440918
6700.97106120267,1383420.0,0.0370200015604496,-0.0016799999866634607,-0.002319999970495701,0.2979600131511688
6700.972060974886,1383421.0,0.03711000084877014,0.0037700000684708357,0.004269999917596579,0.2965399920940399
6700.973060747101,1383422.0,0.03813999891281128,-0.00018000000272877514,-0.003539999946951866,0.302949994802475
6700.9740605193165,1383423.0,0.03593999892473221,0.0021299999207258224,-0.000859999970998615,0.290910005569458
6700.975060291532,1383424.0,0.03037000074982643,-0.0016799999866634607,0.001769999973475933,0.30344998836517334
6700.976060063746,1383425.0,0.024800000712275505,0.00267999991774559,-0.0006399999838322401,0.2944299876689911
6700.977059835962,1383426.0,0.021199999377131462,0.0034099998883903027,4.999999873689376e-05,0.304639995098114
6700.978059608177,1383427.0,0.019179999828338623,0.002090000081807375,-0.0007699999841861427,0.29030999541282654
6700.979059380393,1383428.0,0.017920000478625298,0.000910000002477318,-9.000000136438757e-05,0.30647000670433044
6700.980059152608,1383429.0,0.01257999986410141,0.0071299998089671135,0.0017300000181421638,0.30500999093055725
6700.981058924823,1383430.0,0.0033199999015778303,0.006130000110715628,-0.0018599999602884054,0.3006100058555603
6700.982058697038,1383431.0,-0.007319999858736992,0.0031799999997019768,-0.0018599999602884054,0.30976998805999756
6700.983058469254,1383432.0,-0.017969999462366104,0.004360000137239695,-0.004720000084489584,0.3040499985218048
6700.984058241469,1383433.0,-0.024170000106096268,0.00203999993391335,0.00031999999191612005,0.30500999093055725
6700.9850580136845,1383434.0,-0.024299999698996544,-0.0006399999838322401,0.003000000026077032,0.3108699917793274
6700.9860577859,1383435.0,-0.019680000841617584,-0.0016799999866634607,0.002319999970495701,0.30674999952316284
6700.987057558114,1383436.0,-0.010780000127851963,-0.006219999864697456,-0.0022700000554323196,0.3077099919319153
6700.98805733033,1383437.0,0.0007600000244565308,-0.006039999891072512,-0.002589999930933118,0.3108699917793274
6700.989057102545,1383438.0,0.01348000019788742,-0.00686000008136034,-0.003949999809265137,0.30098000168800354
6700.990056874761,1383439.0,0.023180000483989716,-0.0062699997797608376,0.003539999946951866,0.3149000108242035
6700.991056646976,1383440.0,0.028030000627040863,-0.0009500000160187483,0.0013599999947473407,0.31049999594688416
6700.992056419191,1383441.0,0.029069999232888222,0.002090000081807375,-0.0007300000288523734,0.31136998534202576
6700.993056191406,1383442.0,0.030640000477433205,0.003719999920576811,-0.0022299999836832285,0.31380000710487366
6700.994055963622,1383443.0,0.03117999993264675,0.003220000071451068,-0.0033199999015778303,0.3112800121307373
6700.995055735837,1383444.0,0.031539998948574066,0.003860000055283308,0.0010400000028312206,0.31782999634742737
6700.996055508052,1383445.0,0.03136000037193298,0.0027699999045580626,0.005770000163465738,0.30678999423980713
6700.997055280268,1383446.0,0.03342000022530556,0.00031999999191612005,-0.00044999999227002263,0.31988999247550964
6700.998055052482,1383447.0,0.036249998956918716,-0.0006399999838322401,-0.0028200000524520874,0.30441001057624817
6700.999054824698,1383448.0,0.035760000348091125,0.0024500000290572643,-0.0011399999493733048,0.3211199939250946
6701.000054596913,1383449.0,0.02879999950528145,0.008860000409185886,-0.0016799999866634607,0.30500999093055725
6701.001054369129,1383450.0,0.018239999189972878,0.005900000222027302,-0.0011399999493733048,0.32030001282691956
6701.002054141344,1383451.0,0.007910000160336494,0.008489999920129776,0.0037700000684708357,0.31731998920440674
6701.003053913559,1383452.0,-0.0017099999822676182,0.003590000094845891,0.0030400000978261232,0.31672999262809753
6701.004053685774,1383453.0,-0.007009999826550484,-0.001230000052601099,0.0011399999493733048,0.3221299946308136
6701.00505345799,1383454.0,-0.006200000178068876,-0.0012700000079348683,0.0002699999895412475,0.3114599883556366
6701.006053230205,1383455.0,0.0,-0.005679999943822622,-0.000539999979082495,0.31832998991012573
6701.00705300242,1383456.0,0.009750000201165676,-0.004540000110864639,-0.005489999894052744,0.32363998889923096
6701.008052774636,1383457.0,0.01841999962925911,-0.0035000001080334187,-0.0012700000079348683,0.3274799883365631
6701.00905254685,1383458.0,0.028300000354647636,-0.001769999973475933,-0.0007699999841861427,0.3216699957847595
6701.010052319066,1383459.0,0.03765000030398369,-0.005489999894052744,0.0014100000262260437,0.3207100033760071
6701.011052091281,1383460.0,0.044920001178979874,-0.005489999894052744,0.003220000071451068,0.3254700005054474
6701.012051863497,1383461.0,0.048340000212192535,-0.000859999970998615,0.0024999999441206455,0.3284499943256378
6701.013051635712,1383462.0,0.04771000146865845,0.005450000055134296,9.000000136438757e-05,0.3291800022125244
6701.014051407927,1383463.0,0.04428999871015549,0.00203999993391335,0.001769999973475933,0.328220009803772
6701.015051180142,1383464.0,0.040789999067783356,0.0014100000262260437,-0.0016299999551847577,0.32771000266075134
6701.016050952358,1383465.0,0.038270000368356705,0.0016299999551847577,-0.000859999970998615,0.3260200023651123
6701.017050724573,1383466.0,0.03633999824523926,0.00031999999191612005,-0.0027699999045580626,0.3163599967956543
6701.018050496788,1383467.0,0.034949999302625656,0.0014100000262260437,-0.0007300000288523734,0.320389986038208
6701.019050269004,1383468.0,0.03454999998211861,0.0027199999894946814,-0.001500000013038516,0.32697999477386475
6701.020050041218,1383469.0,0.030500000342726707,0.003000000026077032,0.0037700000684708357,0.33403000235557556
6701.021049813434,1383470.0,0.0218299999833107,0.0014100000262260437,0.0015899999998509884,0.33059999346733093
6701.022049585649,1383471.0,0.010239999741315842,0.007400000002235174,-0.0015899999998509884,0.3174099922180176
6701.023049357865,1383472.0,-0.0012600000482052565,0.002859999891370535,-0.0036800000816583633,0.3284499943256378
6701.02404913008,1383473.0,-0.006649999879300594,0.002409999957308173,0.0022299999836832285,0.3355900049209595
6701.025048902295,1383474.0,-0.009159999899566174,-0.0010400000028312206,-0.00018000000272877514,0.3333899974822998
6701.02604867451,1383475.0,-0.007819999940693378,-0.0018599999602884054,-0.004720000084489584,0.3304600119590759
6701.0270484467255,1383476.0,-0.0006300000241026282,-0.005179999861866236,-0.00494999997317791,0.33017998933792114
6701.028048218941,1383477.0,0.01131999958306551,-0.007670000195503235,0.003860000055283308,0.3357200026512146
6701.029047991156,1383478.0,0.02305000089108944,-0.005489999894052744,-0.0002699999895412475,0.3361800014972687
6701.030047763372,1383479.0,0.03149000182747841,-0.005489999894052744,-0.0013599999947473407,0.33256998658180237
6701.031047535586,1383480.0,0.03759999945759773,-0.001500000013038516,-0.0013200000394135714,0.32249000668525696
6701.032047307802,1383481.0,0.043129999190568924,0.00031999999191612005,0.00031999999191612005,0.33421000838279724
6701.033047080017,1383482.0,0.04554999992251396,0.006130000110715628,0.0027699999045580626,0.3401600122451782
6701.034046852233,1383483.0,0.0436599999666214,0.004129999782890081,-0.0006399999838322401,0.3378799855709076
6701.035046624448,1383484.0,0.03889999911189079,0.0036299999337643385,0.004129999782890081,0.32506000995635986
6701.036046396663,1383485.0,0.0350399985909462,0.003220000071451068,0.0021299999207258224,0.3341200053691864
6701.037046168878,1383486.0,0.0350399985909462,-0.0007699999841861427,-0.003909999970346689,0.34299999475479126
6701.0380459410935,1383487.0,0.03513000160455704,0.00031999999191612005,-0.002090000081807375,0.33897000551223755
6701.039045713309,1383488.0,0.028030000627040863,-0.001230000052601099,-0.00203999993391335,0.32697999477386475
6701.040045485524,1383489.0,0.016529999673366547,0.007040000054985285,-0.001500000013038516,0.33869999647140503
6701.041045257739,1383490.0,0.005260000005364418,0.00989999994635582,0.002589999930933118,0.34400999546051025
6701.042045029954,1383491.0,-0.0048500001430511475,0.005679999943822622,0.0020000000949949026,0.34373000264167786
6701.04304480217,1383492.0,-0.016349999234080315,0.0037700000684708357,0.0022700000554323196,0.34360000491142273
6701.044044574385,1383493.0,-0.024620000272989273,0.0010400000028312206,0.00031999999191612005,0.3430500030517578
6701.045044346601,1383494.0,-0.02857000008225441,0.00031999999191612005,0.001769999973475933,0.3416300117969513
6701.046044118815,1383495.0,-0.023900000378489494,-0.0037700000684708357,-0.004269999917596579,0.33348000049591064
6701.047043891031,1383496.0,-0.011500000022351742,-0.006089999806135893,-0.003949999809265137,0.3430899977684021
6701.048043663246,1383497.0,0.0022499999031424522,-0.005489999894052744,-0.0002699999895412475,0.3483999967575073
6701.0490434354615,1383498.0,0.018060000613331795,-0.00418000016361475,0.003220000071451068,0.34505999088287354
6701.050043207677,1383499.0,0.03288000077009201,-0.008449999615550041,0.0025400000158697367,0.3377799987792969
6701.051042979892,1383500.0,0.04154999926686287,-0.0017300000181421638,0.0016799999866634607,0.3498699963092804
6701.052042752107,1383501.0,0.04608999937772751,-9.000000136438757e-05,-0.0008200000156648457,0.34419000148773193
6701.053042524322,1383502.0,0.04932999983429909,0.0016799999866634607,0.00014000000373926014,0.3465699851512909
6701.054042296538,1383503.0,0.04851999878883362,0.0019499999471008778,-0.0028200000524520874,0.34630000591278076
6701.055042068753,1383504.0,0.04262999817728996,0.006130000110715628,0.003809999907389283,0.34602001309394836
6701.056041840969,1383505.0,0.03652000054717064,0.00031999999191612005,-0.0015899999998509884,0.35051000118255615
6701.057041613183,1383506.0,0.030640000477433205,0.003909999970346689,0.0018599999602884054,0.3394300043582916
6701.058041385399,1383507.0,0.02879999950528145,-0.001500000013038516,0.00031999999191612005,0.3533500134944916
6701.059041157614,1383508.0,0.028300000354647636,-0.002409999957308173,-0.0016799999866634607,0.3470799922943115
6701.0600409298295,1383509.0,0.02565000019967556,0.003909999970346689,0.0027699999045580626,0.33893001079559326
6701.061040702045,1383510.0,0.017969999462366104,0.006680000107735395,0.003000000026077032,0.34894999861717224
6701.06204047426,1383511.0,0.006560000125318766,0.006680000107735395,0.0036299999337643385,0.35284000635147095
6701.063040246475,1383512.0,-0.005659999791532755,0.00686000008136034,0.0011399999493733048,0.35499998927116394
6701.06404001869,1383513.0,-0.014019999653100967,0.0018599999602884054,-0.001500000013038516,0.35183998942375183
6701.065039790906,1383514.0,-0.016170000657439232,-0.0015899999998509884,-0.0016799999866634607,0.3401600122451782
6701.066039563121,1383515.0,-0.013299999758601189,-0.004540000110864639,0.0019499999471008778,0.3504199981689453
6701.067039335337,1383516.0,-0.005659999791532755,-0.006399999838322401,0.0002699999895412475,0.3553600013256073
6701.068039107551,1383517.0,0.0037700000684708357,-0.00571999978274107,-0.0002699999895412475,0.35774001479148865
6701.069038879767,1383518.0,0.014150000177323818,-0.006949999835342169,-0.000539999979082495,0.3556399941444397
6701.070038651982,1383519.0,0.024660000577569008,-0.004809999838471413,-0.003000000026077032,0.3518800139427185
6701.0710384241975,1383520.0,0.03172000125050545,-0.004629999864846468,-0.002950000111013651,0.3550899922847748
6701.072038196413,1383521.0,0.03468000143766403,0.00031999999191612005,0.00014000000373926014,0.3566400110721588
6701.073037968628,1383522.0,0.03432000055909157,-0.002090000081807375,-0.00203999993391335,0.3535799980163574
6701.074037740843,1383523.0,0.032430000603199005,-0.0010400000028312206,-0.0009500000160187483,0.3614000082015991
6701.075037513058,1383524.0,0.028389999642968178,0.0034099998883903027,0.001769999973475933,0.3442800045013428
6701.076037285274,1383525.0,0.024800000712275505,0.003949999809265137,-0.00014000000373926014,0.36118000745773315
6701.077037057489,1383526.0,0.02215000055730343,0.0030400000978261232,-0.00044999999227002263,0.36030998826026917
6701.078036829705,1383527.0,0.0218299999833107,-0.0002300000051036477,-0.003539999946951866,0.35659998655319214
6701.079036601919,1383528.0,0.02273000031709671,0.0030400000978261232,0.005270000081509352,0.34964001178741455
6701.080036374135,1383529.0,0.018780000507831573,0.005859999917447567,0.00494999997317791,0.3560500144958496
6701.08103614635,1383530.0,0.009700000286102295,0.00031999999191612005,0.00031999999191612005,0.35774001479148865
6701.082035918565,1383531.0,-0.0008999999845400453,0.007770000025629997,0.001769999973475933,0.36496999859809875
6701.083035690781,1383532.0,-0.009879999794065952,0.005900000222027302,0.0013200000394135714,0.35916000604629517
6701.084035462996,1383533.0,-0.0142000000923872,0.0010000000474974513,0.004269999917596579,0.36021000146865845
6701.085035235211,1383534.0,-0.013659999705851078,0.0009500000160187483,-0.0002300000051036477,0.36324000358581543
6701.086035007426,1383535.0,-0.007369999773800373,-0.0033599999733269215,-0.002950000111013651,0.360260009765625
6701.087034779642,1383536.0,0.004809999838471413,-0.004769999999552965,-0.0020000000949949026,0.3652999997138977
6701.088034551857,1383537.0,0.02012999914586544,-0.005770000163465738,-0.0019099999917671084,0.354449987411499
6701.089034324073,1383538.0,0.03468000143766403,-0.007269999943673611,0.001230000052601099,0.3681800067424774
6701.090034096287,1383539.0,0.043129999190568924,-0.007540000136941671,0.002409999957308173,0.36223000288009644
6701.091033868503,1383540.0,0.04402000084519386,-0.002950000111013651,-0.0013200000394135714,0.3668999969959259
6701.092033640718,1383541.0,0.041510000824928284,0.00031999999191612005,-0.00041000000783242285,0.36452001333236694
6701.093033412933,1383542.0,0.036660000681877136,0.002589999930933118,0.00031999999191612005,0.3639200031757355
6701.094033185149,1383543.0,0.032340001314878464,0.005590000189840794,-9.000000136438757e-05,0.3670800030231476
6701.095032957364,1383544.0,0.02703999914228916,0.0013599999947473407,0.0014100000262260437,0.3635999858379364
6701.096032729579,1383545.0,0.02102000080049038,0.00031999999191612005,-0.002589999930933118,0.36653000116348267
6701.097032501794,1383546.0,0.016529999673366547,0.003220000071451068,0.004129999782890081,0.36583998799324036
6701.09803227401,1383547.0,0.016440000385046005,0.0013200000394135714,-0.002859999891370535,0.36726000905036926
6701.099032046225,1383548.0,0.017920000478625298,0.00267999991774559,-0.001180000021122396,0.36726000905036926
6701.100031818441,1383549.0,0.01508999988436699,0.003590000094845891,0.004220000002533197,0.3678100109100342
6701.101031590655,1383550.0,0.007369999773800373,0.006539999973028898,0.003000000026077032,0.3676300048828125
6701.102031362871,1383551.0,-0.0016599999507889152,0.008220000192523003,-0.0011399999493733048,0.3700999915599823
6701.103031135086,1383552.0,-0.010289999656379223,0.005590000189840794,-0.00418000016361475,0.36757999658584595
6701.104030907301,1383553.0,-0.015809999778866768,0.001769999973475933,0.0007699999841861427,0.371289998292923
6701.105030679517,1383554.0,-0.014910000376403332,-0.00203999993391335,0.00014000000373926014,0.3606700003147125
6701.106030451731,1383555.0,-0.008270000107586384,-0.004629999864846468,0.00031999999191612005,0.36928001046180725
6701.107030223947,1383556.0,0.0017099999822676182,-0.0063599999994039536,-0.0029100000392645597,0.36932000517845154
6701.108029996162,1383557.0,0.011230000294744968,-0.006089999806135893,-0.0031300000846385956,0.3700999915599823
6701.109029768378,1383558.0,0.019990000873804092,-0.007860000245273113,-0.0011399999493733048,0.3696900010108948
6701.110029540593,1383559.0,0.026590000838041306,-0.0059899999760091305,-0.0021299999207258224,0.37233999371528625
6701.111029312808,1383560.0,0.03172000125050545,-0.00018000000272877514,-0.0020000000949949026,0.37623998522758484
6701.112029085023,1383561.0,0.03423000127077103,0.00031999999191612005,0.0022700000554323196,0.37349000573158264
6701.1130288572385,1383562.0,0.03522000089287758,0.0024999999441206455,0.003449999960139394,0.3711099922657013
6701.114028629454,1383563.0,0.03633999824523926,0.0031799999997019768,0.0019499999471008778,0.36190998554229736
6701.115028401669,1383564.0,0.03531000018119812,-0.00044999999227002263,0.00031999999191612005,0.371289998292923
6701.116028173885,1383565.0,0.03558000177145004,0.0020000000949949026,-0.0018599999602884054,0.37724000215530396
6701.117027946099,1383566.0,0.035670001059770584,-0.00041000000783242285,-0.0006399999838322401,0.3753199875354767
6701.118027718315,1383567.0,0.0354899987578392,0.00031999999191612005,0.001230000052601099,0.37147998809814453
6701.11902749053,1383568.0,0.03311000019311905,-0.00044999999227002263,0.002950000111013651,0.3726699948310852
6701.120027262746,1383569.0,0.02606000006198883,0.003909999970346689,0.0002699999895412475,0.3790700137615204
6701.121027034961,1383570.0,0.017249999567866325,0.005040000192821026,-0.004629999864846468,0.3761399984359741
6701.122026807176,1383571.0,0.0048500001430511475,0.00798999983817339,0.003220000071451068,0.3731200098991394
6701.123026579391,1383572.0,-0.009119999594986439,0.007579999975860119,-0.00044999999227002263,0.36873000860214233
6701.1240263516065,1383573.0,-0.015720000490546227,0.0028200000524520874,0.0010400000028312206,0.37880000472068787
6701.125026123822,1383574.0,-0.01549999974668026,0.0018599999602884054,-0.0022700000554323196,0.37678998708724976
6701.126025896037,1383575.0,-0.011140000075101852,-0.0022299999836832285,-0.002589999930933118,0.3624599874019623
6701.127025668253,1383576.0,-0.0014400000218302011,-0.004360000137239695,-0.0030400000978261232,0.3781999945640564
6701.128025440467,1383577.0,0.006060000043362379,-0.005539999809116125,-0.001230000052601099,0.37898001074790955
6701.129025212683,1383578.0,0.015809999778866768,-0.002589999930933118,0.00031999999191612005,0.37490999698638916
6701.130024984898,1383579.0,0.025429999455809593,-0.004220000002533197,0.00203999993391335,0.3725700080394745
6701.131024757114,1383580.0,0.032930001616477966,-0.003220000071451068,-0.0030900000128895044,0.38187000155448914
6701.132024529329,1383581.0,0.037780001759529114,-0.0007699999841861427,0.004410000052303076,0.37417998909950256
6701.133024301544,1383582.0,0.039170000702142715,4.999999873689376e-05,0.0024999999441206455,0.3753199875354767
6701.134024073759,1383583.0,0.03880999982357025,0.00031999999191612005,-0.0011399999493733048,0.3811799883842468
6701.1350238459745,1383584.0,0.038989998400211334,-0.0017300000181421638,0.0024999999441206455,0.3753199875354767
6701.13602361819,1383585.0,0.0379600003361702,0.0033599999733269215,0.00031999999191612005,0.3753199875354767
6701.137023390405,1383586.0,0.03413999825716019,0.00031999999191612005,0.0010400000028312206,0.3811799883842468
6701.138023162621,1383587.0,0.032249998301267624,0.003220000071451068,-0.0019099999917671084,0.3753199875354767
6701.139022934835,1383588.0,0.03109000064432621,0.0015399999683722854,-0.0015399999683722854,0.3787499964237213
6701.140022707051,1383589.0,0.022600000724196434,0.005270000081509352,0.007400000002235174,0.3800399899482727
6701.141022479266,1383590.0,0.009340000338852406,0.0064500002190470695,0.0002300000051036477,0.364329993724823
6701.142022251482,1383591.0,-0.003100000089034438,0.0071299998089671135,-0.0033599999733269215,0.38025999069213867
6701.143022023697,1383592.0,-0.010780000127851963,0.004999999888241291,0.0030400000978261232,0.37898001074790955
6701.144021795912,1383593.0,-0.01621999964118004,0.00418000016361475,-0.001500000013038516,0.36945998668670654
6701.145021568127,1383594.0,-0.02281999960541725,-0.004310000222176313,-0.004040000028908253,0.37966999411582947
6701.1460213403425,1383595.0,-0.02443999983370304,-0.001500000013038516,-0.002950000111013651,0.38300999999046326
6701.147021112558,1383596.0,-0.017969999462366104,-0.01066999975591898,-0.0015899999998509884,0.37970998883247375
6701.148020884773,1383597.0,-0.009700000286102295,-0.0059899999760091305,-0.003539999946951866,0.37770000100135803
6701.149020656989,1383598.0,0.0016199999954551458,-0.005900000222027302,-0.00203999993391335,0.3709299862384796
6701.150020429203,1383599.0,0.01590000092983246,-0.002589999930933118,0.002950000111013651,0.3811799883842468
6701.151020201419,1383600.0,0.02735999971628189,-0.004410000052303076,0.00203999993391335,0.37893998622894287
6701.152019973634,1383601.0,0.03449999913573265,0.0029100000392645597,-0.00031999999191612005,0.37362998723983765
6701.15301974585,1383602.0,0.0370200015604496,0.0031300000846385956,0.0044999998062849045,0.38300999999046326
6701.154019518065,1383603.0,0.0370200015604496,0.0010000000474974513,0.00031999999191612005,0.37678998708724976
6701.15501929028,1383604.0,0.0354899987578392,0.004679999779909849,0.0013200000394135714,0.3811799883842468
6701.156019062495,1383605.0,0.03311000019311905,0.007860000245273113,9.000000136438757e-05,0.38040000200271606
6701.1570188347105,1383606.0,0.03136000037193298,-0.0007699999841861427,-0.000910000002477318,0.3657500147819519
6701.158018606926,1383607.0,0.030549999326467514,0.0015399999683722854,-0.0028200000524520874,0.38159000873565674
6701.159018379141,1383608.0,0.02857000008225441,0.0016799999866634607,0.0045900000259280205,0.3806299865245819
6701.160018151357,1383609.0,0.021649999544024467,0.0033599999733269215,0.0017300000181421638,0.3768799901008606
6701.161017923571,1383610.0,0.009840000420808792,0.005309999920427799,-0.0015399999683722854,0.37678998708724976
6701.162017695787,1383611.0,-0.0035000001080334187,0.003220000071451068,-0.003949999809265137,0.38374000787734985
6701.163017468002,1383612.0,-0.015990000218153,0.003719999920576811,0.003590000094845891,0.37880000472068787
6701.164017240218,1383613.0,-0.02606000006198883,0.0020000000949949026,0.00031999999191612005,0.37018999457359314
6701.165017012433,1383614.0,-0.03463999927043915,-9.000000136438757e-05,-0.000590000010561198,0.3821899890899658
6701.166016784648,1383615.0,-0.037379998713731766,-0.004220000002533197,0.0018599999602884054,0.3811799883842468
6701.167016556863,1383616.0,-0.03181000053882599,-0.007860000245273113,-0.0015899999998509884,0.37825000286102295
6701.1680163290785,1383617.0,-0.020889999344944954,-0.003590000094845891,0.0010000000474974513,0.3765999972820282
6701.169016101294,1383618.0,-0.008449999615550041,-0.006399999838322401,0.0020000000949949026,0.36726000905036926
6701.170015873509,1383619.0,0.004310000222176313,-0.004089999943971634,-0.0036800000816583633,0.37825000286102295
6701.171015645724,1383620.0,0.014639999717473984,-0.003860000055283308,-0.0007699999841861427,0.38231998682022095
6701.172015417939,1383621.0,0.023310000076889992,-0.0008200000156648457,0.004040000028908253,0.3761399984359741
6701.173015190155,1383622.0,0.028209999203681946,0.0014100000262260437,-0.0011399999493733048,0.3753199875354767
6701.17401496237,1383623.0,0.027580000460147858,0.008129999972879887,-0.0010000000474974513,0.3820500075817108
6701.175014734586,1383624.0,0.023310000076889992,0.002319999970495701,-0.0007699999841861427,0.37966999411582947
6701.1760145068,1383625.0,0.016979999840259552,0.0012700000079348683,0.001769999973475933,0.3753199875354767
6701.177014279016,1383626.0,0.013930000364780426,0.00014000000373926014,-0.002589999930933118,0.3753199875354767
6701.178014051231,1383627.0,0.013570000417530537,-0.0019099999917671084,-0.004410000052303076,0.3821899890899658
6701.179013823446,1383628.0,0.0129399998113513,0.001769999973475933,0.0031300000846385956,0.3753199875354767
6701.180013595662,1383629.0,0.0070500001311302185,0.003220000071451068,0.004310000222176313,0.3753199875354767
6701.181013367877,1383630.0,-0.0023399998899549246,0.007360000163316727,-0.0021800000686198473,0.38187000155448914
6701.182013140092,1383631.0,-0.015629999339580536,0.0027699999045580626,-0.000859999970998615,0.37880000472068787
6701.183012912307,1383632.0,-0.030009999871253967,0.004860000219196081,-4.999999873689376e-05,0.3674899935722351
6701.184012684523,1383633.0,-0.03880999982357025,0.0024999999441206455,-0.0037700000684708357,0.3751400113105774
6701.185012456738,1383634.0,-0.042319998145103455,0.0018599999602884054,-0.003860000055283308,0.38199999928474426
6701.186012228954,1383635.0,-0.044199999421834946,-0.006579999811947346,-0.0006399999838322401,0.3753199875354767
6701.187012001168,1383636.0,-0.04061000049114227,-0.009850000031292439,-0.0019099999917671084,0.37033000588417053
6701.188011773384,1383637.0,-0.031449999660253525,-0.002950000111013651,-0.0030400000978261232,0.3793500065803528
6701.189011545599,1383638.0,-0.017430000007152557,-0.006130000110715628,0.0018599999602884054,0.3786199986934662
6701.190011317814,1383639.0,-0.0026100000832229853,-0.0033599999733269215,0.0018599999602884054,0.375
6701.19101109003,1383640.0,0.008980000391602516,-0.004220000002533197,0.00031999999191612005,0.3723900020122528
6701.192010862245,1383641.0,0.016039999201893806,0.001769999973475933,0.003909999970346689,0.3800800144672394
6701.19301063446,1383642.0,0.02043999917805195,-0.0006399999838322401,-0.001230000052601099,0.37678998708724976
6701.194010406675,1383643.0,0.02281999960541725,0.003949999809265137,0.003590000094845891,0.3651599884033203
6701.195010178891,1383644.0,0.02483999915421009,0.003909999970346689,0.00031999999191612005,0.37738001346588135
6701.196009951106,1383645.0,0.023809999227523804,0.002950000111013651,-0.0031799999997019768,0.37678998708724976
6701.197009723322,1383646.0,0.020749999210238457,0.00031999999191612005,0.004040000028908253,0.3734000027179718
6701.198009495536,1383647.0,0.01779000088572502,0.0021299999207258224,-0.0018599999602884054,0.37275999784469604
6701.1990092677515,1383648.0,0.011950000189244747,-0.0014100000262260437,-0.00018000000272877514,0.3788900077342987
6701.200009039967,1383649.0,0.0014400000218302011,0.0059899999760091305,-0.001820000004954636,0.3778400123119354
6701.201008812182,1383650.0,-0.012980000115931034,0.006490000057965517,-0.002630000002682209,0.37193000316619873
6701.202008584398,1383651.0,-0.02507000043988228,0.004860000219196081,0.0020000000949949026,0.3723900020122528
6701.203008356613,1383652.0,-0.033149998635053635,0.006039999891072512,-0.0013200000394135714,0.37806999683380127
6701.204008128828,1383653.0,-0.037289999425411224,-9.000000136438757e-05,-0.006810000166296959,0.37362998723983765
6701.205007901043,1383654.0,-0.040699999779462814,0.003909999970346689,-0.005040000192821026,0.36021000146865845
6701.206007673259,1383655.0,-0.03683999925851822,-0.004679999779909849,-0.00031999999191612005,0.37160998582839966
6701.207007445474,1383656.0,-0.027130000293254852,-0.0033199999015778303,0.003590000094845891,0.37825000286102295
6701.20800721769,1383657.0,-0.015180000104010105,-0.007860000245273113,-0.00267999991774559,0.3729400038719177
6701.209006989904,1383658.0,-0.0007200000109151006,-0.003809999907389283,-0.0010900000343099236,0.3634200096130371
6701.2100067621195,1383659.0,0.015180000104010105,-0.005489999894052744,-0.0064500002190470695,0.37275999784469604
6701.211006534335,1383660.0,0.029559999704360962,-0.0007699999841861427,-0.002589999930933118,0.3752700090408325
6701.21200630655,1383661.0,0.03809000179171562,-0.0002300000051036477,0.003000000026077032,0.3765999972820282
6701.213006078766,1383662.0,0.045099999755620956,0.00014000000373926014,0.0,0.3753199875354767
6701.214005850981,1383663.0,0.04887999966740608,0.005040000192821026,0.001449999981559813,0.37494999170303345
6701.215005623196,1383664.0,0.05192999914288521,0.005270000081509352,0.005179999861866236,0.3726699948310852
6701.216005395411,1383665.0,0.05390999838709831,0.0012700000079348683,0.001230000052601099,0.3716599941253662
6701.217005167627,1383666.0,0.05048999935388565,0.0035000001080334187,0.0024999999441206455,0.368910014629364
6701.218004939842,1383667.0,0.0428600013256073,-0.00031999999191612005,-0.001180000021122396,0.36800000071525574
6701.2190047120575,1383668.0,0.03531000018119812,0.0022299999836832285,-0.003719999920576811,0.37450000643730164
6701.220004484272,1383669.0,0.02735999971628189,0.00031999999191612005,0.0024999999441206455,0.3718400001525879
6701.2210042564875,1383670.0,0.01689000055193901,0.007040000054985285,0.0031799999997019768,0.367900013923645
6701.222004028703,1383671.0,0.0031399999279528856,0.002319999970495701,0.001230000052601099,0.36873000860214233
6701.223003800918,1383672.0,-0.00875999964773655,0.006630000192672014,-0.00031999999191612005,0.3731200098991394
6701.224003573134,1383673.0,-0.017880000174045563,0.0002300000051036477,-0.004040000028908253,0.37042000889778137
6701.225003345349,1383674.0,-0.02092999964952469,-4.999999873689376e-05,0.002950000111013651,0.35774001479148865
6701.226003117564,1383675.0,-0.016979999840259552,-0.00803999975323677,-0.00044999999227002263,0.36653000116348267
6701.227002889779,1383676.0,-0.007369999773800373,-0.006769999861717224,-0.003860000055283308,0.3731200098991394
6701.228002661995,1383677.0,0.007189999800175428,-0.004860000219196081,-0.000590000010561198,0.3686800003051758
6701.22900243421,1383678.0,0.020349999889731407,-0.0076299998909235,0.0029100000392645597,0.3582000136375427
6701.2300022064255,1383679.0,0.030729999765753746,-0.0012700000079348683,-0.0024999999441206455,0.367900013923645
6701.23100197864,1383680.0,0.03809000179171562,-0.0052200001664459705,-0.003220000071451068,0.36928001046180725
6701.2320017508555,1383681.0,0.04114999994635582,0.003590000094845891,-0.0006399999838322401,0.3650699853897095
6701.233001523071,1383682.0,0.04016000032424927,0.001769999973475933,0.0022700000554323196,0.3606700003147125
6701.234001295286,1383683.0,0.03269999846816063,0.004629999864846468,0.0034099998883903027,0.3686800003051758
6701.235001067502,1383684.0,0.02273000031709671,0.00267999991774559,-0.001820000004954636,0.36827000975608826
6701.236000839716,1383685.0,0.017249999567866325,0.006130000110715628,-0.0020000000949949026,0.3628700077533722
6701.237000611932,1383686.0,0.015359999611973763,0.00031999999191612005,0.004360000137239695,0.35453999042510986
6701.238000384147,1383687.0,0.014379999600350857,-0.0013599999947473407,-0.0020000000949949026,0.36291998624801636
6701.239000156363,1383688.0,0.013570000417530537,0.002859999891370535,0.004449999891221523,0.36333000659942627
6701.239999928578,1383689.0,0.010870000347495079,0.002360000042244792,0.001500000013038516,0.3635999858379364
6701.240999700793,1383690.0,0.004310000222176313,0.005040000192821026,0.002589999930933118,0.36597999930381775
6701.241999473008,1383691.0,-0.004089999943971634,0.006089999806135893,0.0027699999045580626,0.367220014333725
6701.2429992452235,1383692.0,-0.015270000323653221,0.00418000016361475,0.0022299999836832285,0.36726000905036926
6701.243999017439,1383693.0,-0.022369999438524246,0.0024500000290572643,0.0013200000394135714,0.3642899990081787
6701.244998789654,1383694.0,-0.023360000923275948,4.999999873689376e-05,-0.0021800000686198473,0.35453999042510986
6701.24599856187,1383695.0,-0.018729999661445618,-0.002589999930933118,-0.0035000001080334187,0.3598499894142151
6701.246998334084,1383696.0,-0.00925000011920929,-0.005679999943822622,-0.0027199999894946814,0.36017000675201416
6701.2479981063,1383697.0,0.0028800000436604023,-0.009669999592006207,-0.002589999930933118,0.3657500147819519
6701.248997878515,1383698.0,0.016130000352859497,-0.005489999894052744,-0.002950000111013651,0.3651599884033203
6701.249997650731,1383699.0,0.026590000838041306,-0.0031300000846385956,0.00031999999191612005,0.3621799945831299
6701.250997422946,1383700.0,0.03297000005841255,-0.005859999917447567,0.0030400000978261232,0.3598499894142151
6701.251997195161,1383701.0,0.03714999929070473,0.00014000000373926014,0.003909999970346689,0.35774001479148865
6701.252996967376,1383702.0,0.040119998157024384,0.005270000081509352,-0.0016799999866634607,0.34775999188423157
6701.2539967395915,1383703.0,0.03962000086903572,0.004449999891221523,4.999999873689376e-05,0.3605799973011017
6701.254996511807,1383704.0,0.03943999856710434,0.0030400000978261232,-0.0027699999045580626,0.36305001378059387
6701.255996284022,1383705.0,0.03880999982357025,0.0016799999866634607,-0.002090000081807375,0.3601199984550476
6701.256996056238,1383706.0,0.0350399985909462,0.004089999943971634,0.003909999970346689,0.356550008058548
6701.257995828452,1383707.0,0.02848000079393387,-0.0007699999841861427,0.00203999993391335,0.3452000021934509
6701.258995600668,1383708.0,0.019859999418258667,-0.002950000111013651,0.0024999999441206455,0.3518800139427185
6701.259995372883,1383709.0,0.011680000461637974,0.005770000163465738,0.0031300000846385956,0.3548099994659424
6701.260995145099,1383710.0,0.001979999942705035,0.0064500002190470695,0.003590000094845891,0.356550008058548
6701.261994917314,1383711.0,-0.00872000027447939,0.005770000163465738,0.00031999999191612005,0.3587000072002411
6701.262994689529,1383712.0,-0.01971999928355217,0.002589999930933118,0.0002300000051036477,0.36122000217437744
6701.263994461744,1383713.0,-0.027720000594854355,0.003719999920576811,-0.0008200000156648457,0.3582899868488312
6701.264994233959,1383714.0,-0.03220999985933304,-0.0033199999015778303,0.00014000000373926014,0.35370999574661255
6701.265994006175,1383715.0,-0.030139999464154243,-0.005859999917447567,0.0013200000394135714,0.3444199860095978
6701.26699377839,1383716.0,-0.021379999816417694,-0.006039999891072512,0.00014000000373926014,0.3548099994659424
6701.267993550606,1383717.0,-0.008089999668300152,-0.005590000189840794,-0.00018000000272877514,0.35774001479148865
6701.26899332282,1383718.0,0.005799999926239252,-0.005810000002384186,0.00031999999191612005,0.3547700047492981
6701.269993095036,1383719.0,0.018869999796152115,-0.002950000111013651,-4.999999873689376e-05,0.3401600122451782
6701.270992867251,1383720.0,0.029109999537467957,-0.003590000094845891,-0.00041000000783242285,0.34977999329566956
6701.271992639467,1383721.0,0.035440001636743546,0.00031999999191612005,0.0035000001080334187,0.3569599986076355
6701.272992411682,1383722.0,0.03756000101566315,-0.002589999930933118,0.003949999809265137,0.351749986410141
6701.273992183897,1383723.0,0.03652000054717064,0.006490000057965517,0.0028200000524520874,0.34419000148773193
6701.274991956112,1383724.0,0.03279000148177147,0.0002699999895412475,0.0010400000028312206,0.3538999855518341
6701.275991728327,1383725.0,0.026499999687075615,0.0014100000262260437,-0.0031799999997019768,0.3518800139427185
6701.276991500543,1383726.0,0.022280000150203705,0.0025400000158697367,0.0010000000474974513,0.33869999647140503
6701.277991272758,1383727.0,0.02071000076830387,0.002859999891370535,0.00031999999191612005,0.3488200008869171
6701.278991044974,1383728.0,0.020479999482631683,0.0031799999997019768,-0.0014100000262260437,0.35343998670578003
6701.279990817188,1383729.0,0.012040000408887863,0.0052200001664459705,-0.0036800000816583633,0.3475300073623657
6701.280990589404,1383730.0,-0.0008099999977275729,0.007809999864548445,-0.0006399999838322401,0.3427700102329254
6701.281990361619,1383731.0,-0.013340000063180923,0.004040000028908253,0.0021299999207258224,0.3517000079154968
6701.282990133835,1383732.0,-0.024660000577569008,0.0072200000286102295,-0.000910000002477318,0.34894999861717224
6701.28398990605,1383733.0,-0.0301900003105402,-4.999999873689376e-05,-0.002409999957308173,0.3352699875831604
6701.2849896782645,1383734.0,-0.03220999985933304,0.002319999970495701,0.0037700000684708357,0.34804001450538635
6701.28598945048,1383735.0,-0.02865999937057495,-0.009399999864399433,0.0012700000079348683,0.3470799922943115
6701.286989222695,1383736.0,-0.020840000361204147,-0.006579999811947346,-0.006039999891072512,0.33719000220298767
6701.287988994911,1383737.0,-0.012400000356137753,-0.005040000192821026,0.00031999999191612005,0.3488200008869171
6701.288988767126,1383738.0,-0.004129999782890081,-0.004629999864846468,-9.000000136438757e-05,0.3467099964618683
6701.289988539342,1383739.0,0.003229999914765358,-0.0016299999551847577,-0.002319999970495701,0.3328399956226349
6701.290988311556,1383740.0,0.00930000003427267,-0.003220000071451068,-0.00041000000783242285,0.34547001123428345
6701.291988083772,1383741.0,0.012849999591708183,-0.0007699999841861427,0.00418000016361475,0.3465699851512909
6701.292987855987,1383742.0,0.016170000657439232,0.002859999891370535,0.0013200000394135714,0.3341200053691864
6701.293987628203,1383743.0,0.016489999368786812,0.003949999809265137,-0.00418000016361475,0.3421800136566162
6701.294987400418,1383744.0,0.0142000000923872,0.004129999782890081,-0.000539999979082495,0.34689000248908997
6701.2959871726325,1383745.0,0.013570000417530537,0.0013200000394135714,0.00203999993391335,0.34154000878334045
6701.296986944848,1383746.0,0.013659999705851078,0.0024999999441206455,0.004269999917596579,0.33173999190330505
6701.297986717063,1383747.0,0.013969999738037586,0.0027699999045580626,-0.0028200000524520874,0.33928999304771423
6701.298986489279,1383748.0,0.014779999852180481,-0.002409999957308173,-0.0025400000158697367,0.341949999332428
6701.299986261494,1383749.0,0.01131999958306551,0.004360000137239695,-0.001449999981559813,0.34492000937461853
6701.300986033709,1383750.0,0.003010000102221966,0.00535999983549118,0.0013599999947473407,0.3383300006389618
6701.301985805924,1383751.0,-0.007550000213086605,0.006130000110715628,0.003809999907389283,0.33649998903274536
6701.30298557814,1383752.0,-0.018869999796152115,0.0031300000846385956,0.002859999891370535,0.3433699905872345
6701.303985350355,1383753.0,-0.028929999098181725,0.005040000192821026,0.00031999999191612005,0.34011998772621155
6701.3049851225705,1383754.0,-0.03629999980330467,-0.004809999838471413,-0.0020000000949949026,0.32552000880241394
6701.305984894785,1383755.0,-0.03458999842405319,-0.0030900000128895044,-0.0045900000259280205,0.33722999691963196
6701.3069846670005,1383756.0,-0.0258799996227026,-0.006219999864697456,-0.0034099998883903027,0.3414900004863739
6701.307984439216,1383757.0,-0.0142000000923872,-0.006949999835342169,0.001769999973475933,0.334850013256073
6701.308984211431,1383758.0,-0.0020699999295175076,-0.0062699997797608376,0.0031799999997019768,0.33476001024246216
6701.309983983647,1383759.0,0.009700000286102295,-0.0028200000524520874,-0.0015899999998509884,0.34011998772621155
6701.310983755862,1383760.0,0.01891000010073185,-9.000000136438757e-05,0.0014100000262260437,0.3343000113964081
6701.311983528077,1383761.0,0.023310000076889992,-0.0016799999866634607,0.00031999999191612005,0.3321099877357483
6701.312983300292,1383762.0,0.024080000817775726,0.003220000071451068,-0.002950000111013651,0.33823999762535095
6701.313983072508,1383763.0,0.022099999710917473,0.0018599999602884054,0.003220000071451068,0.333979994058609
6701.314982844723,1383764.0,0.019770000129938126,0.005489999894052744,0.002950000111013651,0.331279993057251
6701.3159826169385,1383765.0,0.017389999702572823,0.00203999993391335,0.00031999999191612005,0.33722999691963196
6701.316982389153,1383766.0,0.01590000092983246,0.001230000052601099,-0.0012700000079348683,0.33114999532699585
6701.3179821613685,1383767.0,0.01351999957114458,-0.0010000000474974513,0.003719999920576811,0.3295400142669678
6701.318981933584,1383768.0,0.0088900001719594,0.0020000000949949026,0.00014000000373926014,0.33649998903274536
6701.319981705799,1383769.0,0.0016199999954551458,0.002360000042244792,-0.002409999957308173,0.32927000522613525
6701.320981478015,1383770.0,-0.007459999993443489,0.005270000081509352,-0.0030900000128895044,0.33013999462127686
6701.32198125023,1383771.0,-0.017430000007152557,0.00686000008136034,0.0028200000524520874,0.334989994764328
6701.322981022445,1383772.0,-0.026590000838041306,0.003809999907389283,0.0010400000028312206,0.3284499943256378
6701.32398079466,1383773.0,-0.03198999911546707,0.00571999978274107,-0.004269999917596579,0.32927000522613525
6701.324980566876,1383774.0,-0.03522000089287758,-0.0002699999895412475,-0.004220000002533197,0.33083000779151917
6701.325980339091,1383775.0,-0.03338000178337097,-0.005859999917447567,0.0007699999841861427,0.3170900046825409
6701.3269801113065,1383776.0,-0.030549999326467514,-0.007309999782592058,0.001500000013038516,0.3284499943256378
6701.327979883521,1383777.0,-0.028119999915361404,-0.008170000277459621,0.0015899999998509884,0.33114999532699585
6701.3289796557365,1383778.0,-0.0258799996227026,-0.00839999970048666,-0.002859999891370535,0.32638999819755554
6701.329979427952,1383779.0,-0.02273000031709671,-0.002589999930933118,-0.0009500000160187483,0.3232699930667877
6701.330979200167,1383780.0,-0.02363000065088272,-0.00494999997317791,0.0002699999895412475,0.3303700089454651
6701.331978972383,1383781.0,-0.029510000720620155,0.0019099999917671084,0.0011399999493733048,0.32725998759269714
6701.332978744598,1383782.0,-0.03943999856710434,-0.0011399999493733048,0.0021299999207258224,0.31439000368118286
6701.333978516813,1383783.0,-0.050939999520778656,0.0035000001080334187,-0.002859999891370535,0.3265700042247772
6701.334978289028,1383784.0,-0.06324999779462814,-0.0019099999917671084,0.0015399999683722854,0.32697999477386475
6701.335978061244,1383785.0,-0.07780999690294266,0.0016799999866634607,0.0028200000524520874,0.3225899934768677
6701.336977833459,1383786.0,-0.09630999714136124,-0.0002699999895412475,0.003809999907389283,0.3211199939250946
6701.3379776056745,1383787.0,-0.11195000261068344,0.0019499999471008778,-0.0031300000846385956,0.328029990196228
6701.338977377889,1383788.0,-0.12345000356435776,-0.0022299999836832285,0.0021299999207258224,0.32148998975753784
6701.3399771501045,1383789.0,-0.13683000206947327,0.005679999943822622,-0.0006399999838322401,0.3201099932193756
6701.34097692232,1383790.0,-0.15373000502586365,0.00571999978274107,-0.0003600000054575503,0.32592999935150146
6701.341976694535,1383791.0,-0.1725900024175644,0.004679999779909849,-0.00014000000373926014,0.32291001081466675
6701.342976466751,1383792.0,-0.18831999599933624,0.0014100000262260437,0.00031999999191612005,0.30976998805999756
6701.343976238966,1383793.0,-0.1959100067615509,0.0012700000079348683,0.0019099999917671084,0.3208000063896179
6701.344976011181,1383794.0,-0.19554999470710754,0.0044999998062849045,-0.0002300000051036477,0.32221999764442444
6701.345975783396,1383795.0,-0.18840999901294708,-0.004269999917596579,-0.00203999993391335,0.31773000955581665
6701.346975555612,1383796.0,-0.17434999346733093,-0.004769999999552965,0.002950000111013651,0.31769001483917236
6701.347975327827,1383797.0,-0.15148000419139862,-0.00041000000783242285,0.00031999999191612005,0.32346001267433167
6701.3489751000425,1383798.0,-0.123989999294281,-0.0018599999602884054,-0.003269999986514449,0.3177799880504608
6701.349974872257,1383799.0,-0.0958700031042099,-0.0033199999015778303,-0.0012700000079348683,0.3128800094127655
6701.350974644472,1383800.0,-0.07026000320911407,0.0021299999207258224,0.004679999779909849,0.32190001010894775
6701.351974416688,1383801.0,-0.044199999421834946,-0.001820000004954636,0.0021299999207258224,0.3163599967956543
6701.352974188903,1383802.0,-0.021469999104738235,0.005179999861866236,0.000910000002477318,0.31338998675346375
6701.353973961119,1383803.0,0.0007200000109151006,0.004679999779909849,0.0027199999894946814,0.3196600079536438
6701.354973733334,1383804.0,0.026189999654889107,0.005400000140070915,0.00203999993391335,0.3163599967956543
6701.355973505549,1383805.0,0.054179999977350235,0.006719999946653843,-0.0002300000051036477,0.3063800036907196
6701.356973277764,1383806.0,0.0817599967122078,0.003220000071451068,-0.002950000111013651,0.3151699900627136
6701.35797304998,1383807.0,0.10803999751806259,0.0030400000978261232,-0.0013599999947473407,0.31942999362945557
6701.358972822195,1383808.0,0.13773000240325928,0.000910000002477318,0.0019499999471008778,0.31714001297950745
6701.3599725944105,1383809.0,0.16270999610424042,0.0072200000286102295,-0.0010400000028312206,0.31452998518943787
6701.360972366625,1383810.0,0.17690999805927277,0.005539999809116125,0.00031999999191612005,0.311599999666214
6701.36197213884,1383811.0,0.1797800064086914,0.00418000016361475,0.0014100000262260437,0.31036001443862915
6701.362971911056,1383812.0,0.1739400029182434,0.00494999997317791,0.0009500000160187483,0.30990999937057495
6701.363971683271,1383813.0,0.17143000662326813,0.0027699999045580626,0.00031999999191612005,0.31380000710487366
6701.364971455487,1383814.0,0.17718000710010529,0.003539999946951866,-0.00267999991774559,0.31380000710487366
6701.365971227701,1383815.0,0.19820000231266022,-0.004860000219196081,-0.004769999999552965,0.3100000023841858
6701.366970999917,1383816.0,0.2309899926185608,-0.006579999811947346,-0.0006399999838322401,0.30298998951911926
6701.367970772132,1383817.0,0.2673400044441223,-0.006490000057965517,-0.00018000000272877514,0.3108699917793274
6701.368970544348,1383818.0,0.29892000555992126,-0.003809999907389283,-0.005489999894052744,0.31136998534202576
6701.369970316563,1383819.0,0.3236199915409088,-0.0045900000259280205,-0.005270000081509352,0.3066999912261963
6701.370970088778,1383820.0,0.3417699933052063,-0.0022299999836832285,-0.0033599999733269215,0.3063800036907196
6701.371969860993,1383821.0,0.3498600125312805,0.00031999999191612005,0.0009500000160187483,0.3122900128364563
6701.372969633208,1383822.0,0.35148000717163086,0.002360000042244792,-0.0012700000079348683,0.3076600134372711
6701.373969405424,1383823.0,0.34104999899864197,-0.0019099999917671084,-0.0030900000128895044,0.30226001143455505
6701.374969177639,1383824.0,0.3234899938106537,0.00031999999191612005,-0.002859999891370535,0.3087199926376343
6701.375968949855,1383825.0,0.3059200048446655,-0.00041000000783242285,-0.00041000000783242285,0.30816999077796936
6701.376968722069,1383826.0,0.29559001326560974,0.0007300000288523734,0.0030400000978261232,0.3035399913787842
6701.377968494285,1383827.0,0.29109999537467957,0.0022700000554323196,-0.0027199999894946814,0.30340999364852905
6701.3789682665,1383828.0,0.2878200113773346,0.0019499999471008778,-0.004040000028908253,0.30748000741004944
6701.379968038716,1383829.0,0.28202998638153076,0.004089999943971634,-0.00018000000272877514,0.3024899959564209
6701.380967810931,1383830.0,0.2727699875831604,0.0059899999760091305,0.0015899999998509884,0.30112001299858093
6701.3819675831455,1383831.0,0.2574999928474426,0.005859999917447567,-0.00041000000783242285,0.3063800036907196
6701.382967355361,1383832.0,0.2320300042629242,0.002409999957308173,-0.00418000016361475,0.3004800081253052
6701.383967127576,1383833.0,0.20187999308109283,0.0018599999602884054,0.0010400000028312206,0.2998400032520294
6701.384966899792,1383834.0,0.17106999456882477,-9.000000136438757e-05,0.001230000052601099,0.30500999093055725
6701.385966672007,1383835.0,0.14357000589370728,-0.007360000163316727,-0.005950000137090683,0.30083999037742615
6701.386966444223,1383836.0,0.12471000105142593,-0.006579999811947346,-0.00494999997317791,0.29690998792648315
6701.387966216437,1383837.0,0.1123099997639656,-0.00494999997317791,0.005400000140070915,0.304500013589859
6701.388965988653,1383838.0,0.099590003490448,-0.005859999917447567,0.0007300000288523734,0.300570011138916
6701.389965760868,1383839.0,0.08760000020265579,-0.006089999806135893,-0.0013599999947473407,0.2880699932575226
6701.3909655330835,1383840.0,0.07339999824762344,-0.000590000010561198,-0.0030400000978261232,0.29677000641822815
6701.391965305299,1383841.0,0.05984000116586685,0.001769999973475933,0.0031300000846385956,0.3022199869155884
6701.3929650775135,1383842.0,0.04357999935746193,0.0064500002190470695,-0.00044999999227002263,0.2988699972629547
6701.393964849729,1383843.0,0.028209999203681946,0.0034099998883903027,0.0,0.2870199978351593
6701.394964621944,1383844.0,0.0147299999371171,0.0025400000158697367,0.0011399999493733048,0.29416000843048096
6701.39596439416,1383845.0,-0.0014400000218302011,0.0013200000394135714,-0.0033199999015778303,0.30083999037742615
6701.396964166375,1383846.0,-0.013659999705851078,0.003590000094845891,-0.00044999999227002263,0.29387998580932617
6701.397963938591,1383847.0,-0.022690000012516975,-0.003949999809265137,0.001769999973475933,0.2917799949645996
6701.398963710805,1383848.0,-0.03220999985933304,0.004540000110864639,0.005179999861866236,0.29690998792648315
6701.399963483021,1383849.0,-0.04456000030040741,0.005040000192821026,0.002859999891370535,0.2975899875164032
6701.400963255236,1383850.0,-0.056060001254081726,0.009580000303685665,0.0021299999207258224,0.29328998923301697
6701.4019630274515,1383851.0,-0.06436999887228012,0.006130000110715628,-0.002589999930933118,0.2906300127506256
6701.402962799667,1383852.0,-0.07079999893903732,0.0018599999602884054,-0.0027699999045580626,0.2951200008392334
6701.4039625718815,1383853.0,-0.07366999983787537,0.003220000071451068,-0.005900000222027302,0.29328998923301697
6701.404962344097,1383854.0,-0.0725099965929985,0.00014000000373926014,-4.999999873689376e-05,0.28101998567581177
6701.405962116312,1383855.0,-0.06881999969482422,-0.007770000025629997,0.0020000000949949026,0.28971999883651733
6701.406961888528,1383856.0,-0.059390000998973846,-0.0020000000949949026,-0.004629999864846468,0.2945300042629242
6701.407961660743,1383857.0,-0.04771000146865845,-0.005489999894052744,-0.0007699999841861427,0.290910005569458
6701.408961432959,1383858.0,-0.03449999913573265,-0.003449999960139394,-0.002589999930933118,0.2849999964237213
6701.409961205173,1383859.0,-0.02232999913394451,-0.006130000110715628,0.002589999930933118,0.2909500002861023
6701.410960977389,1383860.0,-0.013659999705851078,0.0002300000051036477,0.004999999888241291,0.29168999195098877
6701.411960749604,1383861.0,-0.009340000338852406,-0.000859999970998615,0.00031999999191612005,0.2864699959754944
6701.4129605218195,1383862.0,-0.010420000180602074,0.0021299999207258224,-0.00203999993391335,0.28578001260757446
6701.413960294035,1383863.0,-0.013120000250637531,0.0024500000290572643,0.004129999782890081,0.2907699942588806
6701.4149600662495,1383864.0,-0.016580000519752502,0.008449999615550041,0.0017300000181421638,0.28780001401901245
6701.415959838465,1383865.0,-0.020749999210238457,0.0024999999441206455,-0.0019499999471008778,0.28303998708724976
6701.41695961068,1383866.0,-0.0258799996227026,0.00031999999191612005,0.003539999946951866,0.2902199923992157
6701.417959382896,1383867.0,-0.02914999984204769,0.002409999957308173,-0.000590000010561198,0.2842699885368347
6701.418959155111,1383868.0,-0.02947000041604042,0.002409999957308173,-0.0002699999895412475,0.2828499972820282
6701.419958927327,1383869.0,-0.02857000008225441,0.005810000002384186,0.00203999993391335,0.28856998682022095
6701.420958699541,1383870.0,-0.032519999891519547,0.005859999917447567,0.0021800000686198473,0.2840900123119354
6701.421958471757,1383871.0,-0.04295000061392784,0.008949999697506428,-0.0031300000846385956,0.2803800106048584
6701.422958243972,1383872.0,-0.05516999959945679,0.005900000222027302,0.0002699999895412475,0.28738000988960266
6701.4239580161875,1383873.0,-0.06369999796152115,0.005590000189840794,-0.0019099999917671084,0.2824400067329407
6701.424957788403,1383874.0,-0.06926999986171722,-4.999999873689376e-05,-0.000539999979082495,0.28001001477241516
6701.4259575606175,1383875.0,-0.07002999633550644,-0.005679999943822622,-0.005489999894052744,0.2856000065803528
6701.426957332833,1383876.0,-0.06801000237464905,-0.005679999943822622,0.0036800000816583633,0.28303998708724976
6701.427957105048,1383877.0,-0.061769999563694,-0.005179999861866236,0.00018000000272877514,0.2703999876976013
6701.428956877264,1383878.0,-0.05144000053405762,-0.007309999782592058,-9.000000136438757e-05,0.27904999256134033
6701.429956649479,1383879.0,-0.03962000086903572,-0.007579999975860119,-0.006539999973028898,0.2837199866771698
6701.430956421694,1383880.0,-0.03136000037193298,-0.002859999891370535,0.005179999861866236,0.2773999869823456
6701.431956193909,1383881.0,-0.026680000126361847,-0.0016799999866634607,-0.0012700000079348683,0.27643999457359314
6701.432955966125,1383882.0,-0.024080000817775726,0.00203999993391335,-0.0014100000262260437,0.28262001276016235
6701.43395573834,1383883.0,-0.024299999698996544,0.0019499999471008778,-0.001769999973475933,0.27744999527931213
6701.4349555105555,1383884.0,-0.02848000079393387,0.0019499999471008778,0.0013599999947473407,0.27296000719070435
6701.435955282771,1383885.0,-0.03539999946951866,0.005040000192821026,0.0021800000686198473,0.2808400094509125
6701.436955054985,1383886.0,-0.039080001413822174,0.003590000094845891,0.00031999999191612005,0.2753399908542633
6701.437954827201,1383887.0,-0.04092000052332878,0.003539999946951866,-0.000590000010561198,0.26787999272346497
6701.438954599416,1383888.0,-0.04024999961256981,0.0045900000259280205,0.003590000094845891,0.2741999924182892
6701.439954371632,1383889.0,-0.04222999885678291,0.0044999998062849045,-0.0003600000054575503,0.27639999985694885
6701.440954143847,1383890.0,-0.046720001846551895,0.006130000110715628,-0.002589999930933118,0.2635299861431122
6701.441953916062,1383891.0,-0.053950000554323196,0.007040000054985285,0.00031999999191612005,0.27121999859809875
6701.442953688277,1383892.0,-0.06225999817252159,0.004679999779909849,0.002859999891370535,0.27643999457359314
6701.443953460493,1383893.0,-0.06504999846220016,-0.000910000002477318,0.0014100000262260437,0.27048999071121216
6701.444953232708,1383894.0,-0.0616299994289875,-0.003860000055283308,-0.007040000054985285,0.26747000217437744
6701.4459530049235,1383895.0,-0.05364000052213669,-0.002950000111013651,-0.004769999999552965,0.2736999988555908
6701.446952777138,1383896.0,-0.04042999818921089,-0.004679999779909849,0.002409999957308173,0.27044999599456787
6701.447952549353,1383897.0,-0.025790000334382057,-0.00839999970048666,-0.002630000002682209,0.2662400007247925
6701.448952321569,1383898.0,-0.01257999986410141,-0.006769999861717224,-0.0024500000290572643,0.27278000116348267
6701.449952093784,1383899.0,-0.0035000001080334187,-0.006680000107735395,0.003220000071451068,0.25777000188827515
6701.450951866,1383900.0,0.0016199999954551458,-0.0011399999493733048,-0.0022299999836832285,0.2710399925708771
6701.451951638215,1383901.0,0.0037299999967217445,-0.0035000001080334187,-0.003539999946951866,0.2669200003147125
6701.45295141043,1383902.0,-0.0006300000241026282,0.0014100000262260437,0.0030900000128895044,0.26357999444007874
6701.453951182645,1383903.0,-0.00795000046491623,0.0024999999441206455,0.0006399999838322401,0.270579993724823
6701.454950954861,1383904.0,-0.012400000356137753,-0.0013200000394135714,-0.0031300000846385956,0.26399001479148865
6701.455950727076,1383905.0,-0.01384000014513731,0.003590000094845891,-0.002589999930933118,0.2581300139427185
6701.456950499291,1383906.0,-0.014379999600350857,0.0021299999207258224,0.0012700000079348683,0.26166000962257385
6701.457950271506,1383907.0,-0.014469999819993973,0.00267999991774559,0.0037700000684708357,0.26715001463890076
6701.458950043721,1383908.0,-0.013659999705851078,-0.002589999930933118,0.0030900000128895044,0.26499998569488525
6701.459949815937,1383909.0,-0.018780000507831573,0.0016299999551847577,0.003220000071451068,0.2620700001716614
6701.460949588152,1383910.0,-0.03058999963104725,0.009039999917149544,-0.0002699999895412475,0.25905001163482666
6701.461949360368,1383911.0,-0.04393000155687332,0.00839999970048666,0.00014000000373926014,0.2621600031852722
6701.462949132583,1383912.0,-0.05623999983072281,0.005400000140070915,-0.006719999946653843,0.2627600133419037
6701.463948904798,1383913.0,-0.06298000365495682,0.001449999981559813,0.002950000111013651,0.2516799867153168
6701.464948677013,1383914.0,-0.06486999988555908,-0.00041000000783242285,-0.00041000000783242285,0.26096999645233154
6701.465948449229,1383915.0,-0.064690001308918,-0.001500000013038516,-0.0028200000524520874,0.26082998514175415
6701.466948221444,1383916.0,-0.06019999831914902,-0.0037700000684708357,-0.002090000081807375,0.2519499957561493
6701.467947993659,1383917.0,-0.048969998955726624,-0.01104000024497509,-9.000000136438757e-05,0.2593199908733368
6701.468947765874,1383918.0,-0.03531000018119812,-0.008860000409185886,-0.00041000000783242285,0.2591400146484375
6701.469947538089,1383919.0,-0.02012999914586544,-0.003269999986514449,-0.0036800000816583633,0.2463199943304062
6701.470947310305,1383920.0,-0.008580000139772892,-0.00267999991774559,-4.999999873689376e-05,0.25374001264572144
6701.47194708252,1383921.0,-0.0012600000482052565,-0.002090000081807375,-0.00018000000272877514,0.25995999574661255
6701.472946854736,1383922.0,0.0016199999954551458,0.004310000222176313,0.0036800000816583633,0.2563900053501129
6701.473946626951,1383923.0,0.0006699999794363976,0.001449999981559813,0.0002300000051036477,0.2478799968957901
6701.474946399166,1383924.0,-0.004129999782890081,0.003590000094845891,-0.002950000111013651,0.25703001022338867
6701.475946171381,1383925.0,-0.011099999770522118,0.003539999946951866,0.00031999999191612005,0.25547999143600464
6701.476945943597,1383926.0,-0.01940999925136566,0.003590000094845891,0.001230000052601099,0.25154000520706177
6701.477945715812,1383927.0,-0.024890000000596046,0.003220000071451068,0.001500000013038516,0.24338999390602112
6701.478945488027,1383928.0,-0.027400000020861626,-0.00044999999227002263,0.00267999991774559,0.24924999475479126
6701.479945260242,1383929.0,-0.030910000205039978,0.00795000046491623,-0.0011399999493733048,0.25488001108169556
6701.480945032457,1383930.0,-0.03822999820113182,0.00798999983817339,0.00018000000272877514,0.25227001309394836
6701.481944804673,1383931.0,-0.046539999544620514,0.006769999861717224,-0.002319999970495701,0.24898000061511993
6701.482944576888,1383932.0,-0.05319000035524368,0.000859999970998615,0.0002699999895412475,0.2405499964952469
6701.483944349104,1383933.0,-0.05651000142097473,0.0027699999045580626,-0.002589999930933118,0.2421099990606308
6701.484944121319,1383934.0,-0.05584000051021576,0.001230000052601099,-0.002630000002682209,0.24677999317646027
6701.485943893534,1383935.0,-0.051750000566244125,-0.0036800000816583633,0.004900000058114529,0.25113001465797424
6701.486943665749,1383936.0,-0.042410001158714294,-0.00839999970048666,0.00031999999191612005,0.25044000148773193
6701.4879434379645,1383937.0,-0.03373999893665314,-0.007449999917298555,-0.00044999999227002263,0.2451300024986267
6701.48894321018,1383938.0,-0.025520000606775284,-0.008949999697506428,-0.002090000081807375,0.2438499927520752
6701.489942982395,1383939.0,-0.0185100007802248,-0.00418000016361475,-0.003000000026077032,0.2493399977684021
6701.49094275461,1383940.0,-0.012310000136494637,-0.001500000013038516,0.0021299999207258224,0.24490000307559967
6701.491942526825,1383941.0,-0.005840000230818987,0.0008200000156648457,0.00031999999191612005,0.24014000594615936
6701.492942299041,1383942.0,-0.004129999782890081,-0.000590000010561198,-0.0010000000474974513,0.24532000720500946
6701.493942071256,1383943.0,-0.004310000222176313,0.007670000195503235,-0.0007699999841861427,0.2451300024986267
6701.494941843472,1383944.0,-0.007550000213086605,0.002589999930933118,0.0014100000262260437,0.24100999534130096
6701.495941615686,1383945.0,-0.012849999591708183,0.006089999806135893,0.00031999999191612005,0.24018999934196472
6701.496941387902,1383946.0,-0.016529999673366547,-0.0015399999683722854,-0.0018599999602884054,0.24605000019073486
6701.497941160117,1383947.0,-0.01689000055193901,0.004860000219196081,-0.000859999970998615,0.24252000451087952
6701.4989409323325,1383948.0,-0.016259999945759773,0.00014000000373926014,0.004900000058114529,0.2331400066614151
6701.499940704548,1383949.0,-0.018149999901652336,0.008580000139772892,0.0010900000343099236,0.2384900003671646
6701.500940476763,1383950.0,-0.02353999949991703,0.005950000137090683,0.000859999970998615,0.243709996342659
6701.501940248978,1383951.0,-0.03342000022530556,0.005630000028759241,-0.0007699999841861427,0.23845000565052032
6701.502940021193,1383952.0,-0.0436599999666214,0.002950000111013651,-0.0036800000816583633,0.23122000694274902
6701.503939793409,1383953.0,-0.0514799989759922,0.0010000000474974513,-0.003000000026077032,0.2356099933385849
6701.504939565624,1383954.0,-0.05804000049829483,0.0014100000262260437,0.0030400000978261232,0.24009999632835388
6701.50593933784,1383955.0,-0.05821999907493591,-0.005489999894052744,0.001180000021122396,0.240229994058609
6701.506939110054,1383956.0,-0.048250000923871994,-0.003949999809265137,-0.001180000021122396,0.23758000135421753
6701.50793888227,1383957.0,-0.03553000092506409,-0.008129999972879887,-0.005489999894052744,0.23273000121116638
6701.508938654485,1383958.0,-0.023989999666810036,-0.004860000219196081,0.003220000071451068,0.24000999331474304
6701.5099384267005,1383959.0,-0.010689999908208847,-0.004220000002533197,-0.0002699999895412475,0.22883999347686768
6701.510938198916,1383960.0,0.0012600000482052565,-0.0018599999602884054,-0.003590000094845891,0.23451000452041626
6701.5119379711305,1383961.0,0.009610000066459179,4.999999873689376e-05,0.004769999999552965,0.2368900030851364
6701.512937743346,1383962.0,0.01348000019788742,0.0030900000128895044,-4.999999873689376e-05,0.2258100062608719
6701.513937515561,1383963.0,0.013700000010430813,0.0012700000079348683,-0.0033599999733269215,0.2308499962091446
6701.514937287777,1383964.0,0.01221999991685152,0.004679999779909849,-0.0006399999838322401,0.23566000163555145
6701.515937059992,1383965.0,0.007459999993443489,0.0018599999602884054,0.0044999998062849045,0.22366000711917877
6701.516936832208,1383966.0,-0.000539999979082495,0.004269999917596579,-0.002589999930933118,0.22842000424861908
6701.517936604422,1383967.0,-0.008089999668300152,0.002090000081807375,-0.003000000026077032,0.23469999432563782
6701.518936376638,1383968.0,-0.014510000124573708,-0.001449999981559813,-0.0009500000160187483,0.2315399944782257
6701.519936148853,1383969.0,-0.02363000065088272,0.002859999891370535,0.004410000052303076,0.22371000051498413
6701.5209359210685,1383970.0,-0.03539999946951866,0.008860000409185886,-0.0002699999895412475,0.22719000279903412
6701.521935693284,1383971.0,-0.046539999544620514,0.004629999864846468,-0.0005000000237487257,0.2319899946451187
6701.522935465498,1383972.0,-0.05691999942064285,0.008080000057816505,0.001500000013038516,0.2207300066947937
6701.523935237714,1383973.0,-0.061719998717308044,-0.0017300000181421638,0.00014000000373926014,0.23116999864578247
6701.524935009929,1383974.0,-0.06351999938488007,-0.000859999970998615,-0.0022700000554323196,0.22874000668525696
6701.525934782145,1383975.0,-0.060109999030828476,-0.005679999943822622,-0.0021800000686198473,0.21973000466823578
6701.52693455436,1383976.0,-0.05130000039935112,-0.004769999999552965,0.00031999999191612005,0.22696000337600708
6701.527934326576,1383977.0,-0.03863000124692917,-0.010940000414848328,0.00031999999191612005,0.22696000337600708
6701.52893409879,1383978.0,-0.024390000849962234,-0.004679999779909849,-0.0045900000259280205,0.21794000267982483
6701.529933871006,1383979.0,-0.009340000338852406,-0.002409999957308173,0.0037700000684708357,0.22696000337600708
6701.530933643221,1383980.0,0.0033199999015778303,0.0036299999337643385,0.004310000222176313,0.2256300002336502
6701.5319334154365,1383981.0,0.009789999574422836,0.001230000052601099,0.004629999864846468,0.21615999937057495
6701.532933187652,1383982.0,0.012129999697208405,0.00203999993391335,-0.0012700000079348683,0.22096000611782074
6701.533932959866,1383983.0,0.01221999991685152,0.004900000058114529,-0.0006399999838322401,0.2249000072479248
6701.534932732082,1383984.0,0.008449999615550041,0.0024500000290572643,0.0014100000262260437,0.21258999407291412
6701.535932504297,1383985.0,0.0028800000436604023,0.003220000071451068,-0.0033599999733269215,0.2184000015258789
6701.536932276513,1383986.0,-0.00215999991632998,-0.000590000010561198,-0.0033599999733269215,0.22384999692440033
6701.537932048728,1383987.0,-0.0071000000461936,-0.001500000013038516,0.0021299999207258224,0.21950000524520874
6701.538931820944,1383988.0,-0.013570000417530537,-0.00203999993391335,0.00031999999191612005,0.21547000110149384
6701.539931593158,1383989.0,-0.02232999913394451,0.0031300000846385956,0.0015399999683722854,0.22224000096321106
6701.540931365374,1383990.0,-0.03288000077009201,0.005770000163465738,-0.004000000189989805,0.2171200066804886
6701.541931137589,1383991.0,-0.04438000172376633,0.006399999838322401,0.003220000071451068,0.21358999609947205
6701.542930909804,1383992.0,-0.056060001254081726,0.0036299999337643385,0.0019099999917671084,0.21973000466823578
6701.54393068202,1383993.0,-0.06225999817252159,0.00031999999191612005,-0.00203999993391335,0.21570000052452087
6701.544930454234,1383994.0,-0.0637499988079071,0.0021299999207258224,0.00031999999191612005,0.21126000583171844
6701.54593022645,1383995.0,-0.06185999885201454,-0.006949999835342169,0.0015399999683722854,0.21811999380588531
6701.546929998665,1383996.0,-0.05722999945282936,-0.0014100000262260437,-0.002950000111013651,0.2054000049829483
6701.547929770881,1383997.0,-0.050039999186992645,-0.007309999782592058,-0.002589999930933118,0.21299999952316284
6701.548929543096,1383998.0,-0.04142000153660774,-0.004410000052303076,0.0031300000846385956,0.2155199944972992
6701.549929315312,1383999.0,-0.029559999704360962,-0.00494999997317791,0.00031999999191612005,0.20531000196933746
6701.550929087526,1384000.0,-0.019899999722838402,-0.006039999891072512,-4.999999873689376e-05,0.21381999552249908
6701.551928859742,1384001.0,-0.015809999778866768,0.002589999930933118,-0.0016799999866634607,0.21303999423980713
6701.552928631957,1384002.0,-0.015809999778866768,0.001769999973475933,-0.0016299999551847577,0.20146000385284424
6701.553928404172,1384003.0,-0.017069999128580093,0.005630000028759241,4.999999873689376e-05,0.20732000470161438
6701.554928176388,1384004.0,-0.018459999933838844,0.0028200000524520874,0.001769999973475933,0.21355000138282776
6701.555927948602,1384005.0,-0.018869999796152115,0.002859999891370535,-0.00018000000272877514,0.20979000627994537
6701.556927720818,1384006.0,-0.018689999356865883,0.00031999999191612005,-0.002589999930933118,0.2013700008392334
6701.557927493033,1384007.0,-0.01810000091791153,0.004769999999552965,0.00031999999191612005,0.20388999581336975
6701.558927265249,1384008.0,-0.019500000402331352,0.0036800000816583633,0.003220000071451068,0.2096100002527237
6701.559927037464,1384009.0,-0.024709999561309814,0.006130000110715628,0.0013200000394135714,0.20869000256061554
6701.560926809679,1384010.0,-0.03458999842405319,0.004860000219196081,0.0015399999683722854,0.20017999410629272
6701.561926581894,1384011.0,-0.04667000100016594,0.007079999893903732,-0.0011399999493733048,0.20182999968528748
6701.56292635411,1384012.0,-0.05948000028729439,0.004860000219196081,-0.002589999930933118,0.2062699943780899
6701.563926126325,1384013.0,-0.06526999920606613,0.002409999957308173,0.003000000026077032,0.20736999809741974
6701.56492589854,1384014.0,-0.06549999862909317,0.00031999999191612005,-0.001449999981559813,0.2046699970960617
6701.565925670756,1384015.0,-0.06379000097513199,-0.007180000189691782,-0.0028200000524520874,0.19945000112056732
6701.56692544297,1384016.0,-0.05821999907493591,-0.008220000192523003,-0.0015399999683722854,0.20356999337673187
6701.567925215186,1384017.0,-0.04958999902009964,-0.008489999920129776,0.005400000140070915,0.20489999651908875
6701.568924987401,1384018.0,-0.0399399995803833,-0.009759999811649323,0.0016299999551847577,0.19440999627113342
6701.569924759617,1384019.0,-0.031939998269081116,-0.006680000107735395,-0.004040000028908253,0.19954000413417816
6701.570924531832,1384020.0,-0.024800000712275505,-0.003860000055283308,0.006769999861717224,0.20329000055789948
6701.571924304047,1384021.0,-0.020479999482631683,-0.0018599999602884054,0.002859999891370535,0.20055000483989716
6701.572924076262,1384022.0,-0.016979999840259552,0.0036299999337643385,-0.0018599999602884054,0.19569000601768494
6701.5739238484775,1384023.0,-0.014109999872744083,0.004360000137239695,-0.00418000016361475,0.20319999754428864
6701.574923620693,1384024.0,-0.012260000221431255,0.0031799999997019768,0.0045900000259280205,0.20017999410629272
6701.575923392908,1384025.0,-0.01307000033557415,0.0029100000392645597,0.0021299999207258224,0.1980700045824051
6701.576923165123,1384026.0,-0.01508999988436699,0.00031999999191612005,0.00031999999191612005,0.18955999612808228
6701.577922937338,1384027.0,-0.016529999673366547,-0.0005000000237487257,-0.000859999970998615,0.19307999312877655
6701.578922709554,1384028.0,-0.01810000091791153,-0.0009500000160187483,-0.0016799999866634607,0.19404999911785126
6701.579922481769,1384029.0,-0.020980000495910645,0.0030900000128895044,-0.000859999970998615,0.19492000341415405
6701.580922253985,1384030.0,-0.028929999098181725,0.00535999983549118,-0.0013599999947473407,0.19916999340057373
6701.5819220262,1384031.0,-0.0399399995803833,0.005770000163465738,-0.003539999946951866,0.19880999624729156
6701.582921798415,1384032.0,-0.04991000145673752,0.0045900000259280205,0.00014000000373926014,0.1966100037097931
6701.58392157063,1384033.0,-0.05494000017642975,0.0030400000978261232,0.005900000222027302,0.19596999883651733
6701.5849213428455,1384034.0,-0.05463000014424324,0.0002300000051036477,-0.0033599999733269215,0.18727000057697296
6701.585921115061,1384035.0,-0.050039999186992645,-0.0022700000554323196,-0.0015899999998509884,0.18919000029563904
6701.586920887276,1384036.0,-0.0393499992787838,-0.007040000054985285,-0.0022299999836832285,0.19016000628471375
6701.587920659491,1384037.0,-0.02703999914228916,-0.0020000000949949026,-0.003860000055283308,0.19655999541282654
6701.588920431706,1384038.0,-0.017160000279545784,-0.005489999894052744,0.0010000000474974513,0.19303999841213226
6701.589920203922,1384039.0,-0.011230000294744968,-0.00803999975323677,0.0007300000288523734,0.1848900020122528
6701.590919976137,1384040.0,-0.006200000178068876,-0.0033199999015778303,-0.0013599999947473407,0.1903800070285797
6701.591919748353,1384041.0,0.0006300000241026282,-0.001180000021122396,0.0030400000978261232,0.19303999841213226
6701.592919520568,1384042.0,0.005210000090301037,0.00031999999191612005,0.0045900000259280205,0.18268999457359314
6701.593919292783,1384043.0,0.008449999615550041,-0.00031999999191612005,0.00031999999191612005,0.1892399936914444
6701.594919064998,1384044.0,0.009519999846816063,0.0014100000262260437,0.0002699999895412475,0.18919000029563904
6701.5959188372135,1384045.0,0.009700000286102295,0.0014100000262260437,0.0019099999917671084,0.1846199929714203
6701.596918609429,1384046.0,0.007410000078380108,0.0021299999207258224,0.000910000002477318,0.19075000286102295
6701.597918381644,1384047.0,0.006649999879300594,0.0,-0.00203999993391335,0.18740999698638916
6701.598918153859,1384048.0,0.006060000043362379,-9.000000136438757e-05,-0.0015399999683722854,0.1817300021648407
6701.599917926074,1384049.0,0.0003100000030826777,0.0022700000554323196,0.004900000058114529,0.18863999843597412
6701.60091769829,1384050.0,-0.008179999887943268,0.002409999957308173,-0.00014000000373926014,0.18636000156402588
6701.601917470505,1384051.0,-0.016939999535679817,0.003220000071451068,-0.002950000111013651,0.1777999997138977
6701.602917242721,1384052.0,-0.024170000106096268,9.000000136438757e-05,-0.0019099999917671084,0.1818699985742569
6701.603917014936,1384053.0,-0.029109999537467957,0.002409999957308173,0.002409999957308173,0.18776999413967133
6701.604916787151,1384054.0,-0.03206999972462654,-0.0021299999207258224,-0.000539999979082495,0.1841599941253662
6701.605916559366,1384055.0,-0.030549999326467514,-0.004220000002533197,-0.005489999894052744,0.1786700040102005
6701.6069163315815,1384056.0,-0.023809999227523804,-0.006180000025779009,0.003000000026077032,0.1828799992799759
6701.607916103797,1384057.0,-0.0129399998113513,-0.004769999999552965,-0.00041000000783242285,0.1832900047302246
6701.608915876012,1384058.0,-0.0014400000218302011,-0.0035000001080334187,-0.00494999997317791,0.1751900017261505
6701.609915648227,1384059.0,0.010739999823272228,-0.004769999999552965,0.0,0.18145999312400818
6701.610915420442,1384060.0,0.02151999995112419,-0.0008200000156648457,0.0015899999998509884,0.1837500035762787
6701.611915192658,1384061.0,0.028030000627040863,0.0037700000684708357,0.00031999999191612005,0.18145999312400818
6701.612914964873,1384062.0,0.030230000615119934,0.003949999809265137,0.003220000071451068,0.17317000031471252
6701.613914737089,1384063.0,0.02928999997675419,0.0045900000259280205,0.0010400000028312206,0.1769700050354004
6701.614914509304,1384064.0,0.024080000817775726,0.0021299999207258224,-0.002589999930933118,0.18059000372886658
6701.615914281519,1384065.0,0.013299999758601189,0.005040000192821026,-0.0007300000288523734,0.17092999815940857
6701.616914053734,1384066.0,0.003229999914765358,0.00203999993391335,0.0019499999471008778,0.17385999858379364
6701.6179138259495,1384067.0,-0.0014400000218302011,4.999999873689376e-05,-0.0028200000524520874,0.18050000071525574
6701.618913598165,1384068.0,-0.0036800000816583633,0.0031300000846385956,0.004129999782890081,0.1766500025987625
6701.61991337038,1384069.0,-0.009340000338852406,0.00031999999191612005,0.004900000058114529,0.17143000662326813
6701.620913142595,1384070.0,-0.023360000923275948,0.005270000081509352,-0.001180000021122396,0.17812000215053558
6701.62191291481,1384071.0,-0.03799999877810478,0.004129999782890081,0.00014000000373926014,0.17637999355793
6701.622912687026,1384072.0,-0.04761999845504761,0.0031300000846385956,0.002319999970495701,0.16767999529838562
6701.623912459241,1384073.0,-0.051569998264312744,0.00031999999191612005,-0.0011399999493733048,0.17023999989032745
6701.624912231457,1384074.0,-0.048700001090765,0.00203999993391335,-0.0002300000051036477,0.17660999298095703
6701.625912003671,1384075.0,-0.03880999982357025,-0.005900000222027302,-0.005679999943822622,0.1743600070476532
6701.626911775887,1384076.0,-0.026319999247789383,-0.004769999999552965,-0.0008200000156648457,0.16708000004291534
6701.627911548102,1384077.0,-0.01343000028282404,-0.00839999970048666,-0.002589999930933118,0.1695600003004074
6701.6289113203175,1384078.0,-3.9999998989515007e-05,0.00031999999191612005,-0.0006799999973736703,0.17459000647068024
6701.629911092533,1384079.0,0.010689999908208847,-0.0019499999471008778,-0.0021299999207258224,0.16730999946594238
6701.630910864748,1384080.0,0.016979999840259552,-0.00041000000783242285,0.0024999999441206455,0.17307999730110168
6701.631910636963,1384081.0,0.018729999661445618,0.00203999993391335,0.00686000008136034,0.16603000462055206
6701.632910409178,1384082.0,0.018239999189972878,0.00494999997317791,0.0014100000262260437,0.17180000245571136
6701.633910181394,1384083.0,0.015809999778866768,0.0024999999441206455,-0.0011399999493733048,0.16548000276088715
6701.634909953609,1384084.0,0.014109999872744083,0.00031999999191612005,0.003949999809265137,0.1712000072002411
6701.635909725825,1384085.0,0.012760000303387642,0.00031999999191612005,-4.999999873689376e-05,0.1636500060558319
6701.636909498039,1384086.0,0.010739999823272228,0.0002699999895412475,-0.0024999999441206455,0.17023999989032745
6701.637909270255,1384087.0,0.009519999846816063,-0.0021299999207258224,-4.999999873689376e-05,0.16245999932289124
6701.63890904247,1384088.0,0.008270000107586384,-0.000590000010561198,0.002859999891370535,0.16910000145435333
6701.639908814685,1384089.0,0.004220000002533197,0.00267999991774559,-0.0007699999841861427,0.161640003323555
6701.640908586901,1384090.0,-0.0048500001430511475,0.0013599999947473407,-0.0009500000160187483,0.1679999977350235
6701.641908359115,1384091.0,-0.02102000080049038,0.009359999559819698,-0.001820000004954636,0.15834000706672668
6701.642908131331,1384092.0,-0.03799999877810478,0.007040000054985285,0.003000000026077032,0.16594000160694122
6701.643907903546,1384093.0,-0.045820001512765884,0.00031999999191612005,-0.001230000052601099,0.1576099991798401
6701.644907675762,1384094.0,-0.04771000146865845,0.004129999782890081,-0.0014100000262260437,0.16506999731063843
6701.645907447977,1384095.0,-0.046629998832941055,-0.0011399999493733048,-0.0008200000156648457,0.15613999962806702
6701.646907220193,1384096.0,-0.040119998157024384,-0.006219999864697456,0.001230000052601099,0.1629199981689453
6701.647906992407,1384097.0,-0.03117999993264675,-0.007899999618530273,-0.0016799999866634607,0.15549999475479126
6701.648906764623,1384098.0,-0.02201000042259693,-0.006579999811947346,0.00031999999191612005,0.16072000563144684
6701.649906536838,1384099.0,-0.0129399998113513,-0.005489999894052744,-0.000910000002477318,0.16196000576019287
6701.650906309053,1384100.0,-0.007369999773800373,-0.002090000081807375,-0.0002300000051036477,0.1532599925994873
6701.651906081269,1384101.0,-0.006289999932050705,0.002859999891370535,-0.004269999917596579,0.15595999360084534
6701.652905853483,1384102.0,-0.010379999876022339,0.005270000081509352,0.0030400000978261232,0.16255000233650208
6701.653905625699,1384103.0,-0.017249999567866325,0.004310000222176313,0.00031999999191612005,0.15851999819278717
6701.654905397914,1384104.0,-0.019950000569224358,0.00203999993391335,-0.0019099999917671084,0.15372000634670258
6701.65590517013,1384105.0,-0.022779999300837517,0.0045900000259280205,-0.0018599999602884054,0.1565999984741211
6701.656904942345,1384106.0,-0.02645999938249588,0.002319999970495701,0.0002699999895412475,0.15851999819278717
6701.657904714561,1384107.0,-0.02727000042796135,0.005950000137090683,0.002319999970495701,0.15033000707626343
6701.658904486775,1384108.0,-0.02515999972820282,0.003539999946951866,-0.0028200000524520874,0.15202000737190247
6701.6599042589905,1384109.0,-0.027489999309182167,0.007579999975860119,-0.005489999894052744,0.158160001039505
6701.660904031206,1384110.0,-0.03449999913573265,0.006949999835342169,0.0002300000051036477,0.1548600047826767
6701.661903803421,1384111.0,-0.04349000006914139,0.009759999811649323,0.0014100000262260437,0.14927999675273895
6701.662903575637,1384112.0,-0.052560001611709595,0.0031799999997019768,-0.0029100000392645597,0.15705999732017517
6701.663903347851,1384113.0,-0.05875999853014946,-0.0021800000686198473,-0.001820000004954636,0.1541299968957901
6701.664903120067,1384114.0,-0.06230999901890755,-0.004129999782890081,0.00203999993391335,0.1467999964952469
6701.665902892282,1384115.0,-0.05993000045418739,-0.006219999864697456,-0.0009500000160187483,0.15133999288082123
6701.666902664498,1384116.0,-0.05390999838709831,-0.00949000008404255,-0.002360000042244792,0.15343999862670898
6701.667902436713,1384117.0,-0.04569000005722046,-0.008949999697506428,-0.0031799999997019768,0.1453399956226349
6701.668902208929,1384118.0,-0.03720000013709068,-0.00839999970048666,0.0015899999998509884,0.14826999604701996
6701.669901981143,1384119.0,-0.029020000249147415,-0.0036800000816583633,0.0016299999551847577,0.1521099954843521
6701.6709017533585,1384120.0,-0.01931999996304512,-0.0010900000343099236,-0.0036800000816583633,0.14268000423908234
6701.671901525574,1384121.0,-0.01221999991685152,0.001180000021122396,-0.002319999970495701,0.1451600044965744
6701.672901297789,1384122.0,-0.007009999826550484,0.003590000094845891,0.00031999999191612005,0.1505099982023239
6701.673901070005,1384123.0,-0.006870000157505274,0.005539999809116125,0.005040000192821026,0.1482200026512146
6701.674900842219,1384124.0,-0.010200000368058681,0.005040000192821026,0.0010400000028312206,0.14094999432563782
6701.675900614435,1384125.0,-0.012980000115931034,0.00031999999191612005,0.001180000021122396,0.14203999936580658
6701.67690038665,1384126.0,-0.0147299999371171,-0.0017300000181421638,-0.0022299999836832285,0.14542999863624573
6701.677900158866,1384127.0,-0.014290000312030315,0.00031999999191612005,-0.0035000001080334187,0.14809000492095947
6701.678899931081,1384128.0,-0.012310000136494637,0.00031999999191612005,0.004089999943971634,0.13947999477386475
6701.6798997032965,1384129.0,-0.015720000490546227,0.004220000002533197,0.0016299999551847577,0.14094999432563782
6701.680899475511,1384130.0,-0.023900000378489494,0.003909999970346689,-0.004720000084489584,0.14666999876499176
6701.6818992477265,1384131.0,-0.030820000916719437,0.006130000110715628,0.0024500000290572643,0.13819999992847443
6701.682899019942,1384132.0,-0.0350399985909462,0.0014100000262260437,0.00031999999191612005,0.13861000537872314
6701.683898792157,1384133.0,-0.03844999894499779,0.0010000000474974513,-0.006399999838322401,0.14657999575138092
6701.684898564373,1384134.0,-0.04016000032424927,-0.002409999957308173,0.00031999999191612005,0.14191000163555145
6701.685898336587,1384135.0,-0.03765000030398369,-0.005489999894052744,-0.0007699999841861427,0.1377899944782257
6701.686898108803,1384136.0,-0.029200000688433647,-0.005859999917447567,-0.005489999894052744,0.14350999891757965
6701.687897881018,1384137.0,-0.018330000340938568,-0.00880999956279993,0.0021299999207258224,0.1356399953365326
6701.688897653234,1384138.0,-0.005840000230818987,-0.004360000137239695,0.0010000000474974513,0.13530999422073364
6701.689897425449,1384139.0,0.005929999984800816,-0.002589999930933118,0.0006399999838322401,0.1391099989414215
6701.690897197664,1384140.0,0.01508999988436699,-0.002090000081807375,-0.00014000000373926014,0.14094999432563782
6701.691896969879,1384141.0,0.019050000235438347,-4.999999873689376e-05,-0.0022299999836832285,0.13829000294208527
6701.6928967420945,1384142.0,0.020570000633597374,0.004860000219196081,0.003809999907389283,0.1343500018119812
6701.69389651431,1384143.0,0.019859999418258667,0.004679999779909849,0.003220000071451068,0.1399800032377243
6701.694896286525,1384144.0,0.016349999234080315,0.001769999973475933,0.0010400000028312206,0.13947999477386475
6701.695896058741,1384145.0,0.010870000347495079,0.00031999999191612005,-0.00418000016361475,0.13728000223636627
6701.696895830955,1384146.0,0.003590000094845891,-4.999999873689376e-05,-0.0018599999602884054,0.1318800002336502
6701.697895603171,1384147.0,0.0,0.002090000081807375,0.0010400000028312206,0.13545000553131104
6701.698895375386,1384148.0,-0.0003600000054575503,0.0016799999866634607,0.00203999993391335,0.1379700005054474
6701.699895147602,1384149.0,-0.0022899999748915434,0.003449999960139394,0.0014100000262260437,0.13494999706745148
6701.700894919817,1384150.0,-0.006920000072568655,0.003719999920576811,0.0002300000051036477,0.12922999262809753
6701.701894692032,1384151.0,-0.011719999834895134,0.006130000110715628,-0.0021800000686198473,0.13338999450206757
6701.702894464247,1384152.0,-0.018640000373125076,0.006680000107735395,-4.999999873689376e-05,0.13582000136375427
6701.7038942364625,1384153.0,-0.022059999406337738,0.004679999779909849,-4.999999873689376e-05,0.12761999666690826
6701.704894008678,1384154.0,-0.02402999997138977,-0.003719999920576811,-0.005270000081509352,0.12790000438690186
6701.705893780893,1384155.0,-0.021560000255703926,-0.005810000002384186,-0.005489999894052744,0.1336199939250946
6701.706893553108,1384156.0,-0.012980000115931034,-0.005489999894052744,0.0024500000290572643,0.13312000036239624
6701.707893325323,1384157.0,-0.0020699999295175076,-0.010259999893605709,0.001769999973475933,0.13106000423431396
6701.708893097539,1384158.0,0.006779999937862158,-0.003860000055283308,0.004000000189989805,0.12520000338554382
6701.709892869754,1384159.0,0.0147299999371171,-0.003860000055283308,-0.002589999930933118,0.12442000210285187
6701.71089264197,1384160.0,0.0218299999833107,0.0002699999895412475,0.002090000081807375,0.12483000010251999
6701.711892414185,1384161.0,0.027489999309182167,-0.002589999930933118,-0.0009500000160187483,0.12533999979496002
6701.7128921864,1384162.0,0.030549999326467514,-0.001230000052601099,-0.0010400000028312206,0.12991000711917877
6701.713891958615,1384163.0,0.029740000143647194,0.0045900000259280205,-0.002090000081807375,0.13068999350070953
6701.7148917308305,1384164.0,0.028440000489354134,0.00203999993391335,0.0028200000524520874,0.1279900074005127
6701.715891503046,1384165.0,0.0276699997484684,0.003590000094845891,0.00014000000373926014,0.12250000238418579
6701.716891275261,1384166.0,0.02785000018775463,0.0002699999895412475,0.003539999946951866,0.12816999852657318
6701.717891047476,1384167.0,0.026820000261068344,0.0021299999207258224,-0.005489999894052744,0.12761999666690826
6701.718890819691,1384168.0,0.022190000861883163,0.003719999920576811,-0.001230000052601099,0.12080000340938568
6701.719890591907,1384169.0,0.01095999963581562,0.0031799999997019768,0.004360000137239695,0.12189999967813492
6701.720890364122,1384170.0,0.000539999979082495,0.006810000166296959,0.001820000004954636,0.1273999959230423
6701.721890136338,1384171.0,-0.008980000391602516,0.005400000140070915,0.0020000000949949026,0.11965999752283096
6701.722889908553,1384172.0,-0.01779000088572502,0.003809999907389283,0.00031999999191612005,0.11896999925374985
6701.723889680768,1384173.0,-0.02353999949991703,0.008129999972879887,0.0010400000028312206,0.12666000425815582
6701.724889452983,1384174.0,-0.026909999549388885,0.0010400000028312206,-0.00571999978274107,0.11838000267744064
6701.725889225198,1384175.0,-0.02622999995946884,-0.004089999943971634,-0.004089999943971634,0.11846999824047089
6701.726888997414,1384176.0,-0.02111000008881092,-0.0045900000259280205,-0.0011399999493733048,0.12336999922990799
6701.727888769629,1384177.0,-0.013120000250637531,-0.006219999864697456,0.000859999970998615,0.12336999922990799
6701.728888541844,1384178.0,-0.004670000169426203,-0.00839999970048666,-0.005489999894052744,0.11591000109910965
6701.729888314059,1384179.0,0.0053900000639259815,-0.006490000057965517,-0.0007699999841861427,0.11568000167608261
6701.730888086275,1384180.0,0.0147299999371171,-0.0011399999493733048,-0.0009500000160187483,0.12300000339746475
6701.73188785849,1384181.0,0.019950000569224358,0.0010400000028312206,0.003719999920576811,0.12011999636888504
6701.732887630706,1384182.0,0.02191999927163124,-0.0007699999841861427,0.0027699999045580626,0.11429999768733978
6701.733887402921,1384183.0,0.022059999406337738,0.005630000028759241,-0.002090000081807375,0.11525999754667282
6701.734887175136,1384184.0,0.023180000483989716,0.0002699999895412475,-0.0031300000846385956,0.12103000283241272
6701.735886947351,1384185.0,0.023269999772310257,0.003590000094845891,0.0022700000554323196,0.11841999739408493
6701.736886719566,1384186.0,0.02215000055730343,0.00014000000373926014,-0.0003600000054575503,0.1116499975323677
6701.737886491782,1384187.0,0.01882000081241131,0.00014000000373926014,-0.002950000111013651,0.11429999768733978
6701.738886263997,1384188.0,0.015540000051259995,0.002589999930933118,0.004410000052303076,0.11823999881744385
6701.739886036212,1384189.0,0.009789999574422836,0.005679999943822622,0.005950000137090683,0.11631999909877777
6701.740885808427,1384190.0,0.0028800000436604023,0.00686000008136034,0.00203999993391335,0.10963000357151031
6701.741885580643,1384191.0,-0.00800000037997961,0.0059899999760091305,-0.0017300000181421638,0.10982000082731247
6701.742885352858,1384192.0,-0.021740000694990158,0.0010400000028312206,0.00014000000373926014,0.11641000211238861
6701.743885125074,1384193.0,-0.030549999326467514,0.0021299999207258224,0.00031999999191612005,0.11457999795675278
6701.744884897289,1384194.0,-0.032430000603199005,-0.000859999970998615,-0.00203999993391335,0.10812000185251236
6701.7458846695035,1384195.0,-0.027130000293254852,-0.00875999964773655,-0.0027699999045580626,0.11348000168800354
6701.746884441719,1384196.0,-0.017389999702572823,-0.006719999946653843,-0.0011399999493733048,0.11348000168800354
6701.747884213934,1384197.0,-0.005929999984800816,-0.00686000008136034,-0.004720000084489584,0.10578999668359756
6701.74888398615,1384198.0,0.007410000078380108,-0.005489999894052744,-0.00494999997317791,0.10734999924898148
6701.749883758365,1384199.0,0.019680000841617584,-0.0013200000394135714,0.0012700000079348683,0.1131099984049797
6701.75088353058,1384200.0,0.028389999642968178,-0.00203999993391335,0.004269999917596579,0.11201000213623047
6701.751883302795,1384201.0,0.0350399985909462,-0.000590000010561198,0.00203999993391335,0.11072999984025955
6701.752883075011,1384202.0,0.03765000030398369,0.0036299999337643385,0.0022700000554323196,0.1092199981212616
6701.753882847226,1384203.0,0.038589999079704285,0.002630000002682209,0.00031999999191612005,0.10363999754190445
6701.754882619442,1384204.0,0.039170000702142715,0.00267999991774559,0.0017300000181421638,0.10340999811887741
6701.755882391656,1384205.0,0.037780001759529114,0.0008200000156648457,0.00031999999191612005,0.10249000042676926
6701.7568821638715,1384206.0,0.03359999880194664,0.0016799999866634607,-0.0007699999841861427,0.10286000370979309
6701.757881936087,1384207.0,0.030640000477433205,0.004809999838471413,-0.0011399999493733048,0.10648000240325928
6701.758881708302,1384208.0,0.03037000074982643,0.002319999970495701,-0.0021299999207258224,0.10976999998092651
6701.759881480518,1384209.0,0.02676999941468239,0.006130000110715628,0.0010400000028312206,0.10822000354528427
6701.760881252733,1384210.0,0.015540000051259995,0.004000000189989805,-0.0019099999917671084,0.10578999668359756
6701.761881024948,1384211.0,0.0017999999690800905,0.006399999838322401,0.005179999861866236,0.09993000328540802
6701.762880797163,1384212.0,-0.0083600003272295,0.004860000219196081,0.0007699999841861427,0.09993000328540802
6701.763880569379,1384213.0,-0.014550000429153442,0.0030900000128895044,0.00031999999191612005,0.10610999912023544
6701.764880341594,1384214.0,-0.017389999702572823,0.00203999993391335,-0.0031300000846385956,0.10491999983787537
6701.7658801138095,1384215.0,-0.01607999950647354,-0.0064500002190470695,-0.004540000110864639,0.10312999784946442
6701.766879886024,1384216.0,-0.008630000054836273,-0.007899999618530273,-0.0034099998883903027,0.09764000028371811
6701.7678796582395,1384217.0,0.002520000096410513,-0.0037700000684708357,0.0036800000816583633,0.10042999684810638
6701.768879430455,1384218.0,0.013340000063180923,-0.006039999891072512,-0.0010000000474974513,0.10409999638795853
6701.76987920267,1384219.0,0.02191999927163124,-0.004769999999552965,0.0021299999207258224,0.10162000358104706
6701.770878974886,1384220.0,0.02848000079393387,0.00203999993391335,-0.00267999991774559,0.09516999870538712
6701.7718787471,1384221.0,0.03109000064432621,0.0014100000262260437,-0.004000000189989805,0.09640999883413315
6701.772878519316,1384222.0,0.03359999880194664,-4.999999873689376e-05,0.00031999999191612005,0.10281000286340714
6701.773878291531,1384223.0,0.033240001648664474,-9.000000136438757e-05,0.0016299999551847577,0.1011200025677681
6701.774878063747,1384224.0,0.03172000125050545,0.0021299999207258224,0.0019499999471008778,0.09311000257730484
6701.775877835962,1384225.0,0.030729999765753746,0.0018599999602884054,-0.0044999998062849045,0.09261000156402588
6701.7768776081775,1384226.0,0.025919999927282333,0.004679999779909849,-0.002630000002682209,0.09668000042438507
6701.777877380392,1384227.0,0.020840000361204147,0.005270000081509352,-0.0028200000524520874,0.09993000328540802
6701.7788771526075,1384228.0,0.01720999926328659,0.0018599999602884054,0.002319999970495701,0.09662999957799911
6701.779876924823,1384229.0,0.012670000083744526,0.004449999891221523,0.00031999999191612005,0.091279998421669
6701.780876697038,1384230.0,0.006380000151693821,0.00418000016361475,0.004310000222176313,0.09562999755144119
6701.781876469254,1384231.0,0.0003100000030826777,0.006949999835342169,0.00031999999191612005,0.09681999683380127
6701.782876241468,1384232.0,-0.006870000157505274,0.003909999970346689,-0.0005000000237487257,0.09407000243663788
6701.783876013684,1384233.0,-0.015270000323653221,0.0002300000051036477,0.004040000028908253,0.0888499990105629
6701.784875785899,1384234.0,-0.018869999796152115,-0.003809999907389283,-0.002090000081807375,0.0921500027179718
6701.785875558115,1384235.0,-0.015180000104010105,-0.004220000002533197,-0.006399999838322401,0.094760000705719
6701.78687533033,1384236.0,-0.00803999975323677,-0.008580000139772892,-0.0036299999337643385,0.08675000071525574
6701.7878751025455,1384237.0,9.000000136438757e-05,-0.004769999999552965,-0.0014100000262260437,0.0871099978685379
6701.78887487476,1384238.0,0.009340000338852406,-0.0024500000290572643,0.004089999943971634,0.08985999971628189
6701.7898746469755,1384239.0,0.019859999418258667,-0.0051299999468028545,0.004089999943971634,0.09269999712705612
6701.790874419191,1384240.0,0.03009999915957451,-0.003449999960139394,0.00031999999191612005,0.09003999829292297
6701.791874191406,1384241.0,0.03522000089287758,-0.00044999999227002263,0.00418000016361475,0.08472999930381775
6701.792873963622,1384242.0,0.03674999997019768,0.003949999809265137,0.0036299999337643385,0.08417999744415283
6701.793873735836,1384243.0,0.03589000180363655,0.0013599999947473407,0.0008200000156648457,0.08382000029087067
6701.794873508052,1384244.0,0.03468000143766403,0.00031999999191612005,0.0008200000156648457,0.08290000259876251
6701.795873280267,1384245.0,0.03319999948143959,0.003539999946951866,0.001180000021122396,0.08271999657154083
6701.796873052483,1384246.0,0.032519999891519547,0.002859999891370535,0.00031999999191612005,0.0823500007390976
6701.797872824698,1384247.0,0.03162999823689461,0.0020000000949949026,0.0027199999894946814,0.08124999701976776
6701.7988725969135,1384248.0,0.028529999777674675,0.0030400000978261232,0.0030900000128895044,0.08070000261068344
6701.799872369128,1384249.0,0.022369999438524246,0.004040000028908253,-4.999999873689376e-05,0.08803000301122665
6701.8008721413435,1384250.0,0.012889999896287918,0.003000000026077032,-0.002950000111013651,0.08629000186920166
6701.801871913559,1384251.0,0.0003100000030826777,0.0044999998062849045,-0.0018599999602884054,0.07942000031471252
6701.802871685774,1384252.0,-0.012129999697208405,0.0024500000290572643,0.00031999999191612005,0.07924000173807144
6701.80387145799,1384253.0,-0.02022000029683113,0.002589999930933118,-0.001500000013038516,0.07855000346899033
6701.804871230204,1384254.0,-0.024800000712275505,-0.0013200000394135714,-0.0013200000394135714,0.0808899998664856
6701.80587100242,1384255.0,-0.02425999939441681,-0.002589999930933118,-0.0033599999733269215,0.08472999930381775
6701.806870774635,1384256.0,-0.016939999535679817,-0.0063599999994039536,-0.00041000000783242285,0.08199000358581543
6701.807870546851,1384257.0,-0.006240000016987324,-0.007079999893903732,0.00031999999191612005,0.07603000104427338
6701.808870319066,1384258.0,0.004939999897032976,-0.007040000054985285,0.0027199999894946814,0.07648999989032745
6701.8098700912815,1384259.0,0.016979999840259552,-0.005950000137090683,0.0027699999045580626,0.08286000043153763
6701.810869863496,1384260.0,0.02425999939441681,-0.002859999891370535,0.00031999999191612005,0.07964999973773956
6701.811869635711,1384261.0,0.02515999972820282,0.002859999891370535,-0.00041000000783242285,0.07365000247955322
6701.812869407927,1384262.0,0.022509999573230743,0.002360000042244792,-0.0033199999015778303,0.07429999858140945
6701.813869180142,1384263.0,0.02022000029683113,0.004999999888241291,0.0035000001080334187,0.08079999685287476
6701.814868952358,1384264.0,0.019050000235438347,0.004129999782890081,0.0015899999998509884,0.07717999815940857
6701.815868724572,1384265.0,0.02012999914586544,0.006130000110715628,0.00031999999191612005,0.07131999731063843
6701.816868496788,1384266.0,0.022910000756382942,0.006130000110715628,-0.004900000058114529,0.07786999642848969
6701.817868269003,1384267.0,0.024620000272989273,-0.0019099999917671084,-0.0031300000846385956,0.07131999731063843
6701.818868041219,1384268.0,0.026410000398755074,-0.001500000013038516,0.004269999917596579,0.07744999974966049
6701.819867813434,1384269.0,0.02314000017940998,0.005040000192821026,-4.999999873689376e-05,0.06962999701499939
6701.820867585649,1384270.0,0.017430000007152557,0.004629999864846468,-0.00203999993391335,0.07686000317335129
6701.821867357864,1384271.0,0.00872000027447939,0.006130000110715628,-0.0028200000524520874,0.0686199963092804
6701.822867130079,1384272.0,-0.000539999979082495,0.0021800000686198473,-0.002950000111013651,0.07457000017166138
6701.823866902295,1384273.0,-0.006649999879300594,0.00018000000272877514,0.00031999999191612005,0.06769999861717224
6701.82486667451,1384274.0,-0.00773000018671155,-0.0006799999973736703,0.002409999957308173,0.07062999904155731
6701.825866446726,1384275.0,-0.0022899999748915434,-0.0019099999917671084,-0.0022299999836832285,0.07173000276088715
6701.82686621894,1384276.0,0.007910000160336494,-0.0024500000290572643,-0.0018599999602884054,0.06820999830961227
6701.827865991156,1384277.0,0.017969999462366104,-0.0016299999551847577,0.000910000002477318,0.07150000333786011
6701.828865763371,1384278.0,0.028389999642968178,-0.004809999838471413,-0.0013200000394135714,0.06550999730825424
6701.829865535587,1384279.0,0.03773999959230423,-0.005630000028759241,0.001769999973475933,0.07035999745130539
6701.830865307802,1384280.0,0.04374999925494194,-0.0008200000156648457,-0.001820000004954636,0.065140001475811
6701.8318650800165,1384281.0,0.04631999880075455,0.00014000000373926014,-0.0010000000474974513,0.06981000304222107
6701.832864852232,1384282.0,0.04726000130176544,-0.0014100000262260437,0.0013200000394135714,0.06280999630689621
6701.833864624447,1384283.0,0.0456399992108345,0.001769999973475933,-0.00044999999227002263,0.06984999775886536
6701.834864396663,1384284.0,0.044110000133514404,0.003220000071451068,0.000859999970998615,0.06317000091075897
6701.835864168878,1384285.0,0.044429998844861984,0.003719999920576811,0.002360000042244792,0.06931000202894211
6701.836863941093,1384286.0,0.04627000167965889,0.001769999973475933,-0.0016799999866634607,0.061799999326467514
6701.837863713308,1384287.0,0.04428999871015549,-0.00018000000272877514,-0.0044999998062849045,0.065870001912117
6701.838863485524,1384288.0,0.04056999832391739,-0.0007300000288523734,0.003220000071451068,0.06560000032186508
6701.839863257739,1384289.0,0.034860000014305115,0.004410000052303076,0.006130000110715628,0.06029000133275986
6701.840863029955,1384290.0,0.025429999455809593,0.0045900000259280205,0.00031999999191612005,0.06633000075817108
6701.84186280217,1384291.0,0.013249999843537807,0.008580000139772892,-0.0013200000394135714,0.058639999479055405
6701.8428625743845,1384292.0,0.004040000028908253,0.004129999782890081,-0.00203999993391335,0.06638000160455704
6701.8438623466,1384293.0,-0.00013000000035390258,-0.0013599999947473407,0.00267999991774559,0.05891000106930733
6701.844862118815,1384294.0,-0.00018000000272877514,4.999999873689376e-05,-0.000859999970998615,0.06522999703884125
6701.845861891031,1384295.0,0.0016599999507889152,-0.00267999991774559,-0.003539999946951866,0.057819999754428864
6701.846861663246,1384296.0,0.00800000037997961,-0.004040000028908253,-0.0027699999045580626,0.06322000175714493
6701.847861435461,1384297.0,0.016440000385046005,-0.006089999806135893,0.002630000002682209,0.058639999479055405
6701.848861207676,1384298.0,0.02848000079393387,-0.004769999999552965,0.00031999999191612005,0.05992000177502632
6701.849860979892,1384299.0,0.041600000113248825,-0.005950000137090683,-0.0029100000392645597,0.0609700009226799
6701.850860752107,1384300.0,0.05000000074505806,-0.005590000189840794,-0.000590000010561198,0.05731000006198883
6701.851860524323,1384301.0,0.05480999872088432,-4.999999873689376e-05,-0.0020000000949949026,0.06061000004410744
6701.852860296538,1384302.0,0.05696000158786774,0.0016299999551847577,0.00494999997317791,0.05561999976634979
6701.8538600687525,1384303.0,0.055390000343322754,0.0024999999441206455,0.0016299999551847577,0.05493000149726868
6701.854859840968,1384304.0,0.05121000111103058,0.004269999917596579,-0.0031799999997019768,0.06139000132679939
6701.855859613183,1384305.0,0.047529999166727066,0.003220000071451068,-0.0011399999493733048,0.05835999920964241
6701.856859385399,1384306.0,0.04464999958872795,-0.0009500000160187483,0.0033599999733269215,0.053380001336336136
6701.857859157614,1384307.0,0.042500000447034836,-0.0006399999838322401,-0.003539999946951866,0.05483999848365784
6701.858858929829,1384308.0,0.04187000170350075,0.005040000192821026,-0.0020000000949949026,0.059780001640319824
6701.859858702044,1384309.0,0.039799999445676804,0.004040000028908253,0.0018599999602884054,0.05745000019669533
6701.86085847426,1384310.0,0.03423000127077103,0.0052200001664459705,0.0015399999683722854,0.052319999784231186
6701.861858246475,1384311.0,0.027130000293254852,0.0037700000684708357,0.00031999999191612005,0.05121999979019165
6701.8628580186905,1384312.0,0.018869999796152115,0.0024999999441206455,-0.0007699999841861427,0.05745000019669533
6701.863857790906,1384313.0,0.013120000250637531,0.0018599999602884054,-0.005539999809116125,0.05663000047206879
6701.8648575631205,1384314.0,0.011140000075101852,0.0010900000343099236,-0.004040000028908253,0.054430000483989716
6701.865857335336,1384315.0,0.014469999819993973,-0.004269999917596579,0.0029100000392645597,0.04966999962925911
6701.866857107551,1384316.0,0.022190000861883163,-0.004040000028908253,0.0007300000288523734,0.04926000162959099
6701.867856879767,1384317.0,0.029650000855326653,-0.006769999861717224,-9.000000136438757e-05,0.055160000920295715
6701.868856651982,1384318.0,0.03799999877810478,-0.0029100000392645597,-0.004129999782890081,0.05406000092625618
6701.869856424197,1384319.0,0.04631999880075455,-0.003860000055283308,0.0014100000262260437,0.04842999950051308
6701.870856196412,1384320.0,0.05364000052213669,-0.0002300000051036477,0.0027199999894946814,0.04715000092983246
6701.871855968628,1384321.0,0.05776999890804291,-0.0035000001080334187,0.002409999957308173,0.054019998759031296
6701.872855740843,1384322.0,0.058490000665187836,0.000859999970998615,0.000859999970998615,0.05195999890565872
6701.8738555130585,1384323.0,0.058090001344680786,0.0022700000554323196,0.0021299999207258224,0.045729998499155045
6701.874855285274,1384324.0,0.059300001710653305,0.0030400000978261232,0.004449999891221523,0.046459998935461044
6701.8758550574885,1384325.0,0.05714000016450882,0.0044999998062849045,-0.0009500000160187483,0.05218999832868576
6701.876854829704,1384326.0,0.05400000140070915,0.00267999991774559,-0.0035000001080334187,0.050540000200271606
6701.877854601919,1384327.0,0.05040000006556511,0.0018599999602884054,-0.004809999838471413,0.044679999351501465
6701.878854374135,1384328.0,0.047839999198913574,0.0010400000028312206,0.0024500000290572643,0.043529998511075974
6701.87985414635,1384329.0,0.04056999832391739,0.007670000195503235,0.000910000002477318,0.0488400012254715
6701.880853918565,1384330.0,0.02928999997675419,0.006719999946653843,0.002360000042244792,0.049300000071525574
6701.88185369078,1384331.0,0.017340000718832016,0.0021299999207258224,-0.0008200000156648457,0.047200001776218414
6701.882853462996,1384332.0,0.00773000018671155,0.006039999891072512,-9.000000136438757e-05,0.04633000120520592
6701.883853235211,1384333.0,0.0015300000086426735,0.0014100000262260437,-0.005489999894052744,0.04134000092744827
6701.8848530074265,1384334.0,-0.0017999999690800905,-0.001449999981559813,-0.005900000222027302,0.04134000092744827
6701.885852779641,1384335.0,-0.0017500000540167093,0.0008200000156648457,-0.002950000111013651,0.04050999879837036
6701.8868525518565,1384336.0,0.004449999891221523,-0.007809999864548445,-0.0018599999602884054,0.04280000180006027
6701.887852324072,1384337.0,0.014059999957680702,-0.004860000219196081,0.002859999891370535,0.045910000801086426
6701.888852096287,1384338.0,0.023089999333024025,-0.009039999917149544,0.0027699999045580626,0.03996000066399574
6701.889851868503,1384339.0,0.03149000182747841,-0.0051299999468028545,-0.005309999920427799,0.03891000151634216
6701.890851640718,1384340.0,0.036570001393556595,-0.002589999930933118,-0.0019099999917671084,0.04024000093340874
6701.891851412933,1384341.0,0.03773999959230423,0.0017300000181421638,0.00031999999191612005,0.04399000108242035
6701.892851185148,1384342.0,0.036479998379945755,0.002950000111013651,-0.00041000000783242285,0.044270001351833344
6701.893850957364,1384343.0,0.034860000014305115,0.0037700000684708357,0.00031999999191612005,0.04390000179409981
6701.894850729579,1384344.0,0.034049998968839645,-0.0009500000160187483,0.00031999999191612005,0.04114999994635582
6701.8958505017945,1384345.0,0.029740000143647194,0.002859999891370535,-0.0002300000051036477,0.035930000245571136
6701.896850274009,1384346.0,0.025790000334382057,0.000910000002477318,-0.0007699999841861427,0.03799000009894371
6701.897850046224,1384347.0,0.02443999983370304,0.002319999970495701,-0.000910000002477318,0.041839998215436935
6701.89884981844,1384348.0,0.021290000528097153,-0.0020000000949949026,0.002859999891370535,0.035930000245571136
6701.899849590655,1384349.0,0.011769999749958515,0.005489999894052744,-0.001820000004954636,0.03455999866127968
6701.900849362871,1384350.0,0.0025599999353289604,0.0044999998062849045,-0.0028200000524520874,0.03951000049710274
6701.901849135085,1384351.0,-0.004310000222176313,0.009580000303685665,0.006039999891072512,0.03821999952197075
6701.902848907301,1384352.0,-0.009340000338852406,0.00203999993391335,0.00031999999191612005,0.03310000151395798
6701.903848679516,1384353.0,-0.012310000136494637,0.004220000002533197,-0.006130000110715628,0.037629999220371246
6701.904848451732,1384354.0,-0.014290000312030315,-0.0022299999836832285,0.003809999907389283,0.03652999922633171
6701.905848223947,1384355.0,-0.01343000028282404,-0.0027199999894946814,-0.0019099999917671084,0.031769998371601105
6701.9068479961625,1384356.0,-0.009700000286102295,-0.009220000356435776,-0.0011399999493733048,0.035110000520944595
6701.907847768377,1384357.0,-0.0037700000684708357,-0.00749000022187829,-0.0036800000816583633,0.03548000007867813
6701.908847540592,1384358.0,0.0028800000436604023,-0.004769999999552965,-0.00044999999227002263,0.02961999922990799
6701.909847312808,1384359.0,0.011500000022351742,-0.003860000055283308,-0.002360000042244792,0.03474000096321106
6701.910847085023,1384360.0,0.015720000490546227,0.0022299999836832285,-0.002589999930933118,0.03452000021934509
6701.911846857239,1384361.0,0.017740000039339066,0.00031999999191612005,0.00014000000373926014,0.029069999232888222
6701.912846629453,1384362.0,0.017470000311732292,0.0021299999207258224,0.00686000008136034,0.034060001373291016
6701.913846401669,1384363.0,0.017880000174045563,0.0021299999207258224,0.0059899999760091305,0.031860001385211945
6701.914846173884,1384364.0,0.018149999901652336,0.00031999999191612005,0.0019099999917671084,0.027049999684095383
6701.9158459461,1384365.0,0.018729999661445618,0.001769999973475933,-0.0012700000079348683,0.028149999678134918
6701.916845718315,1384366.0,0.02022000029683113,-0.001500000013038516,-0.002589999930933118,0.03282000124454498
6701.91784549053,1384367.0,0.02053000032901764,-0.0020000000949949026,-0.0019499999471008778,0.02961999922990799
6701.918845262745,1384368.0,0.019139999523758888,0.00031999999191612005,-0.0016799999866634607,0.025539999827742577
6701.91984503496,1384369.0,0.012439999729394913,0.0044999998062849045,0.004679999779909849,0.026690000668168068
6701.920844807176,1384370.0,0.002520000096410513,0.007400000002235174,-0.001500000013038516,0.028519999235868454
6701.921844579391,1384371.0,-0.008630000054836273,0.004679999779909849,-0.001230000052601099,0.023669999092817307
6701.922844351607,1384372.0,-0.01769999973475933,0.0071299998089671135,-0.0024500000290572643,0.029069999232888222
6701.923844123821,1384373.0,-0.025520000606775284,0.00031999999191612005,-0.0033199999015778303,0.022379999980330467
6701.924843896037,1384374.0,-0.0301900003105402,-0.0022299999836832285,0.0020000000949949026,0.02855999954044819
6701.925843668252,1384375.0,-0.03009999915957451,-0.004089999943971634,0.00203999993391335,0.021929999813437462
6701.926843440468,1384376.0,-0.023360000923275948,-0.0044999998062849045,0.00031999999191612005,0.027650000527501106
6701.927843212683,1384377.0,-0.013570000417530537,-0.00803999975323677,-0.004629999864846468,0.0210999995470047
6701.928842984898,1384378.0,-0.006920000072568655,-0.004269999917596579,-0.004769999999552965,0.026690000668168068
6701.929842757113,1384379.0,-0.0017999999690800905,-0.0036800000816583633,0.001449999981559813,0.019869999960064888
6701.930842529328,1384380.0,0.004399999976158142,0.0021299999207258224,0.001230000052601099,0.026089999824762344
6701.931842301544,1384381.0,0.006920000072568655,0.00031999999191612005,0.003719999920576811,0.019130000844597816
6701.932842073759,1384382.0,0.006289999932050705,0.00494999997317791,0.0008200000156648457,0.024720000103116035
6701.933841845975,1384383.0,0.0037700000684708357,0.001449999981559813,-0.0020000000949949026,0.021740000694990158
6701.934841618189,1384384.0,-0.0011699999449774623,0.002319999970495701,0.00031999999191612005,0.016850000247359276
6701.935841390405,1384385.0,-0.005570000037550926,0.002859999891370535,-0.00031999999191612005,0.02256999909877777
6701.93684116262,1384386.0,-0.007009999826550484,0.005900000222027302,0.0017300000181421638,0.02142000012099743
6701.937840934836,1384387.0,-0.006649999879300594,9.000000136438757e-05,-0.0003600000054575503,0.01607000082731247
6701.938840707051,1384388.0,-0.007319999858736992,0.0010400000028312206,-0.002360000042244792,0.01752999983727932
6701.939840479266,1384389.0,-0.01221999991685152,0.00031999999191612005,-0.0016799999866634607,0.021150000393390656
6701.940840251481,1384390.0,-0.018959999084472656,0.00839999970048666,0.005489999894052744,0.01534000039100647
6701.941840023696,1384391.0,-0.02694999985396862,0.0052200001664459705,-0.003269999986514449,0.013410000130534172
6701.942839795912,1384392.0,-0.03570999950170517,0.004129999782890081,-0.001230000052601099,0.0203699991106987
6701.943839568127,1384393.0,-0.0408799983561039,-0.0016799999866634607,0.00494999997317791,0.017349999397993088
6701.944839340343,1384394.0,-0.04276999831199646,-0.00041000000783242285,0.0010000000474974513,0.012269999831914902
6701.945839112557,1384395.0,-0.039980001747608185,-0.0051299999468028545,-0.004809999838471413,0.018400000408291817
6701.946838884773,1384396.0,-0.03338000178337097,-0.00839999970048666,-0.002090000081807375,0.015790000557899475
6701.947838656988,1384397.0,-0.02425999939441681,-0.00803999975323677,0.001769999973475933,0.010759999975562096
6701.9488384292035,1384398.0,-0.013930000364780426,-0.0019499999471008778,-0.0002300000051036477,0.016249999403953552
6701.949838201419,1384399.0,-0.0047599999234080315,-0.005900000222027302,-0.002950000111013651,0.01534000039100647
6701.9508379736335,1384400.0,0.0031399999279528856,-0.001820000004954636,0.0009500000160187483,0.010479999706149101
6701.951837745849,1384401.0,0.00773000018671155,-0.0011399999493733048,-0.0003600000054575503,0.012769999913871288
6701.952837518064,1384402.0,0.0088900001719594,0.0045900000259280205,-0.001230000052601099,0.014919999986886978
6701.95383729028,1384403.0,0.008799999952316284,0.00031999999191612005,-0.0007300000288523734,0.008609999902546406
6701.954837062495,1384404.0,0.0083600003272295,0.003719999920576811,0.0015899999998509884,0.008740000426769257
6701.955836834711,1384405.0,0.009569999761879444,0.004360000137239695,0.0034099998883903027,0.013779999688267708
6701.956836606925,1384406.0,0.011500000022351742,0.00031999999191612005,-0.0018599999602884054,0.007639999967068434
6701.957836379141,1384407.0,0.011140000075101852,0.0045900000259280205,-0.0030900000128895044,0.006130000110715628
6701.958836151356,1384408.0,0.009569999761879444,-0.00267999991774559,0.004410000052303076,0.012409999966621399
6701.9598359235715,1384409.0,0.004579999949783087,0.005770000163465738,0.00031999999191612005,0.006730000022798777
6701.960835695787,1384410.0,-0.004089999943971634,0.0010400000028312206,-0.0016799999866634607,0.0052200001664459705
6701.9618354680015,1384411.0,-0.012889999896287918,0.009039999917149544,0.004449999891221523,0.011260000057518482
6701.962835240217,1384412.0,-0.02281999960541725,0.0027699999045580626,-0.0031300000846385956,0.005040000192821026
6701.963835012432,1384413.0,-0.03198999911546707,0.00267999991774559,-0.0044999998062849045,0.004170000087469816
6701.964834784648,1384414.0,-0.03872000053524971,0.0014100000262260437,0.004410000052303076,0.009479999542236328
6701.965834556863,1384415.0,-0.037289999425411224,-0.006810000166296959,-0.0005000000237487257,0.003659999929368496
6701.966834329078,1384416.0,-0.028750000521540642,-0.002589999930933118,-0.004360000137239695,0.002749999985098839
6701.967834101293,1384417.0,-0.018149999901652336,-0.006579999811947346,0.00267999991774559,0.008740000426769257
6701.968833873509,1384418.0,-0.005840000230818987,-0.005900000222027302,-0.001180000021122396,0.00279000005684793
6701.969833645724,1384419.0,0.006060000043362379,-0.0071299998089671135,-0.0027199999894946814,0.0016899999463930726
6701.9708334179395,1384420.0,0.012310000136494637,-0.00041000000783242285,-0.003860000055283308,0.006870000157505274
6701.971833190155,1384421.0,0.01221999991685152,-0.0010400000028312206,-9.000000136438757e-05,0.0014199999859556556
6701.9728329623695,1384422.0,0.012400000356137753,0.000859999970998615,0.002859999891370535,0.00031999999191612005
6701.973832734585,1384423.0,0.009429999627172947,0.003220000071451068,0.001449999981559813,0.005909999832510948
6701.9748325068,1384424.0,0.0008999999845400453,-0.0002300000051036477,-0.0008200000156648457,0.0010100000072270632
6701.975832279016,1384425.0,-0.0071000000461936,0.0034099998883903027,0.005179999861866236,-0.0012400000123307109
6701.976832051231,1384426.0,-0.010379999876022339,0.0021299999207258224,0.002409999957308173,0.004170000087469816
6701.977831823446,1384427.0,-0.007319999858736992,0.002859999891370535,-0.0033199999015778303,0.001970000099390745
6701.978831595661,1384428.0,-0.004490000195801258,-0.0010400000028312206,0.0031300000846385956,-0.0029800001066178083
6701.979831367877,1384429.0,-0.007009999826550484,0.0044999998062849045,0.0016299999551847577,0.00014000000373926014
6701.980831140092,1384430.0,-0.014469999819993973,0.005539999809116125,-0.0030900000128895044,0.002240000059828162
6701.9818309123075,1384431.0,-0.023900000378489494,0.005679999943822622,-0.0010400000028312206,-0.0029800001066178083
6701.982830684523,1384432.0,-0.032340001314878464,0.003220000071451068,-0.0019099999917671084,-0.004809999838471413
6701.983830456737,1384433.0,-0.03985000029206276,0.001180000021122396,0.002630000002682209,0.0010499999625608325
6701.984830228953,1384434.0,-0.04100999981164932,0.00031999999191612005,-0.0013200000394135714,-4.999999873689376e-05
6701.985830001168,1384435.0,-0.03863000124692917,-0.005950000137090683,-0.0052200001664459705,-0.0048500001430511475
6701.986829773384,1384436.0,-0.031220000237226486,-0.006310000084340572,-0.003860000055283308,-0.006500000134110451
6701.987829545599,1384437.0,-0.020479999482631683,-0.010130000300705433,0.0010000000474974513,-0.0002699999895412475
6701.988829317814,1384438.0,-0.008179999887943268,-0.0036800000816583633,0.00031999999191612005,-0.0024300001095980406
6701.989829090029,1384439.0,0.0014799999771639705,-0.004310000222176313,-0.00044999999227002263,-0.007189999800175428
6701.990828862245,1384440.0,0.009519999846816063,-0.0022299999836832285,-0.0011399999493733048,-0.00394000019878149
6701.99182863446,1384441.0,0.01508999988436699,0.003860000055283308,0.004310000222176313,-0.002749999985098839
6701.9928284066755,1384442.0,0.01931999996304512,0.003719999920576811,0.0031300000846385956,-0.00750999990850687
6701.993828178891,1384443.0,0.02102000080049038,0.003220000071451068,-0.0003600000054575503,-0.00791999977082014
6701.994827951105,1384444.0,0.02111000008881092,0.005630000028759241,0.0017300000181421638,-0.003019999945536256
6701.995827723321,1384445.0,0.020390000194311142,-0.000539999979082495,0.0021299999207258224,-0.005810000002384186
6701.996827495536,1384446.0,0.022460000589489937,-0.000859999970998615,-0.0020000000949949026,-0.010300000198185444
6701.997827267752,1384447.0,0.026319999247789383,0.0045900000259280205,-0.005489999894052744,-0.006320000160485506
6701.998827039967,1384448.0,0.028300000354647636,-0.002630000002682209,0.003220000071451068,-0.008700000122189522
6701.999826812182,1384449.0,0.023180000483989716,0.0083600003272295,0.0002300000051036477,-0.007369999773800373
6702.000826584397,1384450.0,0.0142000000923872,0.0044999998062849045,-0.002319999970495701,-0.01080000028014183
6702.001826356613,1384451.0,0.007009999826550484,0.008990000002086163,0.00031999999191612005,-0.008150000125169754
6702.002826128828,1384452.0,-0.0016199999954551458,0.003220000071451068,0.003539999946951866,-0.01066999975591898
6702.0038259010435,1384453.0,-0.010379999876022339,0.00031999999191612005,-0.004410000052303076,-0.009200000204145908
6702.004825673259,1384454.0,-0.018279999494552612,0.003220000071451068,-0.004040000028908253,-0.009979999624192715
6702.005825445473,1384455.0,-0.023000000044703484,-0.005489999894052744,0.001230000052601099,-0.01006999984383583
6702.006825217689,1384456.0,-0.020980000495910645,-0.007269999943673611,-0.0021800000686198473,-0.013919999822974205
6702.007824989904,1384457.0,-0.012489999644458294,-0.006399999838322401,-0.004410000052303076,-0.009979999624192715
6702.00882476212,1384458.0,-0.0026100000832229853,-0.005270000081509352,-0.001500000013038516,-0.013500000350177288
6702.009824534335,1384459.0,0.003949999809265137,-0.004809999838471413,0.005590000189840794,-0.010850000195205212
6702.01082430655,1384460.0,0.007770000025629997,0.001230000052601099,0.0024999999441206455,-0.015110000036656857
6702.011824078765,1384461.0,0.011370000429451466,-0.001820000004954636,-0.002589999930933118,-0.010940000414848328
6702.012823850981,1384462.0,0.013120000250637531,0.00031999999191612005,0.0022700000554323196,-0.017030000686645508
6702.013823623196,1384463.0,0.012620000168681145,0.001769999973475933,0.0034099998883903027,-0.011490000411868095
6702.014823395411,1384464.0,0.010780000127851963,0.00267999991774559,0.0002699999895412475,-0.01616000011563301
6702.015823167626,1384465.0,0.008179999887943268,0.003220000071451068,-0.006949999835342169,-0.018039999529719353
6702.016822939841,1384466.0,0.006560000125318766,0.003220000071451068,0.005309999920427799,-0.011950000189244747
6702.017822712057,1384467.0,0.005619999952614307,0.002319999970495701,0.0034099998883903027,-0.014469999819993973
