LSL_Time,PLUX_P2_nSeq,PLUX_P2_ECG0,PLUX_P2_EMG1,PLUX_P2_EMG2,PLUX_P2_RIP3
6636.820020752725,1320405.0,-0.0027000000700354576,-0.00880999956279993,0.0021299999207258224,14.545000076293945
6636.821020524648,1320406.0,-0.006649999879300594,-0.011629999615252018,-0.0020000000949949026,14.621000289916992
6636.822020296571,1320407.0,-0.008980000391602516,-0.009809999726712704,-0.0030900000128895044,14.581000328063965
6636.823020068494,1320408.0,-0.008799999952316284,0.006719999946653843,0.0020000000949949026,14.605999946594238
6636.824019840416,1320409.0,-0.009610000066459179,0.019530000165104866,-0.000539999979082495,14.605999946594238
6636.825019612339,1320410.0,-0.008630000054836273,0.013810000382363796,-0.00418000016361475,14.593999862670898
6636.826019384262,1320411.0,-0.006560000125318766,0.004769999999552965,-0.0012700000079348683,14.458999633789062
6636.827019156184,1320412.0,-0.003590000094845891,-0.001449999981559813,0.0027199999894946814,14.770999908447266
6636.828018928108,1320413.0,-0.0007600000244565308,-0.003949999809265137,0.0002300000051036477,14.404000282287598
6636.82901870003,1320414.0,0.00022000000171829015,-0.007449999917298555,-0.0036800000816583633,14.404000282287598
6636.830018471953,1320415.0,0.00018000000272877514,-0.01988999918103218,-0.00949000008404255,14.368000030517578
6636.831018243875,1320416.0,-0.0008999999845400453,-0.021619999781250954,-0.005179999861866236,14.66100025177002
6636.832018015798,1320417.0,-0.000539999979082495,-0.015080000273883343,-0.007449999917298555,14.32800006866455
6636.8330177877215,1320418.0,0.000539999979082495,-0.013439999893307686,-0.0010400000028312206,14.840999603271484
6636.834017559644,1320419.0,0.0014400000218302011,0.0028200000524520874,0.003449999960139394,14.473999977111816
6636.835017331567,1320420.0,0.005210000090301037,0.008630000054836273,-0.001230000052601099,14.470999717712402
6636.836017103489,1320421.0,0.005210000090301037,0.008899999782443047,0.004360000137239695,14.772000312805176
6636.837016875412,1320422.0,0.003640000009909272,0.011629999615252018,0.004720000084489584,14.916999816894531
6636.838016647334,1320423.0,0.002520000096410513,0.007180000189691782,-0.0025400000158697367,14.70300006866455
6636.839016419258,1320424.0,0.001979999942705035,0.0021299999207258224,-0.004900000058114529,14.581000328063965
6636.84001619118,1320425.0,0.0023399998899549246,0.009720000438392162,-0.0016299999551847577,14.767000198364258
6636.841015963103,1320426.0,0.0008999999845400453,0.007079999893903732,0.007079999893903732,14.746000289916992
6636.842015735026,1320427.0,-0.000539999979082495,-0.000590000010561198,0.003909999970346689,14.788999557495117
6636.843015506948,1320428.0,-0.0023399998899549246,-0.0008200000156648457,0.008080000057816505,14.550999641418457
6636.844015278872,1320429.0,-0.0034099998883903027,-0.003809999907389283,0.00418000016361475,14.940999984741211
6636.845015050794,1320430.0,-0.0034099998883903027,-0.01834999956190586,-0.008539999835193157,14.789999961853027
6636.846014822717,1320431.0,-0.004129999782890081,-0.016759999096393585,-0.005859999917447567,14.99899959564209
6636.847014594639,1320432.0,-0.0053900000639259815,-0.00044999999227002263,0.010579999536275864,15.022000312805176
6636.848014366562,1320433.0,-0.0048500001430511475,0.006719999946653843,-0.003539999946951866,14.960000038146973
6636.8490141384855,1320434.0,-0.004129999782890081,0.004000000189989805,-0.003220000071451068,14.842000007629395
6636.850013910408,1320435.0,-0.004490000195801258,0.003269999986514449,-0.0018599999602884054,14.597000122070312
6636.851013682331,1320436.0,-0.003640000009909272,-0.003909999970346689,-0.00880999956279993,14.9350004196167
6636.852013454253,1320437.0,-0.0034099998883903027,-0.00041000000783242285,-0.00418000016361475,14.815999984741211
6636.853013226176,1320438.0,-0.0026100000832229853,0.02969999983906746,-0.005590000189840794,14.739999771118164
6636.854012998099,1320439.0,-0.00279000005684793,0.044319998472929,-0.011579999700188637,14.54800033569336
6636.855012770022,1320440.0,-0.0027000000700354576,0.04527999833226204,-0.004449999891221523,14.916999816894531
6636.856012541944,1320441.0,-0.0024300001095980406,0.013530000112950802,0.0033599999733269215,15.081999778747559
6636.857012313867,1320442.0,-0.0012600000482052565,-0.013439999893307686,-0.0030900000128895044,14.99899959564209
6636.85801208579,1320443.0,-0.00018000000272877514,-0.029839999973773956,0.005770000163465738,14.960000038146973
6636.859011857712,1320444.0,0.0007600000244565308,-0.035599999129772186,0.0013599999947473407,14.928000450134277
6636.860011629636,1320445.0,0.00039999998989515007,-0.018890000879764557,-0.010169999673962593,15.074000358581543
6636.861011401558,1320446.0,0.0008999999845400453,-0.015080000273883343,-0.0012700000079348683,14.975000381469727
6636.862011173481,1320447.0,0.0034099998883903027,-0.022299999371170998,0.001449999981559813,14.876999855041504
6636.863010945403,1320448.0,0.004490000195801258,-0.0017300000181421638,-0.00018000000272877514,15.111000061035156
6636.864010717326,1320449.0,0.004670000169426203,0.025520000606775284,0.00875999964773655,15.194999694824219
6636.8650104892495,1320450.0,0.005750000011175871,-0.0016299999551847577,0.004360000137239695,15.145999908447266
6636.866010261172,1320451.0,0.0064199999906122684,-0.028880000114440918,0.0016299999551847577,14.937999725341797
6636.867010033095,1320452.0,0.006289999932050705,-0.01744000054895878,0.007269999943673611,15.239999771118164
6636.868009805017,1320453.0,0.0034099998883903027,-0.008899999782443047,-0.0036299999337643385,15.032999992370605
6636.86900957694,1320454.0,0.0017999999690800905,-0.010490000247955322,-0.0063599999994039536,15.241999626159668
6636.870009348863,1320455.0,0.0016599999507889152,0.014580000191926956,0.004000000189989805,15.210000038146973
6636.871009120786,1320456.0,0.003100000089034438,0.021709999069571495,0.0006799999973736703,15.166999816894531
6636.872008892708,1320457.0,0.003590000094845891,0.013849999755620956,-0.000539999979082495,14.777000427246094
6636.873008664631,1320458.0,0.0034099998883903027,-0.0019499999471008778,-0.000910000002477318,15.093999862670898
6636.874008436554,1320459.0,0.0027000000700354576,-0.004900000058114529,-0.007269999943673611,15.180999755859375
6636.875008208477,1320460.0,0.0023399998899549246,-0.03142999857664108,-0.004900000058114529,15.053999900817871
6636.8760079804,1320461.0,0.002520000096410513,-0.03505999967455864,0.0,14.996000289916992
6636.877007752322,1320462.0,0.0024300001095980406,-0.03505999967455864,0.0051299999468028545,14.902000427246094
6636.878007524245,1320463.0,0.0031399999279528856,-0.018799999728798866,0.003949999809265137,15.218999862670898
6636.879007296167,1320464.0,0.004670000169426203,-0.016979999840259552,-0.006630000192672014,15.163000106811523
6636.88000706809,1320465.0,0.0048500001430511475,0.004679999779909849,0.000910000002477318,15.093999862670898
6636.8810068400135,1320466.0,0.004939999897032976,0.030150000005960464,-0.002360000042244792,15.208000183105469
6636.882006611936,1320467.0,0.005210000090301037,0.03274000063538551,-0.006719999946653843,15.16100025177002
6636.883006383859,1320468.0,0.0048500001430511475,0.027699999511241913,-0.0019099999917671084,15.178999900817871
6636.884006155781,1320469.0,0.004310000222176313,0.03297000005841255,-0.0034099998883903027,15.352999687194824
6636.885005927704,1320470.0,0.003949999809265137,0.026520000770688057,-0.010169999673962593,15.17199993133545
6636.886005699627,1320471.0,0.0027000000700354576,0.01689000055193901,-0.004900000058114529,15.062000274658203
6636.88700547155,1320472.0,0.0013500000350177288,0.005450000055134296,-0.006630000192672014,15.204000473022461
6636.888005243472,1320473.0,-0.000539999979082495,-0.002859999891370535,0.0007300000288523734,15.192999839782715
6636.889005015395,1320474.0,-0.0030499999411404133,0.003449999960139394,-0.00018000000272877514,15.25
6636.890004787318,1320475.0,-0.004000000189989805,-0.005179999861866236,-0.0006399999838322401,15.00100040435791
6636.89100455924,1320476.0,-0.0034099998883903027,-0.0030900000128895044,-0.001500000013038516,15.416999816894531
6636.892004331164,1320477.0,-0.0023399998899549246,-0.010990000329911709,0.004809999838471413,15.215999603271484
6636.893004103086,1320478.0,-0.0017099999822676182,-0.00953999999910593,0.002090000081807375,15.230999946594238
6636.894003875009,1320479.0,-0.0011699999449774623,-0.0020000000949949026,0.00535999983549118,15.277000427246094
6636.895003646931,1320480.0,0.00018000000272877514,-0.004540000110864639,0.006990000139921904,15.36299991607666
6636.896003418854,1320481.0,0.001979999942705035,0.000910000002477318,-0.00571999978274107,15.295000076293945
6636.8970031907775,1320482.0,0.0034099998883903027,0.003590000094845891,-0.004000000189989805,15.215999603271484
6636.8980029627,1320483.0,0.0035000001080334187,-0.0007699999841861427,-0.0019099999917671084,15.463000297546387
6636.899002734623,1320484.0,0.004129999782890081,-0.0019499999471008778,0.0013599999947473407,15.48799991607666
6636.900002506545,1320485.0,0.004490000195801258,-0.00795000046491623,-0.007079999893903732,15.430000305175781
6636.901002278468,1320486.0,0.0052999998442828655,-0.008539999835193157,0.000539999979082495,15.270999908447266
6636.902002050391,1320487.0,0.0065100002102553844,-0.003809999907389283,-0.004360000137239695,15.472000122070312
6636.903001822314,1320488.0,0.005929999984800816,-0.003809999907389283,0.0014100000262260437,15.38700008392334
6636.904001594236,1320489.0,0.005840000230818987,-0.007809999864548445,0.0030900000128895044,15.532999992370605
6636.905001366159,1320490.0,0.0048500001430511475,-0.005630000028759241,-0.006180000025779009,15.51200008392334
6636.906001138082,1320491.0,0.005929999984800816,-0.0022700000554323196,-0.004129999782890081,15.486000061035156
6636.907000910005,1320492.0,0.006289999932050705,0.0,0.0010900000343099236,15.244000434875488
6636.908000681928,1320493.0,0.00610999995842576,0.0033199999015778303,-0.006310000084340572,15.557999610900879
6636.90900045385,1320494.0,0.0053900000639259815,0.012079999782145023,-0.0030900000128895044,15.38700008392334
6636.910000225773,1320495.0,0.004129999782890081,0.0002699999895412475,0.0017300000181421638,15.548999786376953
6636.910999997695,1320496.0,0.003280000062659383,0.004360000137239695,-0.001180000021122396,15.527000427246094
6636.911999769618,1320497.0,0.004490000195801258,0.007540000136941671,-0.00044999999227002263,15.508999824523926
6636.9129995415415,1320498.0,0.006380000151693821,4.999999873689376e-05,-0.005810000002384186,15.069999694824219
6636.913999313464,1320499.0,0.004399999976158142,0.003539999946951866,-0.007449999917298555,15.48799991607666
6636.914999085387,1320500.0,0.0029200001154094934,-0.001820000004954636,0.0027199999894946814,15.395999908447266
6636.915998857309,1320501.0,0.004629999864846468,-0.000910000002477318,-0.0027199999894946814,15.557999610900879
6636.916998629232,1320502.0,0.0052999998442828655,-0.005810000002384186,-0.004720000084489584,15.402000427246094
6636.917998401155,1320503.0,0.005210000090301037,-0.016529999673366547,-0.004769999999552965,15.288999557495117
6636.918998173078,1320504.0,0.005750000011175871,-0.007269999943673611,-0.00571999978274107,15.442999839782715
6636.919997945,1320505.0,0.007369999773800373,-0.000539999979082495,-0.001820000004954636,15.265999794006348
6636.920997716923,1320506.0,0.009340000338852406,-0.0016299999551847577,0.0021800000686198473,15.371999740600586
6636.921997488846,1320507.0,0.01131999958306551,-0.012849999591708183,0.008630000054836273,15.456000328063965
6636.922997260769,1320508.0,0.01131999958306551,-0.007360000163316727,0.004360000137239695,15.454000473022461
6636.923997032692,1320509.0,0.01095999963581562,-0.0059899999760091305,-0.001180000021122396,15.630999565124512
6636.924996804614,1320510.0,0.009519999846816063,-0.008990000002086163,0.0033199999015778303,15.515000343322754
6636.925996576537,1320511.0,0.008799999952316284,0.027070000767707825,-0.0034099998883903027,15.425000190734863
6636.926996348459,1320512.0,0.007910000160336494,0.031060000881552696,-0.007269999943673611,15.656000137329102
6636.927996120383,1320513.0,0.007459999993443489,0.025609999895095825,-0.0059899999760091305,15.586999893188477
6636.9289958923055,1320514.0,0.005439999978989363,0.010900000110268593,0.0021800000686198473,15.496999740600586
6636.929995664228,1320515.0,0.0037700000684708357,-0.006539999973028898,0.005450000055134296,15.423999786376953
6636.930995436151,1320516.0,0.0007200000109151006,0.012529999949038029,-0.0027199999894946814,15.593999862670898
6636.931995208073,1320517.0,-0.0011699999449774623,0.008170000277459621,-0.010940000414848328,15.508999824523926
6636.932994979996,1320518.0,-0.0027000000700354576,-0.01140000019222498,-0.0025400000158697367,15.45300006866455
6636.933994751919,1320519.0,-0.002959999954327941,-0.027340000495314598,-0.0044999998062849045,15.265000343322754
6636.934994523842,1320520.0,-0.00215999991632998,-0.032519999891519547,-0.002859999891370535,15.585000038146973
6636.935994295764,1320521.0,-0.001979999942705035,-0.03092999942600727,0.002589999930933118,15.532999992370605
6636.936994067687,1320522.0,-0.0007200000109151006,-0.030880000442266464,0.00018000000272877514,15.435999870300293
6636.93799383961,1320523.0,0.0008999999845400453,-0.0266100000590086,-0.004900000058114529,15.706000328063965
6636.938993611533,1320524.0,0.00107999995816499,-0.012129999697208405,0.0006799999973736703,15.576000213623047
6636.939993383456,1320525.0,0.0010300000431016088,-0.024159999564290047,-0.005539999809116125,15.545999526977539
6636.940993155378,1320526.0,0.0018899999558925629,-0.015990000218153,-0.003809999907389283,15.532999992370605
6636.941992927301,1320527.0,0.001979999942705035,0.0059899999760091305,0.0012700000079348683,15.586999893188477
6636.942992699223,1320528.0,0.0028800000436604023,0.0203000009059906,-0.0059899999760091305,15.572999954223633
6636.943992471146,1320529.0,0.0030499999411404133,0.02452000044286251,0.007269999943673611,15.619000434875488
6636.9449922430695,1320530.0,0.0028800000436604023,0.029969999566674232,0.014170000329613686,15.545999526977539
6636.945992014992,1320531.0,0.00279000005684793,0.03020000085234642,0.0031799999997019768,15.567000389099121
6636.946991786915,1320532.0,0.0022499999031424522,0.029750000685453415,0.0013599999947473407,15.626999855041504
6636.947991558837,1320533.0,0.00107999995816499,0.010350000113248825,0.0010000000474974513,15.72599983215332
6636.94899133076,1320534.0,0.0016199999954551458,0.003269999986514449,-0.010219999589025974,15.552000045776367
6636.949991102683,1320535.0,0.0024300001095980406,0.005270000081509352,-0.0005000000237487257,15.5
6636.950990874606,1320536.0,0.0035000001080334187,-0.003220000071451068,-0.0027199999894946814,15.569999694824219
6636.951990646528,1320537.0,0.004939999897032976,-0.007899999618530273,-0.008449999615550041,15.64900016784668
6636.952990418451,1320538.0,0.00610999995842576,-0.01408000010997057,-0.0031799999997019768,15.729000091552734
6636.953990190374,1320539.0,0.006289999932050705,-0.01906999945640564,-0.0005000000237487257,15.63599967956543
6636.954989962297,1320540.0,0.0048500001430511475,-0.01761999912559986,-0.009990000165998936,15.661999702453613
6636.95598973422,1320541.0,0.0034600000362843275,-0.020160000771284103,-0.0011399999493733048,15.682999610900879
6636.956989506142,1320542.0,0.0030499999411404133,-0.014259999617934227,-0.004129999782890081,15.633999824523926
6636.957989278065,1320543.0,0.003590000094845891,0.012350000441074371,-0.00535999983549118,15.732000350952148
6636.958989049987,1320544.0,0.005210000090301037,0.01761999912559986,0.0006399999838322401,15.814000129699707
6636.959988821911,1320545.0,0.006649999879300594,0.015209999866783619,0.0063599999994039536,15.314000129699707
6636.9609885938335,1320546.0,0.008129999972879887,0.02102999947965145,0.0020000000949949026,15.73799991607666
6636.961988365756,1320547.0,0.009159999899566174,0.013260000385344028,0.00535999983549118,15.619000434875488
6636.962988137679,1320548.0,0.008799999952316284,0.008899999782443047,-0.0020000000949949026,15.817000389099121
6636.963987909601,1320549.0,0.0083600003272295,0.000910000002477318,-0.0010900000343099236,15.802000045776367
6636.964987681524,1320550.0,0.00872000027447939,-0.006990000139921904,0.0059899999760091305,15.706000328063965
6636.965987453447,1320551.0,0.008799999952316284,0.00913000013679266,-0.0059899999760091305,15.597999572753906
6636.96698722537,1320552.0,0.007369999773800373,0.006949999835342169,-0.001449999981559813,15.484999656677246
6636.967986997292,1320553.0,0.007009999826550484,-0.0020000000949949026,-0.0008200000156648457,15.753000259399414
6636.968986769215,1320554.0,0.006060000043362379,-0.029430000111460686,-0.001449999981559813,15.350000381469727
6636.969986541138,1320555.0,0.00610999995842576,-0.02679000049829483,-0.0016299999551847577,15.668000221252441
6636.970986313061,1320556.0,0.005929999984800816,-0.014170000329613686,-0.003719999920576811,15.626999855041504
6636.971986084984,1320557.0,0.005750000011175871,-0.01689000055193901,0.002859999891370535,15.430000305175781
6636.972985856906,1320558.0,0.004579999949783087,-0.010350000113248825,0.004089999943971634,15.668000221252441
6636.973985628829,1320559.0,0.003640000009909272,-0.020160000771284103,0.0028200000524520874,15.836000442504883
6636.974985400751,1320560.0,0.0030499999411404133,-0.014170000329613686,-0.0016299999551847577,15.802000045776367
6636.975985172674,1320561.0,0.0033199999015778303,-0.0007300000288523734,-0.0016299999551847577,15.694999694824219
6636.9769849445975,1320562.0,0.004129999782890081,0.027070000767707825,-0.012719999998807907,15.633999824523926
6636.97798471652,1320563.0,0.0037700000684708357,0.07401999831199646,-0.009259999729692936,15.661999702453613
6636.978984488443,1320564.0,0.00279000005684793,0.06644000113010406,-0.004900000058114529,15.39900016784668
6636.979984260365,1320565.0,0.0023399998899549246,0.02824999950826168,-0.0024999999441206455,15.826000213623047
6636.980984032288,1320566.0,0.0023399998899549246,-0.02589000016450882,-0.0020000000949949026,15.847999572753906
6636.981983804211,1320567.0,0.003229999914765358,-0.0532200001180172,0.006949999835342169,15.802000045776367
6636.982983576134,1320568.0,0.007369999773800373,-0.06266999989748001,0.00686000008136034,15.659000396728516
6636.983983348056,1320569.0,0.00646999990567565,-0.05285999923944473,0.009809999726712704,15.826000213623047
6636.984983119979,1320570.0,0.006060000043362379,-0.04269000142812729,0.0012700000079348683,15.699999809265137
6636.985982891902,1320571.0,0.005799999926239252,-0.032329998910427094,-0.0020000000949949026,15.76200008392334
6636.986982663825,1320572.0,0.005030000116676092,-0.007449999917298555,-0.007899999618530273,15.692000389099121
6636.987982435748,1320573.0,0.005030000116676092,0.00880999956279993,0.0007300000288523734,15.616000175476074
6636.98898220767,1320574.0,0.005570000037550926,0.00949000008404255,-0.000539999979082495,15.451000213623047
6636.989981979593,1320575.0,0.005659999791532755,0.021159999072551727,0.006089999806135893,15.685999870300293
6636.990981751515,1320576.0,0.00610999995842576,0.02761000022292137,-0.0012700000079348683,15.777999877929688
6636.991981523439,1320577.0,0.006200000178068876,0.023429999127984047,-0.004900000058114529,15.619000434875488
6636.9929812953615,1320578.0,0.00646999990567565,0.023070000112056732,-0.004449999891221523,15.52299976348877
6636.993981067284,1320579.0,0.004220000002533197,0.025609999895095825,-0.004360000137239695,15.473999977111816
6636.994980839207,1320580.0,0.0037700000684708357,0.01370999962091446,-0.00571999978274107,15.680000305175781
6636.995980611129,1320581.0,0.005210000090301037,0.00795000046491623,-0.004089999943971634,15.496999740600586
6636.996980383052,1320582.0,0.005030000116676092,-0.005900000222027302,-0.011169999837875366,15.843000411987305
6636.997980154975,1320583.0,0.005210000090301037,-0.004540000110864639,-0.00875999964773655,15.39900016784668
6636.998979926898,1320584.0,0.0053900000639259815,0.003449999960139394,0.007809999864548445,15.717000007629395
6636.99997969882,1320585.0,0.004579999949783087,0.0012700000079348683,0.006180000025779009,15.682999610900879
6637.000979470743,1320586.0,0.005710000172257423,-0.00018000000272877514,0.005270000081509352,15.83899974822998
6637.001979242666,1320587.0,0.007009999826550484,-0.005270000081509352,0.002630000002682209,15.694999694824219
6637.002979014589,1320588.0,0.008449999615550041,-0.006949999835342169,0.0029100000392645597,15.41100025177002
6637.003978786512,1320589.0,0.010060000233352184,0.005810000002384186,0.003809999907389283,15.673999786376953
6637.004978558434,1320590.0,0.011140000075101852,0.007809999864548445,0.002090000081807375,15.729000091552734
6637.005978330357,1320591.0,0.012849999591708183,0.008899999782443047,-0.005539999809116125,15.79699993133545
6637.006978102279,1320592.0,0.014999999664723873,0.01408000010997057,-0.012439999729394913,15.52400016784668
6637.007977874203,1320593.0,0.01508999988436699,0.008539999835193157,-0.00798999983817339,15.819999694824219
6637.0089776461255,1320594.0,0.014379999600350857,0.004900000058114529,-0.003449999960139394,15.675000190734863
6637.009977418048,1320595.0,0.013120000250637531,-0.010350000113248825,-0.0083600003272295,15.904000282287598
6637.010977189971,1320596.0,0.01095999963581562,-0.01679999940097332,-0.005179999861866236,15.859999656677246
6637.011976961893,1320597.0,0.008449999615550041,-0.02442999929189682,0.00018000000272877514,15.83899974822998
6637.012976733817,1320598.0,0.007369999773800373,-0.037060000002384186,0.010540000163018703,15.680000305175781
6637.013976505739,1320599.0,0.008270000107586384,-0.02538999915122986,0.01107999961823225,15.460000038146973
6637.014976277662,1320600.0,0.0088900001719594,-0.004900000058114529,0.01104000024497509,15.765000343322754
6637.015976049584,1320601.0,0.010110000148415565,0.000910000002477318,0.0024500000290572643,15.581999778747559
6637.016975821507,1320602.0,0.011500000022351742,0.006539999973028898,0.005270000081509352,15.371999740600586
6637.01797559343,1320603.0,0.01257999986410141,0.006990000139921904,-0.003909999970346689,15.708999633789062
6637.018975365353,1320604.0,0.01257999986410141,0.009990000165998936,0.0020000000949949026,15.661999702453613
6637.019975137276,1320605.0,0.01221999991685152,0.006949999835342169,-0.008270000107586384,15.819999694824219
6637.020974909198,1320606.0,0.013389999978244305,0.0028200000524520874,-0.010169999673962593,15.729000091552734
6637.021974681121,1320607.0,0.014379999600350857,0.011629999615252018,-0.007079999893903732,15.704000473022461
6637.022974453043,1320608.0,0.014290000312030315,0.009990000165998936,-0.005179999861866236,15.685999870300293
6637.023974224967,1320609.0,0.015359999611973763,0.004629999864846468,-0.0059899999760091305,15.717000007629395
6637.0249739968895,1320610.0,0.016939999535679817,-0.001820000004954636,-0.003809999907389283,15.548999786376953
6637.025973768812,1320611.0,0.018869999796152115,0.007449999917298555,-0.0022700000554323196,15.902999877929688
6637.026973540735,1320612.0,0.019139999523758888,0.01071999967098236,-0.00798999983817339,15.717000007629395
6637.027973312657,1320613.0,0.019449999555945396,0.016529999673366547,0.003909999970346689,15.6850004196167
6637.02897308458,1320614.0,0.019950000569224358,0.018799999728798866,0.008220000192523003,15.661999702453613
6637.029972856503,1320615.0,0.01962999999523163,0.004900000058114529,-0.0021299999207258224,15.732999801635742
6637.030972628426,1320616.0,0.01860000006854534,-0.014709999784827232,0.008899999782443047,15.729000091552734
6637.031972400348,1320617.0,0.018869999796152115,-0.026979999616742134,0.014349999837577343,15.57800006866455
6637.032972172271,1320618.0,0.020749999210238457,-0.021709999069571495,0.0035000001080334187,15.670999526977539
6637.033971944194,1320619.0,0.02092999964952469,-0.02525000087916851,-0.0030900000128895044,15.673999786376953
6637.034971716117,1320620.0,0.020080000162124634,-0.035420000553131104,-0.006630000192672014,15.680000305175781
6637.03597148804,1320621.0,0.019990000873804092,-0.017260000109672546,-0.0029100000392645597,15.829000473022461
6637.036971259962,1320622.0,0.018149999901652336,-0.01998000033199787,-0.004900000058114529,15.670999526977539
6637.037971031885,1320623.0,0.017880000174045563,-0.009080000221729279,0.0025400000158697367,15.57800006866455
6637.038970803807,1320624.0,0.01730000041425228,-0.00018000000272877514,0.0,15.680000305175781
6637.039970575731,1320625.0,0.016529999673366547,0.010259999893605709,-0.0059899999760091305,15.645999908447266
6637.0409703476535,1320626.0,0.015990000218153,0.016669999808073044,-0.004629999864846468,15.645999908447266
6637.041970119576,1320627.0,0.015990000218153,0.012310000136494637,-0.000910000002477318,15.817000389099121
6637.042969891499,1320628.0,0.017249999567866325,0.012400000356137753,-0.0024500000290572643,15.642999649047852
6637.043969663421,1320629.0,0.016620000824332237,0.008539999835193157,-0.009630000218749046,15.484999656677246
6637.044969435345,1320630.0,0.0142000000923872,0.014209999702870846,-0.008170000277459621,15.630999565124512
6637.045969207267,1320631.0,0.012799999676644802,0.018069999292492867,0.0016299999551847577,15.607999801635742
6637.04696897919,1320632.0,0.011859999969601631,0.007720000110566616,-0.004040000028908253,15.628000259399414
6637.047968751112,1320633.0,0.010599999688565731,0.01107999961823225,-0.001449999981559813,15.626999855041504
6637.048968523035,1320634.0,0.009879999794065952,0.004809999838471413,0.0031799999997019768,15.807999610900879
6637.049968294958,1320635.0,0.00965999998152256,0.020349999889731407,-0.0019099999917671084,15.64900016784668
6637.050968066881,1320636.0,0.009519999846816063,0.016529999673366547,0.00535999983549118,15.744000434875488
6637.051967838804,1320637.0,0.009159999899566174,-0.0007699999841861427,0.006719999946653843,15.817000389099121
6637.052967610726,1320638.0,0.009069999679923058,-0.01408000010997057,0.0,15.755999565124512
6637.053967382649,1320639.0,0.008129999972879887,-0.015799999237060547,0.0012700000079348683,15.619000434875488
6637.054967154571,1320640.0,0.007369999773800373,-0.01689000055193901,0.006539999973028898,15.479000091552734
6637.055966926495,1320641.0,0.00674000009894371,-0.026480000466108322,-0.00044999999227002263,15.777999877929688
6637.056966698417,1320642.0,0.004490000195801258,-0.03460000082850456,0.0027199999894946814,15.717000007629395
6637.05796647034,1320643.0,0.0037700000684708357,-0.039239998906850815,-0.006719999946653843,15.704000473022461
6637.058966242263,1320644.0,0.00279000005684793,-0.035420000553131104,-0.005400000140070915,15.673999786376953
6637.059966014185,1320645.0,0.0023399998899549246,-0.015990000218153,-0.009630000218749046,15.697999954223633
6637.060965786108,1320646.0,0.0021100000012665987,-0.004360000137239695,0.000539999979082495,15.277000427246094
6637.061965558031,1320647.0,0.0007200000109151006,0.007899999618530273,-0.0059899999760091305,15.753000259399414
6637.062965329954,1320648.0,0.0008999999845400453,0.011989999562501907,-0.0008200000156648457,15.557999610900879
6637.063965101876,1320649.0,0.0003600000054575503,0.015799999237060547,-0.0022299999836832285,15.435999870300293
6637.064964873799,1320650.0,0.0006699999794363976,0.03514999896287918,0.00798999983817339,15.625
6637.0659646457225,1320651.0,-0.00044999999227002263,0.045499999076128006,0.0010900000343099236,15.496999740600586
6637.066964417645,1320652.0,-0.0023399998899549246,0.03650999814271927,-0.004410000052303076,15.753000259399414
6637.067964189568,1320653.0,-0.003229999914765358,0.0189800001680851,0.006719999946653843,15.574999809265137
6637.06896396149,1320654.0,-0.0030499999411404133,0.007079999893903732,0.005450000055134296,15.697999954223633
6637.069963733413,1320655.0,-0.002520000096410513,-0.007269999943673611,0.0012700000079348683,15.732000350952148
6637.070963505335,1320656.0,-0.0030499999411404133,-0.009809999726712704,-0.007079999893903732,15.48799991607666
6637.071963277259,1320657.0,-0.0047599999234080315,-0.021530000492930412,-0.0063599999994039536,15.692000389099121
6637.072963049181,1320658.0,-0.005840000230818987,-0.01689000055193901,-0.008080000057816505,15.279999732971191
6637.073962821104,1320659.0,-0.005030000116676092,-0.023070000112056732,-0.007360000163316727,15.76200008392334
6637.074962593027,1320660.0,-0.004399999976158142,-0.016349999234080315,-0.00571999978274107,15.753000259399414
6637.075962364949,1320661.0,-0.005210000090301037,-0.010540000163018703,-0.00044999999227002263,15.673999786376953
6637.076962136873,1320662.0,-0.005210000090301037,0.00418000016361475,-0.000539999979082495,15.210000038146973
6637.077961908795,1320663.0,-0.004490000195801258,0.00795000046491623,0.0017300000181421638,15.626999855041504
6637.078961680718,1320664.0,-0.0028800000436604023,0.008270000107586384,-0.007269999943673611,15.520999908447266
6637.07996145264,1320665.0,-0.0012600000482052565,0.009259999729692936,-0.005090000107884407,15.607000350952148
6637.080961224563,1320666.0,-0.0009899999713525176,-0.004360000137239695,0.006490000057965517,15.484999656677246
6637.081960996486,1320667.0,-0.0003100000030826777,-0.013620000332593918,-0.0034099998883903027,15.41100025177002
6637.082960768409,1320668.0,-9.000000136438757e-05,-0.004540000110864639,4.999999873689376e-05,15.520999908447266
6637.083960540332,1320669.0,-0.0003600000054575503,0.012350000441074371,0.000539999979082495,15.265000343322754
6637.084960312254,1320670.0,0.00018000000272877514,0.012719999998807907,0.0016299999551847577,15.680000305175781
6637.085960084177,1320671.0,-0.00044999999227002263,0.003909999970346689,-0.0012700000079348683,15.366000175476074
6637.086959856099,1320672.0,-0.0013899999903514981,0.003539999946951866,0.008170000277459621,15.366000175476074
6637.087959628023,1320673.0,-0.002520000096410513,0.004900000058114529,0.00018000000272877514,15.3149995803833
6637.088959399945,1320674.0,-0.0027000000700354576,-0.0021800000686198473,-0.001820000004954636,15.526000022888184
6637.089959171868,1320675.0,-0.0037700000684708357,-0.0007300000288523734,-0.003719999920576811,15.543000221252441
6637.090958943791,1320676.0,-0.004129999782890081,-0.000539999979082495,-0.00795000046491623,15.569999694824219
6637.091958715713,1320677.0,-0.0027000000700354576,-0.0036299999337643385,-0.0059899999760091305,15.142999649047852
6637.092958487637,1320678.0,-0.0012600000482052565,0.007540000136941671,-0.0020000000949949026,15.50100040435791
6637.093958259559,1320679.0,-0.0026100000832229853,0.006130000110715628,-0.002630000002682209,15.447999954223633
6637.094958031482,1320680.0,-0.00547999981790781,-0.003949999809265137,0.006990000139921904,15.503000259399414
6637.095957803404,1320681.0,-0.005210000090301037,-0.0020000000949949026,0.0063599999994039536,15.51200008392334
6637.096957575327,1320682.0,-0.004310000222176313,0.03641999885439873,0.00494999997317791,15.105999946594238
6637.0979573472505,1320683.0,-0.0033199999015778303,0.030150000005960464,0.00749000022187829,15.460000038146973
6637.098957119173,1320684.0,-0.001979999942705035,0.005489999894052744,0.013260000385344028,15.416999816894531
6637.099956891096,1320685.0,-0.0006699999794363976,-0.017079999670386314,0.005900000222027302,15.413000106811523
6637.100956663018,1320686.0,0.00018000000272877514,-0.030150000005960464,-0.0016299999551847577,15.338000297546387
6637.101956434941,1320687.0,0.00018000000272877514,-0.02442999929189682,-0.0012700000079348683,15.593999862670898
6637.102956206863,1320688.0,-0.00039999998989515007,-0.01834999956190586,-0.007079999893903732,15.416999816894531
6637.103955978787,1320689.0,-0.0016199999954551458,-0.01181000005453825,-0.009990000165998936,15.559000015258789
6637.104955750709,1320690.0,-0.0016199999954551458,-0.008539999835193157,-0.0029100000392645597,15.553000450134277
6637.105955522632,1320691.0,-0.0012100000167265534,-0.017079999670386314,-0.004809999838471413,15.36299991607666
6637.106955294555,1320692.0,-0.0012600000482052565,-0.006089999806135893,-0.0017300000181421638,15.574999809265137
6637.107955066477,1320693.0,-0.0018899999558925629,-0.013620000332593918,-0.007809999864548445,15.38700008392334
6637.108954838401,1320694.0,-0.0020699999295175076,-0.012529999949038029,-0.0013599999947473407,15.36299991607666
6637.109954610323,1320695.0,-0.0028800000436604023,-0.018710000440478325,-0.0044999998062849045,15.291000366210938
6637.110954382246,1320696.0,-0.002469999948516488,-0.016669999808073044,-0.000539999979082495,15.17300033569336
6637.111954154168,1320697.0,-0.0023399998899549246,0.02360999956727028,-0.006089999806135893,15.401000022888184
6637.112953926091,1320698.0,-0.0024300001095980406,0.020889999344944954,-0.0008200000156648457,15.38700008392334
6637.113953698014,1320699.0,-0.0027000000700354576,0.009359999559819698,-0.007540000136941671,15.366000175476074
6637.114953469937,1320700.0,-0.0023399998899549246,0.0044999998062849045,-0.0024500000290572643,15.253000259399414
6637.11595324186,1320701.0,-0.0011699999449774623,-0.00872000027447939,0.009759999811649323,15.109000205993652
6637.116953013782,1320702.0,-0.0018899999558925629,-0.014349999837577343,0.007079999893903732,15.03600025177002
6637.117952785705,1320703.0,-0.0023399998899549246,-0.014349999837577343,0.000539999979082495,15.307999610900879
6637.118952557627,1320704.0,-0.0030499999411404133,-0.015259999781847,0.006039999891072512,15.005000114440918
6637.119952329551,1320705.0,-0.0027000000700354576,-0.011309999972581863,9.000000136438757e-05,15.392000198364258
6637.120952101473,1320706.0,-0.0022499999031424522,0.004720000084489584,-0.006719999946653843,15.326000213623047
6637.121951873396,1320707.0,-0.00279000005684793,0.01143999956548214,-0.003220000071451068,15.27400016784668
6637.122951645319,1320708.0,-0.0037700000684708357,0.009630000218749046,-0.007180000189691782,15.347000122070312
6637.123951417241,1320709.0,-0.0034099998883903027,0.02061999961733818,-0.006719999946653843,15.244999885559082
6637.124951189165,1320710.0,-0.004040000028908253,0.018799999728798866,-0.0027199999894946814,15.375
6637.125950961087,1320711.0,-0.004720000084489584,0.013620000332593918,-0.003719999920576811,15.307999610900879
6637.12695073301,1320712.0,-0.004129999782890081,0.016170000657439232,-0.0005000000237487257,15.420999526977539
6637.127950504932,1320713.0,-0.002959999954327941,-0.001820000004954636,-0.006899999920278788,15.447999954223633
6637.128950276855,1320714.0,-0.0017999999690800905,-0.017260000109672546,-0.00418000016361475,15.36299991607666
6637.1299500487785,1320715.0,-0.0008999999845400453,-0.02206999994814396,0.0022700000554323196,15.253999710083008
6637.130949820701,1320716.0,-0.00039999998989515007,-0.03084000013768673,0.008170000277459621,15.230999946594238
6637.131949592624,1320717.0,3.9999998989515007e-05,-0.03029000014066696,0.01257999986410141,15.36299991607666
6637.132949364546,1320718.0,0.00018000000272877514,-0.023070000112056732,0.01298999972641468,15.215999603271484
6637.133949136469,1320719.0,0.0003600000054575503,0.0022700000554323196,0.0028200000524520874,15.08899974822998
6637.134948908391,1320720.0,0.0007200000109151006,0.02053000032901764,0.0019099999917671084,14.937000274658203
6637.135948680315,1320721.0,0.0002699999895412475,0.020250000059604645,-0.01143999956548214,15.352999687194824
6637.136948452237,1320722.0,-0.0003600000054575503,0.012079999782145023,-0.006579999811947346,15.227999687194824
6637.13794822416,1320723.0,-0.0011699999449774623,0.00795000046491623,-0.004720000084489584,15.093999862670898
6637.138947996083,1320724.0,-0.00215999991632998,0.004999999888241291,-0.01143999956548214,14.942999839782715
6637.139947768005,1320725.0,-0.003590000094845891,0.003809999907389283,-0.016170000657439232,14.902000427246094
6637.140947539929,1320726.0,-0.004490000195801258,0.003000000026077032,-0.007269999943673611,14.821999549865723
6637.141947311851,1320727.0,-0.004989999812096357,-0.007809999864548445,-0.005900000222027302,15.314000129699707
6637.142947083774,1320728.0,-0.00610999995842576,-0.01063000038266182,-0.0021299999207258224,15.100000381469727
6637.143946855696,1320729.0,-0.005659999791532755,-0.006719999946653843,-0.0024500000290572643,14.996000289916992
6637.144946627619,1320730.0,-0.003860000055283308,-0.0019099999917671084,-0.003590000094845891,14.87399959564209
6637.1459463995425,1320731.0,-0.003949999809265137,0.011719999834895134,-0.00044999999227002263,14.755000114440918
6637.146946171465,1320732.0,-0.004089999943971634,0.01257999986410141,0.003809999907389283,15.093999862670898
6637.147945943388,1320733.0,-0.004269999917596579,0.014440000057220459,0.00418000016361475,15.020999908447266
6637.14894571531,1320734.0,-0.004129999782890081,0.010259999893605709,-0.0029100000392645597,15.25
6637.149945487233,1320735.0,-0.0030499999411404133,-0.002630000002682209,-0.003719999920576811,14.720000267028809
6637.150945259156,1320736.0,-0.0026100000832229853,-0.007040000054985285,-0.000910000002477318,15.072999954223633
6637.151945031079,1320737.0,-0.00215999991632998,-0.002360000042244792,0.004269999917596579,15.020999908447266
6637.152944803001,1320738.0,-0.0025599999353289604,-0.013220000080764294,0.001820000004954636,15.163000106811523
6637.153944574924,1320739.0,-0.0027000000700354576,-0.008630000054836273,0.005810000002384186,15.045000076293945
6637.154944346847,1320740.0,-0.004269999917596579,-0.003719999920576811,0.004540000110864639,14.967000007629395
6637.155944118769,1320741.0,-0.0048500001430511475,-0.004679999779909849,-0.003449999960139394,15.001999855041504
6637.156943890693,1320742.0,-0.004000000189989805,-0.0019099999917671084,0.003909999970346689,15.045000076293945
6637.157943662615,1320743.0,-0.003229999914765358,-0.00044999999227002263,4.999999873689376e-05,15.185999870300293
6637.158943434538,1320744.0,-0.0008999999845400453,0.01816999912261963,-0.004900000058114529,14.852999687194824
6637.15994320646,1320745.0,0.000539999979082495,0.020069999620318413,-0.002360000042244792,15.16100025177002
6637.160942978383,1320746.0,0.0,0.01298999972641468,-0.00880999956279993,14.940999984741211
6637.1619427503065,1320747.0,3.9999998989515007e-05,0.008170000277459621,-0.012310000136494637,15.020999908447266
6637.162942522229,1320748.0,-0.0008999999845400453,-0.012079999782145023,-0.00535999983549118,14.89900016784668
6637.163942294152,1320749.0,-0.0002699999895412475,-0.02053000032901764,-0.006630000192672014,14.678999900817871
6637.164942066074,1320750.0,0.0015300000086426735,-0.022339999675750732,-0.004720000084489584,14.993000030517578
6637.165941837997,1320751.0,0.0027000000700354576,-0.01607999950647354,0.0030900000128895044,14.9350004196167
6637.166941609919,1320752.0,0.0021100000012665987,-0.016170000657439232,0.003809999907389283,14.840999603271484
6637.167941381843,1320753.0,-0.0002699999895412475,-0.013620000332593918,0.006490000057965517,14.913999557495117
6637.168941153765,1320754.0,-0.0026100000832229853,-0.009170000441372395,0.004999999888241291,14.876999855041504
6637.169940925688,1320755.0,-0.0031900000758469105,-0.0016299999551847577,0.0030900000128895044,14.862000465393066
6637.170940697611,1320756.0,-0.0037700000684708357,-0.000539999979082495,0.0006799999973736703,14.916999816894531
6637.171940469533,1320757.0,-0.0028800000436604023,-0.0010900000343099236,0.006180000025779009,14.960000038146973
6637.172940241457,1320758.0,-0.0014799999771639705,0.002950000111013651,0.00018000000272877514,14.911999702453613
6637.173940013379,1320759.0,-0.002520000096410513,0.0012700000079348683,0.003269999986514449,14.864999771118164
6637.174939785302,1320760.0,-0.004129999782890081,0.008170000277459621,-0.000539999979082495,14.996000289916992
6637.175939557224,1320761.0,-0.005929999984800816,0.011260000057518482,-0.0062699997797608376,15.027000427246094
6637.176939329147,1320762.0,-0.005929999984800816,0.0007300000288523734,-0.007809999864548445,14.855999946594238
6637.1779391010705,1320763.0,-0.0048500001430511475,0.003909999970346689,0.0013599999947473407,14.743000030517578
6637.178938872993,1320764.0,-0.004000000189989805,0.004720000084489584,-0.0076299998909235,14.989999771118164
6637.179938644916,1320765.0,-0.0016199999954551458,0.03420000150799751,-0.004900000058114529,14.751999855041504
6637.180938416838,1320766.0,-0.0007200000109151006,0.020570000633597374,-0.005539999809116125,14.684000015258789
6637.181938188761,1320767.0,-0.0008999999845400453,0.036970000714063644,-0.005900000222027302,14.40999984741211
6637.182937960684,1320768.0,-0.0013500000350177288,0.02538999915122986,-0.003449999960139394,14.782999992370605
6637.183937732607,1320769.0,-0.0012600000482052565,0.010540000163018703,-0.007079999893903732,14.954000473022461
6637.184937504529,1320770.0,-0.0014799999771639705,-0.013079999946057796,-0.005630000028759241,14.713000297546387
6637.185937276452,1320771.0,-0.0028800000436604023,-0.03133999928832054,-0.005539999809116125,14.788999557495117
6637.186937048375,1320772.0,-0.0026499999221414328,-0.036649998277425766,0.00418000016361475,14.894000053405762
6637.187936820297,1320773.0,-0.001979999942705035,-0.03906000033020973,0.006490000057965517,14.649999618530273
6637.188936592221,1320774.0,-0.002199999988079071,-0.010350000113248825,0.00798999983817339,14.892999649047852
6637.189936364143,1320775.0,-0.0024300001095980406,-0.011669999919831753,0.0010400000028312206,14.64799976348877
6637.190936136066,1320776.0,-0.0027000000700354576,-0.023429999127984047,-0.000539999979082495,14.630000114440918
6637.191935907988,1320777.0,-0.002520000096410513,-0.01217000000178814,-0.0013599999947473407,14.51099967956543
6637.192935679911,1320778.0,-0.0017999999690800905,-0.028880000114440918,0.0,14.348999977111816
6637.1939354518345,1320779.0,-0.0015300000086426735,-0.02298000082373619,0.00875999964773655,14.612000465393066
6637.194935223757,1320780.0,-0.0013500000350177288,-0.017260000109672546,-0.006219999864697456,14.513999938964844
6637.19593499568,1320781.0,-0.0008099999977275729,-0.016529999673366547,-0.004360000137239695,14.734999656677246
6637.196934767602,1320782.0,0.0011699999449774623,0.005270000081509352,0.0006799999973736703,14.574000358581543
6637.197934539525,1320783.0,0.0021100000012665987,0.014349999837577343,-0.0002699999895412475,14.569000244140625
6637.198934311447,1320784.0,0.0030499999411404133,0.024159999564290047,-0.001180000021122396,14.574999809265137
6637.199934083371,1320785.0,0.0028800000436604023,0.025609999895095825,0.0007699999841861427,14.755000114440918
6637.200933855293,1320786.0,0.004399999976158142,0.021390000358223915,-0.004410000052303076,14.531999588012695
6637.201933627216,1320787.0,0.005659999791532755,0.013620000332593918,-0.00018000000272877514,14.49899959564209
6637.202933399139,1320788.0,0.005929999984800816,-0.002319999970495701,-0.004540000110864639,14.513999938964844
6637.203933171061,1320789.0,0.005929999984800816,-0.007360000163316727,-0.004000000189989805,14.496000289916992
6637.204932942985,1320790.0,0.00674000009894371,-0.0028200000524520874,-0.012310000136494637,14.508000373840332
6637.205932714907,1320791.0,0.0071000000461936,-0.009259999729692936,-0.005630000028759241,14.54800033569336
6637.20693248683,1320792.0,0.0048500001430511475,-0.007079999893903732,-0.0012700000079348683,14.614999771118164
6637.207932258752,1320793.0,0.003949999809265137,0.00044999999227002263,-0.004900000058114529,14.45300006866455
6637.208932030675,1320794.0,0.003860000055283308,0.004269999917596579,0.0006399999838322401,14.630000114440918
6637.2099318025985,1320795.0,0.0035500000230968,0.005630000028759241,0.005450000055134296,14.484000205993652
6637.210931574521,1320796.0,0.0026100000832229853,0.013260000385344028,-0.000539999979082495,14.368000030517578
6637.211931346444,1320797.0,0.0016599999507889152,0.014619999565184116,-0.004720000084489584,14.406999588012695
6637.212931118366,1320798.0,0.00022000000171829015,0.014709999784827232,0.0016299999551847577,14.130000114440918
6637.213930890289,1320799.0,0.00022000000171829015,0.01143999956548214,-0.0016299999551847577,14.517000198364258
6637.214930662212,1320800.0,0.0003100000030826777,-0.002630000002682209,0.0016299999551847577,14.116999626159668
6637.215930434135,1320801.0,-0.0003600000054575503,-0.008170000277459621,0.006810000166296959,14.402999877929688
6637.216930206057,1320802.0,-0.0012600000482052565,-0.014440000057220459,0.0028200000524520874,14.376999855041504
6637.21792997798,1320803.0,-0.0027000000700354576,-0.019440000876784325,0.0002300000051036477,14.508000373840332
6637.218929749903,1320804.0,-0.002199999988079071,-0.022929999977350235,-0.0003600000054575503,14.315999984741211
6637.219929521825,1320805.0,-0.0028800000436604023,-0.019260000437498093,-0.004310000222176313,14.22700023651123
6637.220929293749,1320806.0,-0.003590000094845891,-0.01217000000178814,-0.002360000042244792,13.961999893188477
6637.221929065671,1320807.0,-0.0037700000684708357,-0.001820000004954636,-0.0063599999994039536,13.942000389099121
6637.222928837594,1320808.0,-0.0028299998957663774,0.006810000166296959,-0.007770000025629997,14.317000389099121
6637.223928609516,1320809.0,-0.0017099999822676182,0.009630000218749046,-0.008539999835193157,14.331000328063965
6637.224928381439,1320810.0,3.9999998989515007e-05,0.012529999949038029,-0.002360000042244792,14.40999984741211
6637.2259281533625,1320811.0,0.0016199999954551458,0.011989999562501907,-0.0020000000949949026,14.24899959564209
6637.226927925285,1320812.0,0.0023399998899549246,0.010350000113248825,0.002360000042244792,14.21500015258789
6637.227927697208,1320813.0,0.0025599999353289604,0.00880999956279993,-0.0034099998883903027,14.222999572753906
6637.22892746913,1320814.0,0.0030499999411404133,-0.0030900000128895044,-0.003269999986514449,14.239999771118164
6637.229927241053,1320815.0,0.0030499999411404133,0.003809999907389283,0.00031999999191612005,13.878999710083008
6637.230927012976,1320816.0,0.0029200001154094934,0.0005000000237487257,0.0030900000128895044,14.217000007629395
6637.231926784899,1320817.0,0.003819999983534217,-0.005590000189840794,-0.003719999920576811,14.20300006866455
6637.232926556821,1320818.0,0.003949999809265137,-0.008899999782443047,0.0025400000158697367,14.206000328063965
6637.233926328744,1320819.0,0.0048500001430511475,-0.009630000218749046,-0.0008200000156648457,14.28499984741211
6637.234926100667,1320820.0,0.005210000090301037,-0.006949999835342169,-0.0031799999997019768,14.329999923706055
6637.23592587259,1320821.0,0.005210000090301037,-0.003449999960139394,0.000539999979082495,14.107999801635742
6637.236925644513,1320822.0,0.005750000011175871,-0.007360000163316727,0.00839999970048666,14.059000015258789
6637.237925416435,1320823.0,0.005119999870657921,-0.003449999960139394,0.0028200000524520874,14.081000328063965
6637.238925188358,1320824.0,0.00547999981790781,-0.0028200000524520874,0.004720000084489584,14.055999755859375
6637.23992496028,1320825.0,0.005750000011175871,-0.00875999964773655,-9.000000136438757e-05,14.04699993133545
6637.240924732203,1320826.0,0.006200000178068876,-0.007720000110566616,0.002859999891370535,14.12399959564209
6637.2419245041265,1320827.0,0.006649999879300594,-0.0072200000286102295,-0.0076299998909235,13.72700023651123
6637.242924276049,1320828.0,0.00800000037997961,0.032519999891519547,-0.00989999994635582,14.166000366210938
6637.243924047972,1320829.0,0.008449999615550041,0.03164999932050705,9.000000136438757e-05,14.043999671936035
6637.244923819894,1320830.0,0.007499999832361937,0.006719999946653843,-0.005590000189840794,14.013999938964844
6637.245923591817,1320831.0,0.0064199999906122684,0.01181000005453825,-0.0029100000392645597,13.98799991607666
6637.24692336374,1320832.0,0.004490000195801258,-0.0030900000128895044,0.0020000000949949026,14.093000411987305
6637.247923135663,1320833.0,0.002469999948516488,-0.015530000440776348,0.0030900000128895044,14.020999908447266
6637.248922907585,1320834.0,0.0018899999558925629,-0.03305999934673309,-0.007809999864548445,14.01099967956543
6637.249922679508,1320835.0,0.0018899999558925629,-0.017980000004172325,-0.008899999782443047,13.579999923706055
6637.250922451431,1320836.0,0.0027000000700354576,0.0030900000128895044,0.00018000000272877514,13.949999809265137
6637.251922223353,1320837.0,0.0031900000758469105,0.0003600000054575503,-0.006630000192672014,13.90999984741211
6637.252921995277,1320838.0,0.0037700000684708357,-0.00041000000783242285,-0.005270000081509352,14.062000274658203
6637.253921767199,1320839.0,0.003860000055283308,-0.020840000361204147,0.002409999957308173,13.918000221252441
6637.254921539122,1320840.0,0.003229999914765358,-0.029929999262094498,0.010080000385642052,13.994999885559082
6637.255921311044,1320841.0,0.0030499999411404133,-0.01752999983727932,0.01071999967098236,13.803000450134277
6637.256921082967,1320842.0,0.0037700000684708357,-0.01834999956190586,-0.0012700000079348683,13.793999671936035
6637.2579208548905,1320843.0,0.004579999949783087,-0.017260000109672546,0.0021299999207258224,13.788000106811523
6637.258920626813,1320844.0,0.005929999984800816,-0.007449999917298555,-0.005270000081509352,13.805000305175781
6637.259920398736,1320845.0,0.007189999800175428,0.007180000189691782,-0.0051299999468028545,13.72700023651123
6637.260920170658,1320846.0,0.007369999773800373,0.00418000016361475,-0.0027199999894946814,14.008000373840332
6637.261919942581,1320847.0,0.00773000018671155,-0.007449999917298555,-0.005270000081509352,13.92199993133545
6637.262919714504,1320848.0,0.007189999800175428,-0.016349999234080315,0.00018000000272877514,13.888999938964844
6637.263919486427,1320849.0,0.006649999879300594,0.002360000042244792,0.003269999986514449,13.89799976348877
6637.264919258349,1320850.0,0.00610999995842576,0.013899999670684338,0.003000000026077032,13.744999885559082
6637.265919030272,1320851.0,0.005570000037550926,0.02112000063061714,-0.00418000016361475,13.692999839782715
6637.266918802195,1320852.0,0.003860000055283308,0.021250000223517418,0.0010000000474974513,13.885000228881836
6637.267918574118,1320853.0,0.0035000001080334187,0.01217000000178814,-0.008489999920129776,13.878999710083008
6637.268918346041,1320854.0,0.0031900000758469105,0.010350000113248825,0.0010400000028312206,13.767999649047852
6637.269918117963,1320855.0,0.004579999949783087,0.017030000686645508,-0.009259999729692936,13.58899974822998
6637.270917889886,1320856.0,0.005929999984800816,0.003809999907389283,-0.0020000000949949026,13.817000389099121
6637.271917661808,1320857.0,0.007910000160336494,0.002589999930933118,-0.0063599999994039536,13.619999885559082
6637.272917433731,1320858.0,0.007819999940693378,-0.0030900000128895044,-0.001449999981559813,13.522000312805176
6637.2739172056545,1320859.0,0.00773000018671155,0.0024500000290572643,-0.006579999811947346,13.397000312805176
6637.274916977577,1320860.0,0.008449999615550041,0.005810000002384186,-0.0027199999894946814,13.23900032043457
6637.2759167495,1320861.0,0.0088900001719594,-0.0033199999015778303,-0.0010900000343099236,13.567999839782715
6637.276916521422,1320862.0,0.007860000245273113,0.01143999956548214,0.012529999949038029,13.541000366210938
6637.277916293345,1320863.0,0.007280000019818544,0.015799999237060547,0.009399999864399433,13.732999801635742
6637.278916065268,1320864.0,0.007550000213086605,0.004360000137239695,-0.001180000021122396,13.206000328063965
6637.279915837191,1320865.0,0.007819999940693378,0.001449999981559813,-0.0036299999337643385,13.170999526977539
6637.280915609113,1320866.0,0.008129999972879887,-0.007079999893903732,0.0033599999733269215,13.52400016784668
6637.281915381036,1320867.0,0.007189999800175428,-0.018209999427199364,0.007540000136941671,13.50100040435791
6637.282915152959,1320868.0,0.006649999879300594,-0.017079999670386314,0.004720000084489584,13.23900032043457
6637.283914924882,1320869.0,0.006020000204443932,-0.01906999945640564,-0.005450000055134296,13.663000106811523
6637.284914696805,1320870.0,0.00646999990567565,-0.003719999920576811,-0.006719999946653843,13.180999755859375
6637.285914468727,1320871.0,0.007189999800175428,-0.004809999838471413,-0.003449999960139394,13.112000465393066
6637.28691424065,1320872.0,0.0083600003272295,-0.01775999926030636,-0.006810000166296959,13.104000091552734
6637.287914012572,1320873.0,0.0071000000461936,-0.007809999864548445,-0.003269999986514449,13.380000114440918
6637.288913784496,1320874.0,0.006829999852925539,0.0025400000158697367,0.003809999907389283,13.373000144958496
6637.2899135564185,1320875.0,0.007189999800175428,-0.0010900000343099236,0.0017300000181421638,13.522000312805176
6637.290913328341,1320876.0,0.007230000104755163,0.0010900000343099236,0.0002300000051036477,13.324000358581543
6637.291913100264,1320877.0,0.006289999932050705,-0.012529999949038029,-0.000910000002477318,13.324000358581543
6637.292912872186,1320878.0,0.00610999995842576,-0.009259999729692936,-0.003719999920576811,13.286999702453613
6637.293912644109,1320879.0,0.0065100002102553844,-0.0015899999998509884,-0.007809999864548445,13.303000450134277
6637.294912416032,1320880.0,0.005929999984800816,0.007860000245273113,-0.002360000042244792,13.269000053405762
6637.295912187955,1320881.0,0.004939999897032976,0.02816000021994114,0.005270000081509352,13.494999885559082
6637.296911959877,1320882.0,0.0033199999015778303,0.015209999866783619,0.0025400000158697367,13.187000274658203
6637.2979117318,1320883.0,0.0028800000436604023,0.007180000189691782,-0.003220000071451068,12.958000183105469
6637.298911503723,1320884.0,0.0023399998899549246,0.0027199999894946814,-0.004040000028908253,12.833000183105469
6637.299911275646,1320885.0,0.0034099998883903027,-0.003590000094845891,-0.005539999809116125,13.409000396728516
6637.300911047569,1320886.0,0.004490000195801258,0.00044999999227002263,-0.005270000081509352,13.22599983215332
6637.301910819491,1320887.0,0.006690000183880329,-0.003449999960139394,0.0011399999493733048,13.1899995803833
6637.302910591414,1320888.0,0.009159999899566174,-0.007360000163316727,-0.0015399999683722854,12.972999572753906
6637.303910363336,1320889.0,0.0101500004529953,0.009449999779462814,-0.007720000110566616,12.82699966430664
6637.304910135259,1320890.0,0.007280000019818544,0.01834999956190586,-0.00018000000272877514,12.814000129699707
6637.3059099071825,1320891.0,0.005080000031739473,0.009720000438392162,-0.005630000028759241,13.342000007629395
6637.306909679105,1320892.0,0.004490000195801258,-0.0030900000128895044,-0.010579999536275864,13.123000144958496
6637.307909451028,1320893.0,0.004490000195801258,-0.009990000165998936,-0.006990000139921904,13.079999923706055
6637.30890922295,1320894.0,0.004399999976158142,-0.020889999344944954,-0.006089999806135893,12.786999702453613
6637.309908994873,1320895.0,0.004939999897032976,0.020160000771284103,0.0033199999015778303,13.131999969482422
6637.310908766796,1320896.0,0.005929999984800816,0.043779999017715454,0.00571999978274107,13.067999839782715
6637.311908538719,1320897.0,0.005929999984800816,0.017079999670386314,0.006810000166296959,12.970000267028809
6637.312908310641,1320898.0,0.006649999879300594,-0.00880999956279993,-0.0016299999551847577,13.234000205993652
6637.313908082564,1320899.0,0.007459999993443489,-0.028519999235868454,-9.000000136438757e-05,13.02299976348877
6637.314907854487,1320900.0,0.007550000213086605,-0.04187000170350075,0.007269999943673611,12.994000434875488
6637.31590762641,1320901.0,0.007189999800175428,-0.04413999989628792,0.007449999917298555,12.984999656677246
6637.316907398333,1320902.0,0.007009999826550484,-0.05939999967813492,-0.0013599999947473407,13.03600025177002
6637.317907170255,1320903.0,0.00674000009894371,-0.06153000146150589,0.005270000081509352,13.031000137329102
6637.318906942178,1320904.0,0.007009999826550484,-0.04713999852538109,0.004629999864846468,13.019000053405762
6637.3199067141,1320905.0,0.0063299997709691525,-0.010449999943375587,-0.004410000052303076,12.946000099182129
6637.320906486024,1320906.0,0.005969999823719263,0.004900000058114529,0.0015399999683722854,12.946000099182129
6637.3219062579465,1320907.0,0.006289999932050705,0.01752999983727932,-0.004629999864846468,12.920999526977539
6637.322906029869,1320908.0,0.005929999984800816,0.033240001648664474,-0.004360000137239695,13.071000099182129
6637.323905801792,1320909.0,0.0053900000639259815,0.03215000033378601,-0.0014100000262260437,12.897000312805176
6637.324905573714,1320910.0,0.005750000011175871,0.01561999972909689,0.0030900000128895044,12.885000228881836
6637.325905345637,1320911.0,0.007189999800175428,0.021390000358223915,-0.002630000002682209,12.82699966430664
6637.32690511756,1320912.0,0.00795000046491623,0.009669999592006207,-0.0028200000524520874,12.836000442504883
6637.327904889483,1320913.0,0.008089999668300152,0.013489999808371067,-0.009449999779462814,12.822999954223633
6637.328904661405,1320914.0,0.007910000160336494,0.02133999951183796,-0.008630000054836273,12.970000267028809
6637.329904433328,1320915.0,0.008630000054836273,0.016259999945759773,4.999999873689376e-05,12.781000137329102
6637.330904205251,1320916.0,0.00800000037997961,0.015530000440776348,-0.001769999973475933,12.680000305175781
6637.331903977174,1320917.0,0.007860000245273113,0.010449999943375587,-0.000910000002477318,12.76200008392334
6637.332903749097,1320918.0,0.008449999615550041,0.013079999946057796,0.001820000004954636,12.76099967956543
6637.333903521019,1320919.0,0.00773000018671155,-0.0012700000079348683,-0.0059899999760091305,12.842000007629395
6637.334903292942,1320920.0,0.007230000104755163,-0.015440000221133232,-0.004809999838471413,12.708999633789062
6637.335903064864,1320921.0,0.005210000090301037,-0.003449999960139394,0.006719999946653843,12.887999534606934
6637.336902836787,1320922.0,0.004670000169426203,0.05285999923944473,0.00018000000272877514,12.668999671936035
6637.3379026087105,1320923.0,0.0030499999411404133,0.02669999934732914,0.0010000000474974513,12.824999809265137
6637.338902380633,1320924.0,0.0018400000408291817,-0.012719999998807907,-0.005630000028759241,12.822999954223633
6637.339902152556,1320925.0,0.0016199999954551458,-0.04413999989628792,-0.0059899999760091305,12.822999954223633
6637.340901924478,1320926.0,0.0016599999507889152,-0.05249999836087227,-0.00418000016361475,12.354000091552734
6637.341901696401,1320927.0,0.0016199999954551458,-0.05330999940633774,-0.0016799999866634607,12.755999565124512
6637.342901468324,1320928.0,0.001120000029914081,-0.044319998472929,0.01408000010997057,12.607000350952148
6637.343901240247,1320929.0,0.0009899999713525176,-0.03246999904513359,0.003449999960139394,12.76200008392334
6637.344901012169,1320930.0,0.0033199999015778303,-0.009170000441372395,-0.0027199999894946814,12.732000350952148
6637.345900784092,1320931.0,0.004670000169426203,0.013260000385344028,0.0025400000158697367,12.677000045776367
6637.346900556015,1320932.0,0.005659999791532755,0.022029999643564224,0.000910000002477318,12.53499984741211
6637.347900327938,1320933.0,0.006289999932050705,0.015990000218153,-0.004310000222176313,12.420999526977539
6637.348900099861,1320934.0,0.007369999773800373,0.010219999589025974,-0.005179999861866236,12.689000129699707
6637.349899871783,1320935.0,0.008270000107586384,0.021250000223517418,-0.005040000192821026,12.58899974822998
6637.350899643706,1320936.0,0.007770000025629997,0.023250000551342964,-0.002360000042244792,12.520999908447266
6637.351899415628,1320937.0,0.00646999990567565,0.018479999154806137,-0.006180000025779009,12.461999893188477
6637.352899187552,1320938.0,0.005210000090301037,0.013260000385344028,0.0029100000392645597,12.531000137329102
6637.3538989594745,1320939.0,0.0027000000700354576,0.0076299998909235,-0.005900000222027302,12.461999893188477
6637.354898731397,1320940.0,0.0014400000218302011,0.006990000139921904,-0.007720000110566616,12.555000305175781
6637.35589850332,1320941.0,0.0016199999954551458,0.0024500000290572643,0.000910000002477318,12.494000434875488
6637.356898275242,1320942.0,0.0016199999954551458,0.00418000016361475,0.00418000016361475,12.460000038146973
6637.357898047165,1320943.0,0.00279000005684793,-0.005630000028759241,-0.0002699999895412475,12.331999778747559
6637.358897819088,1320944.0,0.0035000001080334187,-0.001820000004954636,0.0029100000392645597,12.548999786376953
6637.359897591011,1320945.0,0.003949999809265137,-0.000910000002477318,0.006810000166296959,12.329000473022461
6637.360897362933,1320946.0,0.003819999983534217,0.0,0.0016299999551847577,12.347000122070312
6637.361897134856,1320947.0,0.004129999782890081,0.0030900000128895044,0.001769999973475933,12.163999557495117
6637.362896906779,1320948.0,0.0033199999015778303,0.0020000000949949026,-0.008899999782443047,11.993000030517578
6637.363896678702,1320949.0,0.004000000189989805,-0.00018000000272877514,-0.015440000221133232,12.265000343322754
6637.364896450625,1320950.0,0.005080000031739473,-0.0063599999994039536,-0.00989999994635582,12.163999557495117
6637.365896222547,1320951.0,0.006149999797344208,0.005450000055134296,-0.0016299999551847577,12.444999694824219
6637.36689599447,1320952.0,0.007459999993443489,0.001500000013038516,-0.004900000058114529,12.27400016784668
6637.367895766392,1320953.0,0.005659999791532755,-0.0034099998883903027,-0.004310000222176313,12.206000328063965
6637.368895538316,1320954.0,0.005030000116676092,-0.008539999835193157,-0.001820000004954636,12.206999778747559
6637.3698953102385,1320955.0,0.005799999926239252,0.002360000042244792,-0.002859999891370535,12.347000122070312
6637.370895082161,1320956.0,0.005570000037550926,0.006899999920278788,0.00031999999191612005,12.196000099182129
6637.371894854084,1320957.0,0.0052999998442828655,-0.004129999782890081,0.004809999838471413,11.932000160217285
6637.372894626006,1320958.0,0.004129999782890081,-0.0006399999838322401,0.000590000010561198,12.180000305175781
6637.37389439793,1320959.0,0.0037700000684708357,-0.010900000110268593,0.006490000057965517,12.244000434875488
6637.374894169852,1320960.0,0.003590000094845891,-0.009170000441372395,0.004360000137239695,12.305000305175781
6637.375893941775,1320961.0,0.004449999891221523,0.022520000115036964,0.002360000042244792,11.97700023651123
6637.376893713697,1320962.0,0.0037700000684708357,0.022339999675750732,0.0020000000949949026,12.22700023651123
6637.37789348562,1320963.0,0.002959999954327941,0.01679999940097332,0.012129999697208405,12.177000045776367
6637.378893257543,1320964.0,0.00279000005684793,-0.009630000218749046,0.010449999943375587,12.027000427246094
6637.379893029466,1320965.0,0.0026100000832229853,-0.016300000250339508,-0.0027199999894946814,11.77400016784668
6637.380892801389,1320966.0,0.0020699999295175076,-0.012129999697208405,-0.003269999986514449,12.015000343322754
6637.381892573311,1320967.0,0.0008999999845400453,-0.01679999940097332,-0.008449999615550041,12.157999992370605
6637.382892345234,1320968.0,-0.00018000000272877514,-0.01906999945640564,-0.009630000218749046,11.984000205993652
6637.383892117156,1320969.0,0.0003600000054575503,0.001449999981559813,0.0006399999838322401,11.78600025177002
6637.38489188908,1320970.0,0.0007600000244565308,0.00839999970048666,-0.0027199999894946814,11.956999778747559
6637.3858916610025,1320971.0,0.0009899999713525176,-0.0010900000343099236,-0.00418000016361475,11.932000160217285
6637.386891432925,1320972.0,0.0012600000482052565,-0.023429999127984047,0.0006399999838322401,11.928999900817871
6637.387891204848,1320973.0,0.0016199999954551458,-0.029610000550746918,-0.0063599999994039536,11.92300033569336
6637.38889097677,1320974.0,0.0016199999954551458,-0.014990000054240227,-0.008170000277459621,12.003000259399414
6637.389890748693,1320975.0,0.002199999988079071,-0.007360000163316727,0.0,11.902000427246094
6637.390890520616,1320976.0,0.0027000000700354576,0.006539999973028898,-0.005900000222027302,11.859000205993652
6637.391890292539,1320977.0,0.0014400000218302011,0.012350000441074371,-0.000910000002477318,11.847000122070312
6637.392890064461,1320978.0,0.0005799999926239252,-0.003449999960139394,0.004900000058114529,11.829000473022461
6637.393889836384,1320979.0,0.00044999999227002263,-0.0028200000524520874,0.00044999999227002263,11.8100004196167
6637.394889608307,1320980.0,0.0008999999845400453,0.009720000438392162,-0.003719999920576811,11.987000465393066
6637.39588938023,1320981.0,0.002199999988079071,0.0076299998909235,-0.005179999861866236,11.79800033569336
6637.396889152153,1320982.0,0.0034099998883903027,0.006180000025779009,-0.003449999960139394,11.788999557495117
6637.397888924075,1320983.0,0.003819999983534217,0.007579999975860119,0.004360000137239695,11.822999954223633
6637.398888695998,1320984.0,0.004579999949783087,0.005450000055134296,-0.0011399999493733048,11.92300033569336
6637.39988846792,1320985.0,0.004490000195801258,0.022120000794529915,0.007449999917298555,11.737000465393066
6637.400888239844,1320986.0,0.0035500000230968,0.04050999879837036,0.0063599999994039536,11.725000381469727
6637.4018880117665,1320987.0,0.0030499999411404133,0.0221599992364645,-0.00913000013679266,11.847000122070312
6637.402887783689,1320988.0,0.001979999942705035,0.006810000166296959,-0.001449999981559813,11.864999771118164
6637.403887555612,1320989.0,0.002520000096410513,-0.003719999920576811,0.001449999981559813,11.8100004196167
6637.404887327534,1320990.0,0.003860000055283308,-0.01752999983727932,-0.004720000084489584,11.630000114440918
6637.405887099458,1320991.0,0.0034099998883903027,-0.008270000107586384,-0.004449999891221523,11.822999954223633
6637.40688687138,1320992.0,0.002520000096410513,-0.009449999779462814,-0.00044999999227002263,11.609000205993652
6637.407886643303,1320993.0,0.0026100000832229853,-0.020349999889731407,-0.007809999864548445,11.642000198364258
6637.408886415225,1320994.0,0.003229999914765358,-0.018619999289512634,0.0012700000079348683,11.42300033569336
6637.409886187148,1320995.0,0.003590000094845891,-0.02816000021994114,0.00018000000272877514,11.626999855041504
6637.410885959071,1320996.0,0.004220000002533197,-0.025429999455809593,-0.000910000002477318,11.664999961853027
6637.411885730994,1320997.0,0.00547999981790781,-0.02442999929189682,0.004900000058114529,11.555000305175781
6637.412885502917,1320998.0,0.006020000204443932,-0.01071999967098236,0.0016299999551847577,11.553999900817871
6637.413885274839,1320999.0,0.006060000043362379,0.009259999729692936,-4.999999873689376e-05,11.513999938964844
6637.414885046762,1321000.0,0.005210000090301037,0.003719999920576811,0.003860000055283308,11.51099967956543
6637.415884818684,1321001.0,0.0052999998442828655,0.007809999864548445,-0.001180000021122396,11.52299976348877
6637.416884590608,1321002.0,0.004399999976158142,0.02174999937415123,0.00044999999227002263,11.468999862670898
6637.4178843625305,1321003.0,0.003949999809265137,0.023889999836683273,0.014530000276863575,11.633000373840332
6637.418884134453,1321004.0,0.004490000195801258,0.007079999893903732,-0.0007300000288523734,11.461999893188477
6637.419883906376,1321005.0,0.0034099998883903027,-0.004629999864846468,0.00018000000272877514,11.42300033569336
6637.420883678298,1321006.0,0.0027000000700354576,0.003449999960139394,-0.0021800000686198473,11.223999977111816
6637.421883450221,1321007.0,0.0030499999411404133,0.01448999997228384,-0.01988999918103218,11.416999816894531
6637.422883222144,1321008.0,0.0024300001095980406,0.005270000081509352,-0.009809999726712704,11.557000160217285
6637.423882994067,1321009.0,0.00215999991632998,0.0031799999997019768,-0.006630000192672014,11.355999946594238
6637.424882765989,1321010.0,0.002520000096410513,0.00872000027447939,-0.003000000026077032,11.281999588012695
6637.425882537912,1321011.0,0.0020699999295175076,0.004900000058114529,0.000910000002477318,11.345999717712402
6637.4268823098355,1321012.0,-9.000000136438757e-05,0.009630000218749046,0.00875999964773655,11.321999549865723
6637.427882081758,1321013.0,0.0003100000030826777,0.010900000110268593,-0.002090000081807375,11.315999984741211
6637.428881853681,1321014.0,0.001120000029914081,0.005539999809116125,0.0012700000079348683,11.07800006866455
6637.429881625603,1321015.0,0.0023399998899549246,0.000910000002477318,0.0,11.376999855041504
6637.430881397526,1321016.0,0.003949999809265137,-0.004269999917596579,-0.003449999960139394,11.321999549865723
6637.431881169448,1321017.0,0.0035000001080334187,0.02783999964594841,0.000539999979082495,11.413999557495117
6637.432880941372,1321018.0,0.003949999809265137,0.03579000011086464,-0.007360000163316727,11.395000457763672
6637.4338807132945,1321019.0,0.002959999954327941,0.023250000551342964,-0.006630000192672014,11.345999717712402
6637.434880485217,1321020.0,0.0025599999353289604,-0.00044999999227002263,-0.0012700000079348683,11.217000007629395
6637.43588025714,1321021.0,0.0023399998899549246,-0.02816000021994114,0.007079999893903732,11.229999542236328
6637.436880029062,1321022.0,0.0008999999845400453,-0.04295999929308891,0.006180000025779009,11.208000183105469
6637.437879800986,1321023.0,9.000000136438757e-05,-0.047589998692274094,0.004720000084489584,11.168000221252441
6637.438879572908,1321024.0,-0.00107999995816499,-0.0508200004696846,-0.0033599999733269215,11.043000221252441
6637.439879344831,1321025.0,-0.0014799999771639705,-0.025609999895095825,0.0031300000846385956,10.85200023651123
6637.440879116753,1321026.0,-0.0017999999690800905,-0.003809999907389283,-0.0063599999994039536,11.218000411987305
6637.441878888676,1321027.0,-0.00018000000272877514,0.00418000016361475,-0.005630000028759241,11.104999542236328
6637.442878660599,1321028.0,3.9999998989515007e-05,-0.005539999809116125,-0.0030900000128895044,10.918999671936035
6637.443878432522,1321029.0,0.0008999999845400453,-0.017799999564886093,0.007540000136941671,10.979999542236328
6637.444878204445,1321030.0,0.0017099999822676182,0.003220000071451068,0.016939999535679817,10.857999801635742
6637.445877976367,1321031.0,0.0016199999954551458,-0.0027199999894946814,-0.0012700000079348683,11.053000450134277
6637.44687774829,1321032.0,0.0017099999822676182,0.004000000189989805,-0.0021299999207258224,11.09000015258789
6637.447877520212,1321033.0,0.0017999999690800905,0.010540000163018703,-0.008899999782443047,11.017000198364258
6637.448877292136,1321034.0,0.0008999999845400453,0.006180000025779009,-0.006680000107735395,11.005000114440918
6637.4498770640585,1321035.0,0.00018000000272877514,0.01558000035583973,0.0010900000343099236,10.979999542236328
6637.450876835981,1321036.0,-0.0003600000054575503,0.022210000082850456,-0.0014100000262260437,10.86400032043457
6637.451876607904,1321037.0,0.00044999999227002263,0.00872000027447939,-0.000539999979082495,10.925000190734863
6637.452876379826,1321038.0,0.0012600000482052565,0.008899999782443047,0.006990000139921904,10.699000358581543
6637.45387615175,1321039.0,0.0017099999822676182,0.00535999983549118,-0.003719999920576811,10.979999542236328
6637.454875923672,1321040.0,0.0030499999411404133,0.007309999782592058,-0.0010900000343099236,10.883000373840332
6637.455875695595,1321041.0,0.003100000089034438,-9.000000136438757e-05,-0.00418000016361475,10.883000373840332
6637.456875467517,1321042.0,0.0033199999015778303,0.00018000000272877514,0.001180000021122396,10.944999694824219
6637.45787523944,1321043.0,0.004220000002533197,0.00798999983817339,0.000910000002477318,10.836999893188477
6637.4588750113635,1321044.0,0.0052999998442828655,0.010080000385642052,-0.005630000028759241,10.996999740600586
6637.459874783286,1321045.0,0.005439999978989363,0.007720000110566616,-0.0003600000054575503,10.84000015258789
6637.460874555209,1321046.0,0.005439999978989363,-0.0011399999493733048,-0.0030900000128895044,10.793000221252441
6637.461874327131,1321047.0,0.0053900000639259815,0.00031999999191612005,-0.007809999864548445,10.651000022888184
6637.462874099054,1321048.0,0.004629999864846468,-0.000539999979082495,-0.00880999956279993,10.809000015258789
6637.463873870976,1321049.0,0.004490000195801258,-0.004540000110864639,-0.004540000110864639,10.89799976348877
6637.4648736429,1321050.0,0.0037700000684708357,-0.0006399999838322401,0.0010900000343099236,10.77299976348877
6637.465873414822,1321051.0,0.0035500000230968,-0.0010900000343099236,0.006130000110715628,10.77299976348877
6637.466873186745,1321052.0,0.003590000094845891,0.015799999237060547,0.010219999589025974,10.718000411987305
6637.467872958668,1321053.0,0.0034099998883903027,0.009359999559819698,-0.00014000000373926014,10.701000213623047
6637.46887273059,1321054.0,0.0026100000832229853,-0.0016299999551847577,-0.000910000002477318,10.696000099182129
6637.469872502514,1321055.0,0.0016599999507889152,-0.00018000000272877514,-0.006539999973028898,10.680999755859375
6637.470872274436,1321056.0,-0.0006699999794363976,-0.018530000001192093,-0.006089999806135893,10.809000015258789
6637.471872046359,1321057.0,-0.00107999995816499,-0.01761999912559986,-0.004089999943971634,10.628999710083008
6637.472871818281,1321058.0,-0.0008999999845400453,-0.014349999837577343,-0.002859999891370535,10.62600040435791
6637.473871590204,1321059.0,-0.00215999991632998,-0.023339999839663506,0.004900000058114529,10.619000434875488
6637.474871362127,1321060.0,-0.0026100000832229853,-0.01107999961823225,0.01107999961823225,10.619000434875488
6637.47587113405,1321061.0,-0.002520000096410513,0.0029100000392645597,0.011989999562501907,10.309000015258789
6637.476870905973,1321062.0,-0.0022499999031424522,0.009259999729692936,0.006180000025779009,10.701000213623047
6637.477870677895,1321063.0,-0.0013899999903514981,0.007449999917298555,0.00494999997317791,10.553000450134277
6637.478870449818,1321064.0,-0.0003100000030826777,0.013399999588727951,-0.00535999983549118,10.519000053405762
6637.47987022174,1321065.0,0.0002699999895412475,-0.0012700000079348683,-0.0020000000949949026,10.506999969482422
6637.480869993664,1321066.0,0.0017099999822676182,-0.00418000016361475,-0.00875999964773655,10.61400032043457
6637.481869765586,1321067.0,0.0018899999558925629,-0.014399999752640724,-0.005630000028759241,10.494999885559082
6637.482869537509,1321068.0,0.0017999999690800905,-0.013620000332593918,-0.013260000385344028,10.468000411987305
6637.483869309432,1321069.0,0.00039999998989515007,-0.004449999891221523,-0.007079999893903732,10.5
6637.484869081354,1321070.0,-0.0008099999977275729,-0.017260000109672546,-0.005539999809116125,10.593000411987305
6637.485868853278,1321071.0,-0.002520000096410513,-0.0083600003272295,-0.004360000137239695,10.590999603271484
6637.4868686252,1321072.0,-0.0028299998957663774,-0.0024500000290572643,-0.007360000163316727,10.418999671936035
6637.487868397123,1321073.0,-0.004129999782890081,0.000910000002477318,-0.001820000004954636,10.532999992370605
6637.488868169045,1321074.0,-0.0048500001430511475,-0.0029100000392645597,0.0020000000949949026,10.394000053405762
6637.489867940968,1321075.0,-0.0048500001430511475,-0.0006399999838322401,0.0028200000524520874,10.475000381469727
6637.4908677128915,1321076.0,-0.005439999978989363,0.002409999957308173,0.0002699999895412475,10.39900016784668
6637.491867484814,1321077.0,-0.006289999932050705,0.00798999983817339,-0.0016299999551847577,10.348999977111816
6637.492867256737,1321078.0,-0.006560000125318766,0.01181000005453825,-0.000910000002477318,10.097000122070312
6637.493867028659,1321079.0,-0.007009999826550484,0.009759999811649323,-0.001449999981559813,10.442999839782715
6637.494866800582,1321080.0,-0.006649999879300594,-0.0025400000158697367,0.009039999917149544,10.336000442504883
6637.495866572504,1321081.0,-0.0053900000639259815,-0.008129999972879887,0.002630000002682209,10.260000228881836
6637.496866344428,1321082.0,-0.004670000169426203,0.000910000002477318,-0.0059899999760091305,10.045000076293945
6637.49786611635,1321083.0,-0.002520000096410513,0.00018000000272877514,-0.005270000081509352,10.284000396728516
6637.498865888273,1321084.0,0.0010300000431016088,-0.010940000414848328,-0.007449999917298555,10.333000183105469
6637.499865660196,1321085.0,0.004989999812096357,-0.005450000055134296,-0.0018599999602884054,10.211000442504883
6637.500865432118,1321086.0,0.007369999773800373,0.002409999957308173,0.004809999838471413,10.131999969482422
6637.501865204042,1321087.0,0.009519999846816063,0.00041000000783242285,0.0034099998883903027,10.1899995803833
6637.502864975964,1321088.0,0.010689999908208847,0.005539999809116125,-0.005090000107884407,10.161999702453613
6637.503864747887,1321089.0,0.012040000408887863,0.0059899999760091305,-4.999999873689376e-05,10.262999534606934
6637.504864519809,1321090.0,0.012400000356137753,-9.000000136438757e-05,0.0031799999997019768,9.958999633789062
6637.505864291732,1321091.0,0.011140000075101852,0.000910000002477318,-0.003449999960139394,10.260000228881836
6637.5068640636555,1321092.0,0.00925000011920929,-0.00018000000272877514,0.0003600000054575503,10.175000190734863
6637.507863835578,1321093.0,0.006380000151693821,0.01916000060737133,-0.005859999917447567,10.07699966430664
6637.508863607501,1321094.0,0.0033199999015778303,0.010040000081062317,-0.007180000189691782,9.954999923706055
6637.509863379423,1321095.0,0.0021100000012665987,0.01071999967098236,-0.002630000002682209,9.781000137329102
6637.510863151346,1321096.0,0.0021100000012665987,-0.0021299999207258224,-0.0012700000079348683,10.217000007629395
6637.511862923269,1321097.0,0.0030499999411404133,0.0221599992364645,-0.003809999907389283,10.003999710083008
6637.512862695192,1321098.0,0.004129999782890081,0.009039999917149544,0.0033599999733269215,9.857000350952148
6637.513862467114,1321099.0,0.004220000002533197,0.008170000277459621,-0.0030900000128895044,9.998000144958496
6637.514862239037,1321100.0,0.0048500001430511475,0.03959999978542328,-0.011629999615252018,9.982000350952148
6637.51586201096,1321101.0,0.005929999984800816,0.007269999943673611,-0.008080000057816505,10.010000228881836
6637.516861782882,1321102.0,0.0052999998442828655,-0.02806999906897545,-0.014170000329613686,9.991000175476074
6637.517861554806,1321103.0,0.0035000001080334187,-0.05104000121355057,-0.00953999999910593,9.954999923706055
6637.518861326728,1321104.0,0.0018899999558925629,-0.06629999727010727,-0.0030900000128895044,9.970000267028809
6637.519861098651,1321105.0,0.0017999999690800905,-0.06767000257968903,-0.0030900000128895044,10.052000045776367
6637.520860870573,1321106.0,0.0018400000408291817,-0.04481999948620796,-0.007180000189691782,10.057000160217285
6637.521860642496,1321107.0,0.0017999999690800905,-0.02071000076830387,0.006490000057965517,9.942999839782715
6637.5228604144195,1321108.0,0.001979999942705035,-0.015440000221133232,0.002589999930933118,9.875
6637.523860186342,1321109.0,0.002199999988079071,-0.013989999890327454,0.004360000137239695,9.625
6637.524859958265,1321110.0,0.003100000089034438,0.0062699997797608376,0.013439999893307686,9.958000183105469
6637.525859730187,1321111.0,0.00107999995816499,-0.005900000222027302,0.007899999618530273,9.82699966430664
6637.52685950211,1321112.0,0.003590000094845891,0.00872000027447939,0.012719999998807907,9.717000007629395
6637.527859274032,1321113.0,0.005750000011175871,0.027879999950528145,0.014259999617934227,9.821000099182129
6637.528859045956,1321114.0,0.0048500001430511475,0.030789999291300774,0.0024500000290572643,9.722999572753906
6637.529858817878,1321115.0,0.0053900000639259815,0.023070000112056732,0.007269999943673611,9.923999786376953
6637.530858589801,1321116.0,0.004310000222176313,0.010850000195205212,0.0021299999207258224,9.760000228881836
6637.531858361724,1321117.0,0.004310000222176313,0.012810000218451023,-0.004449999891221523,9.730999946594238
6637.532858133646,1321118.0,0.004220000002533197,0.01761999912559986,-0.009949999861419201,9.73799991607666
6637.53385790557,1321119.0,0.005210000090301037,0.0063599999994039536,-0.007720000110566616,9.814000129699707
6637.534857677492,1321120.0,0.005710000172257423,-0.002630000002682209,-0.009449999779462814,9.685999870300293
6637.535857449415,1321121.0,0.005929999984800816,-0.004720000084489584,-0.0016299999551847577,9.425000190734863
6637.536857221337,1321122.0,0.007369999773800373,0.007360000163316727,-0.0002699999895412475,9.824000358581543
6637.53785699326,1321123.0,0.008089999668300152,-4.999999873689376e-05,-0.001449999981559813,9.704999923706055
6637.5388567651835,1321124.0,0.008310000412166119,0.0016299999551847577,-0.004629999864846468,9.621000289916992
6637.539856537106,1321125.0,0.008270000107586384,0.01489999983459711,-0.006680000107735395,9.612000465393066
6637.540856309029,1321126.0,0.008630000054836273,0.017890000715851784,-0.004900000058114529,9.491000175476074
6637.541856080951,1321127.0,0.007860000245273113,0.015490000136196613,-0.004900000058114529,9.722999572753906
6637.542855852874,1321128.0,0.006649999879300594,0.006719999946653843,-0.008449999615550041,9.335000038146973
6637.543855624797,1321129.0,0.005659999791532755,0.001449999981559813,-0.002360000042244792,9.586000442504883
6637.54485539672,1321130.0,0.005260000005364418,-0.0021800000686198473,-0.008449999615550041,9.545999526977539
6637.545855168642,1321131.0,0.005570000037550926,-0.020800000056624413,-0.003909999970346689,9.678999900817871
6637.546854940565,1321132.0,0.00646999990567565,-0.02434000000357628,0.0017300000181421638,9.520999908447266
6637.547854712488,1321133.0,0.00610999995842576,-0.021980000659823418,-0.006630000192672014,9.246999740600586
6637.54885448441,1321134.0,0.005260000005364418,-0.033330000936985016,-0.0016299999551847577,9.479000091552734
6637.549854256334,1321135.0,0.004670000169426203,-0.017170000821352005,-0.0012700000079348683,9.473999977111816
6637.550854028256,1321136.0,0.0048500001430511475,-0.000910000002477318,0.007449999917298555,9.539999961853027
6637.551853800179,1321137.0,0.005929999984800816,0.002360000042244792,0.007360000163316727,9.267000198364258
6637.552853572101,1321138.0,0.00674000009894371,-0.01071999967098236,0.005450000055134296,9.439000129699707
6637.553853344024,1321139.0,0.006649999879300594,-0.0025400000158697367,0.004000000189989805,9.569999694824219
6637.5548531159475,1321140.0,0.00610999995842576,0.0051299999468028545,-0.0010900000343099236,9.406000137329102
6637.55585288787,1321141.0,0.006829999852925539,0.006990000139921904,-0.001769999973475933,9.35099983215332
6637.556852659793,1321142.0,0.006829999852925539,0.009449999779462814,-0.0016299999551847577,9.234999656677246
6637.557852431715,1321143.0,0.005659999791532755,0.008899999782443047,0.003719999920576811,9.51099967956543
6637.558852203638,1321144.0,0.005929999984800816,0.001449999981559813,0.002409999957308173,9.333999633789062
6637.55985197556,1321145.0,0.00646999990567565,0.007449999917298555,0.006719999946653843,9.23799991607666
6637.560851747484,1321146.0,0.005750000011175871,0.002409999957308173,-0.0025400000158697367,9.357000350952148
6637.561851519406,1321147.0,0.006649999879300594,0.009259999729692936,-0.004900000058114529,9.282999992370605
6637.562851291329,1321148.0,0.00674000009894371,0.008990000002086163,0.0,9.276000022888184
6637.563851063252,1321149.0,0.007369999773800373,0.005900000222027302,-0.006899999920278788,9.282999992370605
6637.564850835174,1321150.0,0.007369999773800373,0.020069999620318413,-0.0062699997797608376,9.232000350952148
6637.565850607098,1321151.0,0.006380000151693821,0.02102999947965145,-0.002360000042244792,9.390000343322754
6637.56685037902,1321152.0,0.005210000090301037,0.034060001373291016,-0.003590000094845891,9.307999610900879
6637.567850150943,1321153.0,0.005570000037550926,0.017669999971985817,-0.005539999809116125,9.16100025177002
6637.568849922865,1321154.0,0.005210000090301037,0.013260000385344028,-0.004310000222176313,9.215999603271484
6637.569849694788,1321155.0,0.003819999983534217,0.014349999837577343,-0.004360000137239695,9.180000305175781
6637.5708494667115,1321156.0,0.003590000094845891,-0.0029100000392645597,-0.001180000021122396,9.307999610900879
6637.571849238634,1321157.0,0.003819999983534217,-0.02761000022292137,-0.00418000016361475,9.152000427246094
6637.572849010557,1321158.0,0.004310000222176313,-0.04795999825000763,-0.010490000247955322,9.13700008392334
6637.573848782479,1321159.0,0.004129999782890081,-0.05040999874472618,-0.009809999726712704,9.11299991607666
6637.574848554402,1321160.0,0.004040000028908253,-0.046870000660419464,0.0025400000158697367,9.258999824523926
6637.575848326325,1321161.0,0.0037700000684708357,-0.045409999787807465,0.0021299999207258224,9.088000297546387
6637.576848098248,1321162.0,0.0037700000684708357,-0.03061000071465969,0.0013599999947473407,8.935999870300293
6637.57784787017,1321163.0,0.0030499999411404133,-0.0368800014257431,0.000910000002477318,9.064000129699707
6637.578847642093,1321164.0,0.00215999991632998,-0.012810000218451023,0.003949999809265137,9.055000305175781
6637.579847414016,1321165.0,0.002959999954327941,0.01331000030040741,0.010449999943375587,9.072999954223633
6637.580847185938,1321166.0,0.00279000005684793,0.008630000054836273,0.006769999861717224,9.142999649047852
6637.581846957862,1321167.0,0.0034600000362843275,0.01761999912559986,0.008899999782443047,9.005999565124512
6637.582846729784,1321168.0,0.005030000116676092,0.027249999344348907,0.001769999973475933,8.831999778747559
6637.583846501707,1321169.0,0.005659999791532755,0.04413999989628792,0.000910000002477318,8.989999771118164
6637.584846273629,1321170.0,0.0048500001430511475,0.04351000115275383,0.0030900000128895044,8.960000038146973
6637.585846045552,1321171.0,0.005030000116676092,0.026340000331401825,-0.01143999956548214,8.946000099182129
6637.5868458174755,1321172.0,0.006200000178068876,0.0031799999997019768,-0.007400000002235174,8.932000160217285
6637.587845589398,1321173.0,0.005929999984800816,-0.00880999956279993,-0.0062699997797608376,8.954000473022461
6637.588845361321,1321174.0,0.0052999998442828655,-0.009259999729692936,-0.009720000438392162,8.935999870300293
6637.589845133243,1321175.0,0.004310000222176313,-0.015440000221133232,-0.008899999782443047,8.960000038146973
6637.590844905166,1321176.0,0.004310000222176313,-0.005770000163465738,-0.01066999975591898,8.972000122070312
6637.591844677089,1321177.0,0.004310000222176313,-0.0020000000949949026,-0.007360000163316727,9.003000259399414
6637.592844449012,1321178.0,0.0048500001430511475,-0.004089999943971634,-0.007449999917298555,8.62399959564209
6637.593844220934,1321179.0,0.004670000169426203,0.0006399999838322401,-0.000910000002477318,8.895999908447266
6637.594843992857,1321180.0,0.0047599999234080315,-0.004269999917596579,0.00571999978274107,8.859000205993652
6637.59584376478,1321181.0,0.004129999782890081,-0.002360000042244792,0.0051299999468028545,8.92300033569336
6637.596843536703,1321182.0,0.003949999809265137,0.00418000016361475,0.0016799999866634607,8.770999908447266
6637.597843308626,1321183.0,0.003590000094845891,0.000590000010561198,-0.003719999920576811,8.64900016784668
6637.598843080548,1321184.0,0.00107999995816499,0.004269999917596579,0.0016299999551847577,8.89900016784668
6637.599842852471,1321185.0,-0.00018000000272877514,-0.0020000000949949026,0.009630000218749046,8.75100040435791
6637.600842624393,1321186.0,0.0014400000218302011,-0.013939999975264072,-0.005179999861866236,8.739999771118164
6637.601842396316,1321187.0,0.004490000195801258,-0.006490000057965517,-0.0015399999683722854,8.722000122070312
6637.6028421682395,1321188.0,0.0035000001080334187,0.002360000042244792,0.0007300000288523734,8.74899959564209
6637.603841940162,1321189.0,0.0016199999954551458,0.0024999999441206455,-0.009080000221729279,8.822999954223633
6637.604841712085,1321190.0,-0.0008999999845400453,-0.005590000189840794,-0.003449999960139394,8.67300033569336
6637.605841484007,1321191.0,-0.0016199999954551458,-0.009080000221729279,-0.0063599999994039536,8.569000244140625
6637.60684125593,1321192.0,-0.0008999999845400453,-0.01671000011265278,-0.007809999864548445,8.795000076293945
6637.607841027853,1321193.0,-9.000000136438757e-05,0.00913000013679266,-0.0021800000686198473,8.779999732971191
6637.608840799776,1321194.0,0.0006699999794363976,0.020349999889731407,0.0029100000392645597,8.67300033569336
6637.609840571698,1321195.0,0.0008999999845400453,0.012029999867081642,0.004000000189989805,8.562999725341797
6637.610840343621,1321196.0,0.00022000000171829015,0.017260000109672546,0.005900000222027302,8.6850004196167
6637.611840115544,1321197.0,0.0014400000218302011,0.016529999673366547,-0.003590000094845891,8.602999687194824
6637.612839887466,1321198.0,0.0016199999954551458,0.018069999292492867,-0.00041000000783242285,8.605999946594238
6637.61383965939,1321199.0,0.00107999995816499,0.01638999953866005,0.0007699999841861427,8.517000198364258
6637.614839431312,1321200.0,0.0007200000109151006,0.0013599999947473407,0.004540000110864639,8.39799976348877
6637.615839203235,1321201.0,-0.0012600000482052565,-0.012400000356137753,0.003220000071451068,8.571000099182129
6637.616838975157,1321202.0,-0.002520000096410513,-0.015030000358819962,-0.005090000107884407,8.368000030517578
6637.61783874708,1321203.0,-0.0024300001095980406,-0.02043999917805195,-0.007449999917298555,8.541999816894531
6637.6188385190035,1321204.0,-0.0036800000816583633,-0.006089999806135893,-0.0025400000158697367,8.467000007629395
6637.619838290926,1321205.0,-0.006289999932050705,-0.014310000464320183,-0.004040000028908253,8.475000381469727
6637.620838062849,1321206.0,-0.009519999846816063,-0.01066999975591898,-0.0045900000259280205,8.600000381469727
6637.621837834771,1321207.0,-0.014059999957680702,-0.008539999835193157,-0.00018000000272877514,8.41100025177002
6637.622837606694,1321208.0,-0.018689999356865883,0.001449999981559813,0.002360000042244792,8.571000099182129
6637.623837378617,1321209.0,-0.022690000012516975,0.003809999907389283,0.003809999907389283,8.416999816894531
6637.62483715054,1321210.0,-0.024979999288916588,-0.0021299999207258224,0.004360000137239695,8.39799976348877
6637.625836922462,1321211.0,-0.025520000606775284,0.000910000002477318,-0.0012700000079348683,8.383000373840332
6637.626836694385,1321212.0,-0.02606000006198883,9.000000136438757e-05,-0.008899999782443047,8.352999687194824
6637.627836466308,1321213.0,-0.026410000398755074,-0.021980000659823418,-0.001769999973475933,8.347000122070312
6637.628836238231,1321214.0,-0.026410000398755074,-0.017079999670386314,0.007449999917298555,8.350000381469727
6637.629836010154,1321215.0,-0.027089999988675117,-0.0028200000524520874,-0.0033599999733269215,8.21500015258789
6637.630835782076,1321216.0,-0.028750000521540642,0.0129399998113513,-0.005539999809116125,8.307000160217285
6637.631835553999,1321217.0,-0.030729999765753746,0.00803999975323677,-0.003449999960139394,8.303999900817871
6637.632835325921,1321218.0,-0.032519999891519547,0.0016299999551847577,-0.004310000222176313,8.383000373840332
6637.633835097844,1321219.0,-0.03432000055909157,0.009259999729692936,-0.0010900000343099236,8.14799976348877
6637.6348348697675,1321220.0,-0.034860000014305115,0.0083600003272295,0.005630000028759241,8.392000198364258
6637.63583464169,1321221.0,-0.03531000018119812,0.0030900000128895044,-0.004540000110864639,8.237000465393066
6637.636834413613,1321222.0,-0.036389999091625214,0.0076299998909235,0.004360000137239695,8.362000465393066
6637.637834185535,1321223.0,-0.03539999946951866,-0.0027199999894946814,0.0025400000158697367,8.350000381469727
6637.638833957458,1321224.0,-0.03491000086069107,0.0002300000051036477,-0.0029100000392645597,8.258000373840332
6637.639833729381,1321225.0,-0.03387000039219856,-0.00571999978274107,-0.0027199999894946814,8.1850004196167
6637.640833501304,1321226.0,-0.0354899987578392,-0.006810000166296959,-0.006089999806135893,8.211000442504883
6637.641833273226,1321227.0,-0.03602999821305275,-0.006899999920278788,-0.005539999809116125,8.114999771118164
6637.642833045149,1321228.0,-0.03751000016927719,-4.999999873689376e-05,-0.005450000055134296,7.929999828338623
6637.643832817072,1321229.0,-0.04016000032424927,0.006719999946653843,0.0018599999602884054,8.13599967956543
6637.644832588995,1321230.0,-0.04222999885678291,0.003539999946951866,-0.0012700000079348683,8.109000205993652
6637.645832360918,1321231.0,-0.04650000110268593,0.0016299999551847577,-0.005859999917447567,8.118000030517578
6637.64683213284,1321232.0,-0.04879000037908554,0.011850000359117985,-0.00571999978274107,8.020000457763672
6637.647831904763,1321233.0,-0.050220001488924026,0.01689000055193901,-0.000910000002477318,8.234000205993652
6637.648831676685,1321234.0,-0.050850000232458115,0.017260000109672546,-0.006719999946653843,8.161999702453613
6637.649831448609,1321235.0,-0.0524200014770031,0.014990000054240227,-0.001180000021122396,8.09000015258789
6637.6508312205315,1321236.0,-0.055479999631643295,0.002360000042244792,0.00418000016361475,8.005000114440918
6637.651830992454,1321237.0,-0.060109999030828476,0.010080000385642052,-0.00041000000783242285,8.163000106811523
6637.652830764377,1321238.0,-0.06649000197649002,0.026569999754428864,-0.004310000222176313,8.008000373840332
6637.653830536299,1321239.0,-0.07187999784946442,0.009809999726712704,0.0012700000079348683,7.947999954223633
6637.654830308222,1321240.0,-0.07547000050544739,-0.02247999981045723,-0.000910000002477318,7.7820000648498535
6637.655830080145,1321241.0,-0.07717999815940857,-0.04301000013947487,-0.004269999917596579,7.995999813079834
6637.656829852068,1321242.0,-0.07739999890327454,-0.04558999836444855,-0.0036299999337643385,7.953000068664551
6637.65782962399,1321243.0,-0.07492999732494354,-0.056859999895095825,-0.003449999960139394,7.980000019073486
6637.658829395913,1321244.0,-0.06797000020742416,-0.06448999792337418,0.0027199999894946814,7.880000114440918
6637.659829167836,1321245.0,-0.0568699985742569,-0.05172999948263168,0.01071999967098236,7.955999851226807
6637.660828939759,1321246.0,-0.04456000030040741,-0.02043999917805195,0.0059899999760091305,7.995999813079834
6637.661828711682,1321247.0,-0.03413999825716019,0.008899999782443047,-0.0019499999471008778,8.027999877929688
6637.662828483604,1321248.0,-0.0258799996227026,0.010449999943375587,-0.0016299999551847577,7.709000110626221
6637.663828255527,1321249.0,-0.018640000373125076,0.020069999620318413,0.0016299999551847577,7.895999908447266
6637.664828027449,1321250.0,-0.012670000083744526,0.05400000140070915,-0.001820000004954636,7.85699987411499
6637.665827799372,1321251.0,-0.005840000230818987,0.05285999923944473,0.003220000071451068,7.848999977111816
6637.6668275712955,1321252.0,0.003590000094845891,0.050859998911619186,-0.00418000016361475,7.769999980926514
6637.667827343218,1321253.0,0.012400000356137753,0.04363999888300896,-0.013810000382363796,7.573999881744385
6637.668827115141,1321254.0,0.017430000007152557,0.05503999814391136,-0.0063599999994039536,7.933000087738037
6637.669826887063,1321255.0,0.02191999927163124,0.015300000086426735,-0.000539999979082495,7.764999866485596
6637.670826658986,1321256.0,0.027720000594854355,-0.024660000577569008,-0.007079999893903732,7.586999893188477
6637.671826430909,1321257.0,0.035259999334812164,-0.048409998416900635,-0.0059899999760091305,7.776000022888184
6637.672826202832,1321258.0,0.04374999925494194,-0.05967000126838684,-0.000910000002477318,7.86899995803833
6637.673825974754,1321259.0,0.05192999914288521,-0.06325999647378922,0.0016799999866634607,7.818999767303467
6637.674825746677,1321260.0,0.05754999816417694,-0.06621000170707703,0.004900000058114529,7.711999893188477
6637.6758255186,1321261.0,0.06046999990940094,-0.047680001705884933,0.0030900000128895044,7.6519999504089355
6637.676825290523,1321262.0,0.060600001364946365,-0.009809999726712704,0.007899999618530273,7.806000232696533
6637.677825062446,1321263.0,0.061719998717308044,0.013899999670684338,0.004999999888241291,7.63700008392334
6637.678824834368,1321264.0,0.06387999653816223,0.02053000032901764,0.003590000094845891,7.508999824523926
6637.679824606291,1321265.0,0.06738000363111496,0.009080000221729279,0.007449999917298555,7.6539998054504395
6637.680824378213,1321266.0,0.0705299973487854,0.024159999564290047,0.0019099999917671084,7.567999839782715
6637.681824150137,1321267.0,0.07152000069618225,0.029249999672174454,-0.010809999890625477,7.750999927520752
6637.6828239220595,1321268.0,0.0733100026845932,0.02761000022292137,-0.003449999960139394,7.586999893188477
6637.683823693982,1321269.0,0.0752900019288063,0.012620000168681145,-0.0025400000158697367,7.732999801635742
6637.684823465905,1321270.0,0.0763700008392334,0.003719999920576811,-0.0003600000054575503,7.665999889373779
6637.685823237827,1321271.0,0.07507000118494034,0.005270000081509352,0.006719999946653843,7.513000011444092
6637.68682300975,1321272.0,0.07062000036239624,0.008990000002086163,-0.0063599999994039536,7.6539998054504395
6637.687822781673,1321273.0,0.06369999796152115,0.004679999779909849,-0.0020000000949949026,7.5269999504089355
6637.688822553596,1321274.0,0.056060001254081726,0.005630000028759241,-0.003269999986514449,7.317999839782715
6637.689822325518,1321275.0,0.0481100007891655,0.0059899999760091305,-0.006990000139921904,7.544000148773193
6637.690822097441,1321276.0,0.04191000014543533,0.00535999983549118,-0.008899999782443047,7.494999885559082
6637.691821869364,1321277.0,0.03612000122666359,0.007269999943673611,-0.008170000277459621,7.515999794006348
6637.692821641287,1321278.0,0.03109000064432621,0.005090000107884407,-0.0062699997797608376,7.465000152587891
6637.69382141321,1321279.0,0.02703999914228916,0.001449999981559813,-0.0021800000686198473,7.21999979019165
6637.694821185132,1321280.0,0.023809999227523804,-0.003449999960139394,-0.0037700000684708357,7.446000099182129
6637.695820957055,1321281.0,0.02111000008881092,-0.0072200000286102295,0.000910000002477318,7.329999923706055
6637.696820728977,1321282.0,0.018959999084472656,-0.0076299998909235,0.0016299999551847577,7.202000141143799
6637.6978205009,1321283.0,0.01679999940097332,0.008310000412166119,-0.003809999907389283,7.379000186920166
6637.6988202728235,1321284.0,0.012040000408887863,0.005450000055134296,0.009630000218749046,7.184000015258789
6637.699820044746,1321285.0,0.00795000046491623,-0.017389999702572823,0.0083600003272295,7.372000217437744
6637.700819816669,1321286.0,0.0047599999234080315,-0.021980000659823418,0.003809999907389283,7.349999904632568
6637.701819588591,1321287.0,0.0027000000700354576,-0.028880000114440918,0.004769999999552965,7.3429999351501465
6637.702819360514,1321288.0,0.0023399998899549246,-0.022339999675750732,0.0025400000158697367,7.436999797821045
6637.703819132437,1321289.0,0.00215999991632998,-0.01375999953597784,-0.0007699999841861427,7.275000095367432
6637.70481890436,1321290.0,0.0017099999822676182,-0.005270000081509352,0.007449999917298555,7.415999889373779
6637.705818676282,1321291.0,0.0015300000086426735,-0.0025400000158697367,-0.0025400000158697367,7.281000137329102
6637.706818448205,1321292.0,0.0015300000086426735,-0.000910000002477318,-0.002319999970495701,7.323999881744385
6637.707818220128,1321293.0,-0.0016199999954551458,0.007540000136941671,-0.002589999930933118,7.27400016784668
6637.708817992051,1321294.0,-0.001979999942705035,0.011989999562501907,-0.0027199999894946814,7.208000183105469
6637.709817763974,1321295.0,-0.0012100000167265534,0.01107999961823225,-0.0007300000288523734,7.21999979019165
6637.710817535896,1321296.0,-0.0016199999954551458,0.006769999861717224,-0.009259999729692936,7.0279998779296875
6637.711817307819,1321297.0,-0.0034099998883903027,0.003809999907389283,-0.006899999920278788,7.184000015258789
6637.712817079741,1321298.0,-0.0048500001430511475,0.016759999096393585,-0.009809999726712704,7.21999979019165
6637.713816851665,1321299.0,-0.0053900000639259815,0.0368800014257431,-0.009170000441372395,7.184000015258789
6637.7148166235875,1321300.0,-0.0048500001430511475,0.040869999676942825,0.0016299999551847577,7.296999931335449
6637.71581639551,1321301.0,-0.0035000001080334187,0.018570000305771828,0.0033599999733269215,6.953000068664551
6637.716816167433,1321302.0,-0.003860000055283308,-0.004360000137239695,-0.004769999999552965,7.123000144958496
6637.717815939355,1321303.0,-0.004040000028908253,-0.021619999781250954,-0.00018000000272877514,7.21999979019165
6637.718815711278,1321304.0,-0.0034099998883903027,-0.037870001047849655,-0.009080000221729279,7.0920000076293945
6637.719815483201,1321305.0,-0.0023399998899549246,-0.04292000085115433,-0.007079999893903732,7.073999881744385
6637.720815255124,1321306.0,-0.0028800000436604023,-0.041189998388290405,0.0036299999337643385,6.955999851226807
6637.721815027046,1321307.0,-0.0031399999279528856,-0.03020000085234642,-0.002589999930933118,7.210999965667725
6637.722814798969,1321308.0,-0.0037700000684708357,-0.02442999929189682,-0.006180000025779009,7.063000202178955
6637.723814570892,1321309.0,-0.004399999976158142,-0.01979999989271164,0.0009500000160187483,6.979000091552734
6637.724814342815,1321310.0,-0.003949999809265137,-0.009080000221729279,-0.000539999979082495,7.077000141143799
6637.725814114738,1321311.0,-0.004040000028908253,0.013120000250637531,0.0021299999207258224,7.050000190734863
6637.72681388666,1321312.0,-0.004310000222176313,0.03451000154018402,0.002360000042244792,7.020999908447266
6637.727813658583,1321313.0,-0.004490000195801258,0.034790001809597015,0.00018000000272877514,6.940000057220459
6637.728813430505,1321314.0,-0.004490000195801258,0.03043000027537346,0.000539999979082495,7.104000091552734
6637.729813202429,1321315.0,-0.004129999782890081,0.019440000876784325,0.005270000081509352,6.96999979019165
6637.7308129743515,1321316.0,-0.003590000094845891,0.017349999397993088,-0.0016299999551847577,6.994999885559082
6637.731812746274,1321317.0,-0.00215999991632998,0.01071999967098236,0.0012700000079348683,7.085999965667725
6637.732812518197,1321318.0,-0.0013500000350177288,-0.0020000000949949026,0.0010000000474974513,6.890999794006348
6637.733812290119,1321319.0,-3.9999998989515007e-05,-0.006949999835342169,-0.005539999809116125,7.046999931335449
6637.734812062043,1321320.0,-0.0008999999845400453,-0.009080000221729279,-0.007449999917298555,6.890999794006348
6637.735811833965,1321321.0,-0.0012600000482052565,-0.012260000221431255,-0.007180000189691782,6.829999923706055
6637.736811605888,1321322.0,-0.00279000005684793,-0.01375999953597784,-0.012900000438094139,6.683000087738037
6637.73781137781,1321323.0,-0.0027000000700354576,-0.029929999262094498,0.000910000002477318,6.9029998779296875
6637.738811149733,1321324.0,-0.00215999991632998,-0.0076299998909235,0.003590000094845891,6.859000205993652
6637.739810921656,1321325.0,-0.0008999999845400453,-0.014170000329613686,0.009259999729692936,6.690999984741211
6637.740810693579,1321326.0,-0.0009899999713525176,-0.011719999834895134,-0.0016299999551847577,6.916999816894531
6637.741810465502,1321327.0,9.000000136438757e-05,-0.017799999564886093,-0.004089999943971634,6.84499979019165
6637.742810237424,1321328.0,0.00044999999227002263,-0.010990000329911709,0.0059899999760091305,6.793000221252441
6637.743810009347,1321329.0,-3.9999998989515007e-05,-0.004769999999552965,0.0063599999994039536,6.797999858856201
6637.744809781269,1321330.0,-0.00107999995816499,-0.0012700000079348683,0.003000000026077032,6.890999794006348
6637.745809553193,1321331.0,-0.00215999991632998,0.005270000081509352,0.0013599999947473407,6.760000228881836
6637.7468093251155,1321332.0,-0.003229999914765358,0.017079999670386314,-0.007079999893903732,6.560999870300293
6637.747809097038,1321333.0,-0.004040000028908253,0.040150001645088196,-0.009850000031292439,6.73799991607666
6637.748808868961,1321334.0,-0.004490000195801258,0.03342000022530556,-0.002360000042244792,6.7230000495910645
6637.749808640883,1321335.0,-0.004089999943971634,0.015080000273883343,-0.005270000081509352,6.73199987411499
6637.750808412806,1321336.0,-0.0030499999411404133,-0.00418000016361475,-0.0030900000128895044,6.6539998054504395
6637.751808184729,1321337.0,-0.0017099999822676182,-0.019619999453425407,-4.999999873689376e-05,6.808000087738037
6637.752807956652,1321338.0,-0.0012600000482052565,-0.02834000065922737,-0.0012700000079348683,6.658999919891357
6637.753807728574,1321339.0,-0.000539999979082495,-0.018939999863505363,-0.00018000000272877514,6.7779998779296875
6637.754807500497,1321340.0,0.00018000000272877514,-0.014440000057220459,-0.003449999960139394,6.763000011444092
6637.75580727242,1321341.0,0.0003600000054575503,-0.00872000027447939,-0.009990000165998936,6.708000183105469
6637.756807044343,1321342.0,0.0003600000054575503,0.0030900000128895044,-0.004449999891221523,6.635000228881836
6637.757806816266,1321343.0,0.0007200000109151006,0.0027199999894946814,-0.0015399999683722854,6.5370001792907715
6637.758806588188,1321344.0,0.0008999999845400453,0.004040000028908253,-0.0016299999551847577,6.708000183105469
6637.759806360111,1321345.0,0.0002699999895412475,0.005090000107884407,0.000910000002477318,6.526000022888184
6637.760806132033,1321346.0,0.00022000000171829015,0.006130000110715628,-0.0012700000079348683,6.525000095367432
6637.761805903957,1321347.0,0.0009899999713525176,0.013439999893307686,0.00880999956279993,6.47599983215332
6637.7628056758795,1321348.0,0.00215999991632998,0.008310000412166119,-0.003449999960139394,6.59499979019165
6637.763805447802,1321349.0,0.0023399998899549246,0.0020000000949949026,-0.0027199999894946814,6.525000095367432
6637.764805219725,1321350.0,0.00107999995816499,0.00418000016361475,0.006130000110715628,6.464000225067139
6637.765804991647,1321351.0,-0.000539999979082495,-0.00018000000272877514,0.0035000001080334187,6.304999828338623
6637.766804763571,1321352.0,-0.0008999999845400453,0.0024500000290572643,0.010169999673962593,6.5279998779296875
6637.767804535493,1321353.0,-0.0013500000350177288,-0.003269999986514449,0.010080000385642052,6.499000072479248
6637.768804307416,1321354.0,0.0007600000244565308,-0.0020000000949949026,0.005900000222027302,6.464000225067139
6637.769804079338,1321355.0,0.0027000000700354576,-0.0017300000181421638,-0.006130000110715628,6.459000110626221
6637.770803851261,1321356.0,0.004129999782890081,-0.0076299998909235,-0.011989999562501907,6.216000080108643
6637.771803623184,1321357.0,0.005119999870657921,-0.010900000110268593,-0.007449999917298555,6.418000221252441
6637.772803395107,1321358.0,0.004989999812096357,-0.003000000026077032,-0.002950000111013651,6.406000137329102
6637.77380316703,1321359.0,0.0035500000230968,0.019120000302791595,-0.00798999983817339,6.414999961853027
6637.774802938952,1321360.0,0.0035000001080334187,0.031060000881552696,0.00044999999227002263,6.189000129699707
6637.775802710875,1321361.0,0.0024300001095980406,0.0221599992364645,-0.005450000055134296,6.328999996185303
6637.776802482797,1321362.0,0.0017999999690800905,0.013989999890327454,-0.007360000163316727,6.418000221252441
6637.777802254721,1321363.0,0.0008999999845400453,-0.005489999894052744,-0.00418000016361475,6.47599983215332
6637.7788020266435,1321364.0,-0.0004900000058114529,-0.02053000032901764,0.0010400000028312206,6.435999870300293
6637.779801798566,1321365.0,0.0006300000241026282,-0.03959999978542328,-0.003809999907389283,6.247000217437744
6637.780801570489,1321366.0,0.0027000000700354576,-0.040780000388622284,0.0021800000686198473,6.429999828338623
6637.781801342411,1321367.0,0.0017500000540167093,-0.03796999901533127,-0.004540000110864639,6.276000022888184
6637.782801114334,1321368.0,0.0014799999771639705,-0.03641999885439873,0.0003600000054575503,6.195000171661377
6637.783800886257,1321369.0,0.0006300000241026282,-0.007180000189691782,0.002360000042244792,6.065000057220459
6637.78480065818,1321370.0,-9.000000136438757e-05,0.04795999825000763,0.013899999670684338,6.270999908447266
6637.785800430102,1321371.0,-0.0023399998899549246,0.02525000087916851,0.013899999670684338,6.2870001792907715
6637.786800202025,1321372.0,-0.0030499999411404133,-0.014170000329613686,0.010449999943375587,6.23199987411499
6637.7877999739485,1321373.0,-0.0030499999411404133,-0.025200000032782555,-0.006539999973028898,6.15500020980835
6637.788799745871,1321374.0,-0.0027000000700354576,-0.0010400000028312206,-0.015890000388026237,6.195000171661377
6637.789799517794,1321375.0,-0.002520000096410513,0.001449999981559813,-0.007540000136941671,6.195000171661377
6637.790799289716,1321376.0,-0.0034099998883903027,-0.007269999943673611,-0.009259999729692936,6.177000045776367
6637.791799061639,1321377.0,-0.004040000028908253,-0.00018000000272877514,0.005270000081509352,6.0970001220703125
6637.792798833561,1321378.0,-0.004670000169426203,-0.004129999782890081,0.004360000137239695,6.258999824523926
6637.793798605485,1321379.0,-0.003640000009909272,-0.001820000004954636,-0.0015399999683722854,6.151000022888184
6637.7947983774075,1321380.0,-0.00215999991632998,0.001180000021122396,0.0011399999493733048,6.216000080108643
6637.79579814933,1321381.0,-0.0008099999977275729,-0.0059899999760091305,0.004900000058114529,6.229000091552734
6637.796797921253,1321382.0,-0.0006300000241026282,-0.003719999920576811,-0.0033599999733269215,6.067999839782715
6637.797797693175,1321383.0,0.00018000000272877514,0.012400000356137753,-0.001449999981559813,6.0970001220703125
6637.798797465099,1321384.0,-0.0006699999794363976,0.018069999292492867,-0.0012700000079348683,5.99399995803833
6637.799797237021,1321385.0,3.9999998989515007e-05,0.01875999942421913,-0.011669999919831753,6.247000217437744
6637.800797008944,1321386.0,0.00018000000272877514,0.012079999782145023,-0.0019499999471008778,5.98799991607666
6637.801796780866,1321387.0,-9.000000136438757e-05,0.014709999784827232,-0.0006799999973736703,5.822999954223633
6637.802796552789,1321388.0,0.0007200000109151006,0.015890000388026237,-0.003719999920576811,6.019999980926514
6637.803796324712,1321389.0,0.0007600000244565308,0.01906999945640564,0.0007300000288523734,5.933000087738037
6637.804796096635,1321390.0,0.0016199999954551458,0.012529999949038029,-0.00418000016361475,6.110000133514404
6637.805795868558,1321391.0,0.0009399999980814755,-0.005489999894052744,-0.006490000057965517,5.974999904632568
6637.80679564048,1321392.0,0.0008999999845400453,-0.013989999890327454,-0.0021299999207258224,6.0879998207092285
6637.807795412403,1321393.0,0.0008999999845400453,-0.016759999096393585,-0.0015399999683722854,6.078999996185303
6637.808795184325,1321394.0,0.000539999979082495,-0.015440000221133232,-0.004900000058114529,6.048999786376953
6637.809794956249,1321395.0,0.0012600000482052565,-0.022339999675750732,-0.0024500000290572643,5.921999931335449
6637.8107947281715,1321396.0,0.0021100000012665987,-0.01916000060737133,0.0021299999207258224,5.841000080108643
6637.811794500094,1321397.0,0.001979999942705035,-0.021889999508857727,0.0020000000949949026,6.00600004196167
6637.812794272017,1321398.0,0.0021100000012665987,-0.020659999921917915,0.007079999893903732,5.889999866485596
6637.813794043939,1321399.0,0.0017500000540167093,0.004540000110864639,-0.0019099999917671084,5.809000015258789
6637.814793815863,1321400.0,0.0016199999954551458,0.025609999895095825,0.0020000000949949026,5.682000160217285
6637.815793587785,1321401.0,0.00107999995816499,0.02816000021994114,-0.0010000000474974513,5.814000129699707
6637.816793359708,1321402.0,0.00107999995816499,0.019940000027418137,0.0031300000846385956,5.951000213623047
6637.81779313163,1321403.0,0.0027000000700354576,0.01181000005453825,-9.000000136438757e-05,5.828999996185303
6637.818792903553,1321404.0,0.0037700000684708357,0.015300000086426735,-0.000910000002477318,5.816999912261963
6637.8197926754765,1321405.0,0.0037700000684708357,-0.005630000028759241,-0.004040000028908253,5.816999912261963
6637.820792447399,1321406.0,0.004040000028908253,-0.014349999837577343,-0.003809999907389283,5.915999889373779
6637.821792219322,1321407.0,0.004129999782890081,-0.015300000086426735,-0.001820000004954636,5.76800012588501
6637.822791991244,1321408.0,0.004220000002533197,0.0063599999994039536,0.00535999983549118,5.6579999923706055
6637.823791763167,1321409.0,0.003590000094845891,0.010900000110268593,0.003809999907389283,5.76200008392334
6637.824791535089,1321410.0,0.0035500000230968,-0.008899999782443047,-0.0012700000079348683,5.816999912261963
6637.825791307013,1321411.0,0.0033199999015778303,-0.015799999237060547,-0.01063000038266182,5.803999900817871
6637.8267910789355,1321412.0,0.0021100000012665987,-0.011989999562501907,-0.006310000084340572,5.800000190734863
6637.827790850858,1321413.0,0.002520000096410513,-0.012310000136494637,-0.004900000058114529,5.708000183105469
6637.828790622781,1321414.0,0.0030499999411404133,-0.01834999956190586,0.005489999894052744,5.609000205993652
6637.829790394703,1321415.0,0.003819999983534217,-0.014259999617934227,0.005450000055134296,5.684000015258789
6637.830790166627,1321416.0,0.0034099998883903027,-0.0020000000949949026,0.0010400000028312206,5.682000160217285
6637.831789938549,1321417.0,0.00279000005684793,0.0010000000474974513,0.0021299999207258224,5.670000076293945
6637.832789710472,1321418.0,0.0033199999015778303,-0.006810000166296959,0.0011399999493733048,5.671999931335449
6637.833789482394,1321419.0,0.0035000001080334187,0.00018000000272877514,-0.00018000000272877514,5.626999855041504
6637.834789254317,1321420.0,0.0027000000700354576,0.010169999673962593,0.0017300000181421638,5.646999835968018
6637.83578902624,1321421.0,0.001979999942705035,0.0036299999337643385,-0.0027199999894946814,5.734000205993652
6637.836788798163,1321422.0,0.0013500000350177288,0.001180000021122396,-0.005539999809116125,5.718999862670898
6637.837788570086,1321423.0,0.0012600000482052565,0.0036299999337643385,-0.0036299999337643385,5.695000171661377
6637.838788342008,1321424.0,0.0013500000350177288,0.004040000028908253,-0.003719999920576811,5.420000076293945
6637.839788113931,1321425.0,-0.00018000000272877514,0.0015399999683722854,-0.0063599999994039536,5.620999813079834
6637.840787885853,1321426.0,-0.0024300001095980406,-0.0012700000079348683,-0.0059899999760091305,5.552999973297119
6637.841787657777,1321427.0,-0.005210000090301037,0.009809999726712704,-0.009359999559819698,5.645999908447266
6637.8427874296995,1321428.0,-0.004129999782890081,0.005810000002384186,-0.004129999782890081,5.578999996185303
6637.843787201622,1321429.0,-0.0027000000700354576,-0.006719999946653843,-0.0027199999894946814,5.440999984741211
6637.844786973545,1321430.0,-0.002520000096410513,-0.00018000000272877514,0.000539999979082495,5.514999866485596
6637.845786745467,1321431.0,-0.0026100000832229853,0.008990000002086163,0.006630000192672014,5.303999900817871
6637.846786517391,1321432.0,-0.002959999954327941,0.0076299998909235,0.010350000113248825,5.416999816894531
6637.847786289313,1321433.0,-0.002469999948516488,-0.0011399999493733048,0.013260000385344028,5.318999767303467
6637.848786061236,1321434.0,-0.0012600000482052565,-4.999999873689376e-05,-0.0005000000237487257,5.255000114440918
6637.849785833158,1321435.0,-0.001120000029914081,0.003269999986514449,-0.0072200000286102295,5.466000080108643
6637.850785605081,1321436.0,-0.00018000000272877514,0.009630000218749046,0.002360000042244792,5.432000160217285
6637.8517853770045,1321437.0,-0.0017099999822676182,0.008539999835193157,0.005450000055134296,5.458000183105469
6637.852785148927,1321438.0,-0.0015300000086426735,0.031150000169873238,-0.005090000107884407,5.426000118255615
6637.85378492085,1321439.0,-0.0014400000218302011,0.03488000109791756,0.0029100000392645597,5.396999835968018
6637.854784692772,1321440.0,-0.0012600000482052565,0.00875999964773655,-0.0016299999551847577,5.359000205993652
6637.855784464695,1321441.0,-0.000539999979082495,-0.019349999725818634,-0.008170000277459621,5.474999904632568
6637.856784236617,1321442.0,-0.0012600000482052565,-0.024299999698996544,-0.0036800000816583633,5.359000205993652
6637.857784008541,1321443.0,-0.001979999942705035,-0.02607000060379505,-0.0028200000524520874,5.138999938964844
6637.858783780463,1321444.0,-0.00215999991632998,-0.027569999918341637,-0.0059899999760091305,5.376999855041504
6637.859783552386,1321445.0,-0.00018000000272877514,-0.032019998878240585,-0.007269999943673611,5.243000030517578
6637.860783324309,1321446.0,0.0008999999845400453,-0.037470001727342606,-0.0021800000686198473,5.2220001220703125
6637.861783096231,1321447.0,9.000000136438757e-05,-0.02751999907195568,-0.0016299999551847577,5.103000164031982
6637.862782868155,1321448.0,-0.001120000029914081,-0.017260000109672546,0.001449999981559813,5.291999816894531
6637.863782640077,1321449.0,-0.0018899999558925629,-0.014619999565184116,0.005630000028759241,5.289000034332275
6637.864782412,1321450.0,-0.0027000000700354576,-0.004900000058114529,-0.0012700000079348683,5.104000091552734
6637.865782183922,1321451.0,-0.0027000000700354576,-0.005090000107884407,0.004540000110864639,5.059999942779541
6637.866781955845,1321452.0,-0.0015300000086426735,-0.0016299999551847577,0.001449999981559813,5.255000114440918
6637.8677817277685,1321453.0,-0.0011699999449774623,0.010350000113248825,0.00494999997317791,5.298999786376953
6637.868781499691,1321454.0,-0.0007600000244565308,0.020889999344944954,0.011260000057518482,5.205999851226807
6637.869781271614,1321455.0,-0.0006699999794363976,0.04177999868988991,-0.003449999960139394,5.051000118255615
6637.870781043536,1321456.0,-0.00107999995816499,0.026340000331401825,-0.003220000071451068,5.2220001220703125
6637.871780815459,1321457.0,-0.00044999999227002263,0.026429999619722366,-0.002360000042244792,5.255000114440918
6637.872780587382,1321458.0,0.0007600000244565308,0.01489999983459711,-0.0022700000554323196,5.2729997634887695
6637.873780359305,1321459.0,0.0006300000241026282,-0.0031799999997019768,-0.00418000016361475,4.999000072479248
6637.874780131227,1321460.0,0.0009399999980814755,-0.013260000385344028,-0.0033599999733269215,5.144999980926514
6637.87577990315,1321461.0,0.0012600000482052565,-0.008080000057816505,-0.01066999975591898,5.144999980926514
6637.876779675073,1321462.0,0.003100000089034438,-0.01063000038266182,-0.007079999893903732,5.053999900817871
6637.877779446995,1321463.0,0.004540000110864639,-0.021159999072551727,-0.003449999960139394,5.0229997634887695
6637.878779218919,1321464.0,0.00547999981790781,-0.019659999758005142,-0.003719999920576811,4.919000148773193
6637.879778990841,1321465.0,0.005929999984800816,-0.01071999967098236,-0.0019099999917671084,5.132999897003174
6637.880778762764,1321466.0,0.005750000011175871,-0.002360000042244792,0.003449999960139394,5.077000141143799
6637.881778534686,1321467.0,0.004989999812096357,-0.005539999809116125,-0.004900000058114529,4.993000030517578
6637.882778306609,1321468.0,0.0037700000684708357,-0.003719999920576811,0.0010000000474974513,5.047999858856201
6637.8837780785325,1321469.0,0.003590000094845891,0.006899999920278788,0.0031300000846385956,5.0320000648498535
6637.884777850455,1321470.0,0.0037700000684708357,0.009080000221729279,0.0031799999997019768,5.072000026702881
6637.885777622378,1321471.0,0.0034099998883903027,0.006899999920278788,0.004089999943971634,4.840000152587891
6637.8867773943,1321472.0,0.0034600000362843275,0.006490000057965517,0.0027199999894946814,4.973999977111816
6637.887777166223,1321473.0,0.0024300001095980406,0.005270000081509352,-0.00418000016361475,5.0229997634887695
6637.888776938145,1321474.0,0.0024300001095980406,0.013989999890327454,0.0017300000181421638,5.078000068664551
6637.889776710069,1321475.0,0.003229999914765358,0.016620000824332237,-0.004860000219196081,4.951000213623047
6637.890776481991,1321476.0,0.004129999782890081,0.0015399999683722854,-0.003719999920576811,4.855000019073486
6637.891776253914,1321477.0,0.004579999949783087,0.000910000002477318,-0.004900000058114529,4.918000221252441
6637.892776025837,1321478.0,0.00610999995842576,-0.004900000058114529,0.001449999981559813,4.932000160217285
6637.893775797759,1321479.0,0.006649999879300594,-0.0037700000684708357,0.004360000137239695,4.828000068664551
6637.894775569683,1321480.0,0.007860000245273113,-0.009990000165998936,0.004360000137239695,4.742000102996826
6637.895775341605,1321481.0,0.008270000107586384,-0.014580000191926956,0.0015399999683722854,4.926000118255615
6637.896775113528,1321482.0,0.00773000018671155,-0.015530000440776348,-0.002630000002682209,4.882999897003174
