LSL_Time,PLUX_P2_nSeq,PLUX_P2_ECG0,PLUX_P2_EMG1,PLUX_P2_EMG2,PLUX_P2_RIP3
6448.942881029413,1132485.0,-0.022099999710917473,-0.004040000028908253,-0.004360000137239695,7.4039998054504395
6448.9438808013365,1132486.0,-0.025520000606775284,0.0021800000686198473,-0.0021800000686198473,7.368000030517578
6448.944880573259,1132487.0,-0.026189999654889107,-0.002360000042244792,-0.004629999864846468,7.4710001945495605
6448.945880345182,1132488.0,-0.02817000076174736,-0.004410000052303076,-0.0006799999973736703,7.146999835968018
6448.946880117104,1132489.0,-0.02745000086724758,0.0021800000686198473,-0.005859999917447567,7.458000183105469
6448.947879889027,1132490.0,-0.02425999939441681,-0.005179999861866236,0.0029100000392645597,7.39300012588501
6448.94887966095,1132491.0,-0.019950000569224358,0.000910000002477318,-0.00018000000272877514,7.329999923706055
6448.949879432873,1132492.0,-0.014910000376403332,-0.0002699999895412475,-0.002630000002682209,7.317999839782715
6448.9508792047955,1132493.0,-0.008449999615550041,0.0020000000949949026,-0.0012700000079348683,7.373000144958496
6448.951878976718,1132494.0,0.0030499999411404133,-0.00044999999227002263,-0.0063599999994039536,7.119999885559082
6448.952878748641,1132495.0,0.01800999976694584,-0.0076299998909235,-0.005179999861866236,7.440000057220459
6448.953878520563,1132496.0,0.029740000143647194,0.0017300000181421638,-0.000859999970998615,7.440000057220459
6448.954878292487,1132497.0,0.03522000089287758,0.000539999979082495,0.001449999981559813,7.434000015258789
6448.955878064409,1132498.0,0.03558000177145004,-0.00418000016361475,-0.004040000028908253,7.329999923706055
6448.956877836332,1132499.0,0.03458999842405319,-0.004900000058114529,-0.0020000000949949026,7.263000011444092
6448.957877608254,1132500.0,0.033330000936985016,-0.002360000042244792,-0.002630000002682209,7.1529998779296875
6448.958877380177,1132501.0,0.03162999823689461,0.004900000058114529,0.0015399999683722854,7.2779998779296875
6448.9598771521005,1132502.0,0.0301900003105402,-0.005400000140070915,-0.004000000189989805,7.248000144958496
6448.960876924023,1132503.0,0.029069999232888222,0.0016299999551847577,-0.004089999943971634,7.21999979019165
6448.961876695946,1132504.0,0.028209999203681946,0.0016299999551847577,0.001500000013038516,7.329999923706055
6448.962876467868,1132505.0,0.026499999687075615,0.0024500000290572643,0.0003600000054575503,7.232999801635742
6448.963876239791,1132506.0,0.024709999561309814,-0.0011399999493733048,-0.0006399999838322401,7.296999931335449
6448.964876011714,1132507.0,0.02191999927163124,-0.002859999891370535,-0.006490000057965517,6.97599983215332
6448.965875783637,1132508.0,0.019139999523758888,0.00418000016361475,0.0020000000949949026,7.0370001792907715
6448.966875555559,1132509.0,0.015860000625252724,-0.004449999891221523,-0.004000000189989805,7.073999881744385
6448.967875327482,1132510.0,0.009700000286102295,-0.007720000110566616,0.004540000110864639,7.1620001792907715
6448.968875099405,1132511.0,0.0028800000436604023,-0.0017300000181421638,0.00018000000272877514,7.111000061035156
6448.969874871327,1132512.0,-0.005659999791532755,0.003000000026077032,0.0012700000079348683,7.158999919891357
6448.970874643251,1132513.0,-0.015270000323653221,0.0030900000128895044,-0.007449999917298555,7.140999794006348
6448.971874415173,1132514.0,-0.021199999377131462,-0.004629999864846468,0.0022299999836832285,7.085999965667725
6448.972874187096,1132515.0,-0.022099999710917473,-0.004809999838471413,0.005040000192821026,7.061999797821045
6448.973873959018,1132516.0,-0.021740000694990158,-0.00418000016361475,0.0003600000054575503,7.091000080108643
6448.974873730941,1132517.0,-0.019950000569224358,-0.0013599999947473407,-0.0024500000290572643,7.063000202178955
6448.9758735028645,1132518.0,-0.015809999778866768,0.00018000000272877514,-0.004269999917596579,7.073999881744385
6448.976873274787,1132519.0,-0.009340000338852406,-0.004629999864846468,-0.0011399999493733048,7.158999919891357
6448.97787304671,1132520.0,0.0002699999895412475,-0.0020000000949949026,-0.0022299999836832285,7.175000190734863
6448.978872818632,1132521.0,0.010379999876022339,0.0002699999895412475,-0.0019099999917671084,7.1529998779296875
6448.979872590555,1132522.0,0.018370000645518303,0.005489999894052744,-0.003949999809265137,7.0370001792907715
6448.980872362478,1132523.0,0.02353999949991703,-0.0003600000054575503,-0.002360000042244792,6.98199987411499
6448.981872134401,1132524.0,0.02353999949991703,-0.004360000137239695,-0.00571999978274107,7.085999965667725
6448.982871906323,1132525.0,0.02111000008881092,-0.003949999809265137,0.0013599999947473407,7.085999965667725
6448.983871678246,1132526.0,0.017969999462366104,0.001449999981559813,-0.00044999999227002263,7.004000186920166
6448.984871450169,1132527.0,0.013299999758601189,-0.0010900000343099236,-0.006490000057965517,7.005000114440918
6448.985871222092,1132528.0,0.007860000245273113,-0.002360000042244792,-0.006310000084340572,6.946000099182129
6448.986870994015,1132529.0,0.004989999812096357,0.003949999809265137,-0.0030900000128895044,6.715000152587891
6448.987870765937,1132530.0,0.0065100002102553844,-0.004720000084489584,-0.0063599999994039536,6.927000045776367
6448.98887053786,1132531.0,0.011140000075101852,0.003809999907389283,-0.000539999979082495,6.881999969482422
6448.989870309782,1132532.0,0.0142000000923872,0.00018000000272877514,0.004629999864846468,6.839000225067139
6448.990870081705,1132533.0,0.014419999904930592,-0.003809999907389283,-0.004540000110864639,6.724999904632568
6448.9918698536285,1132534.0,0.014379999600350857,-0.00041000000783242285,-0.004449999891221523,6.97599983215332
6448.992869625551,1132535.0,0.014689999632537365,0.000910000002477318,-0.0027199999894946814,6.890999794006348
6448.993869397474,1132536.0,0.01384000014513731,0.00044999999227002263,0.004629999864846468,6.817999839782715
6448.994869169396,1132537.0,0.014469999819993973,0.00041000000783242285,-0.004089999943971634,6.822000026702881
6448.995868941319,1132538.0,0.017430000007152557,-0.005090000107884407,-0.000539999979082495,6.771999835968018
6448.996868713242,1132539.0,0.021069999784231186,0.0020000000949949026,-0.0012700000079348683,6.640999794006348
6448.997868485165,1132540.0,0.021159999072551727,-0.004900000058114529,0.003949999809265137,6.921000003814697
6448.998868257087,1132541.0,0.021609999239444733,-0.002950000111013651,0.000910000002477318,6.827000141143799
6448.99986802901,1132542.0,0.02102000080049038,0.0007699999841861427,-0.0029100000392645597,6.756999969482422
6449.000867800933,1132543.0,0.020479999482631683,-0.0027199999894946814,0.004000000189989805,6.622000217437744
6449.001867572856,1132544.0,0.02201000042259693,0.0010900000343099236,-0.004089999943971634,6.616000175476074
6449.002867344779,1132545.0,0.021469999104738235,0.0,-0.00018000000272877514,6.775000095367432
6449.003867116701,1132546.0,0.01860000006854534,0.0021800000686198473,0.0020000000949949026,6.710999965667725
6449.004866888624,1132547.0,0.014910000376403332,-0.003449999960139394,-0.001820000004954636,6.875999927520752
6449.005866660546,1132548.0,0.01095999963581562,-0.00031999999191612005,-0.005590000189840794,6.60099983215332
6449.006866432469,1132549.0,0.007639999967068434,0.006539999973028898,-9.000000136438757e-05,6.539999961853027
6449.0078662043925,1132550.0,0.005799999926239252,-0.004310000222176313,0.0016299999551847577,6.560999870300293
6449.008865976315,1132551.0,0.0053900000639259815,-0.003949999809265137,-0.004900000058114529,6.708000183105469
6449.009865748238,1132552.0,0.00418000016361475,-0.0022299999836832285,-0.000910000002477318,6.625
6449.01086552016,1132553.0,0.004540000110864639,0.00018000000272877514,0.000910000002477318,6.833000183105469
6449.011865292083,1132554.0,0.003860000055283308,0.0014100000262260437,0.0012700000079348683,6.5980000495910645
6449.012865064006,1132555.0,0.00279000005684793,-0.001180000021122396,0.001820000004954636,6.568999767303467
6449.013864835929,1132556.0,0.0024300001095980406,-0.004000000189989805,-0.005450000055134296,6.507999897003174
6449.014864607851,1132557.0,0.003640000009909272,-0.006130000110715628,0.003949999809265137,6.650000095367432
6449.015864379774,1132558.0,0.0034099998883903027,-0.0007300000288523734,-0.000539999979082495,6.458000183105469
6449.016864151697,1132559.0,0.0031399999279528856,-0.0021800000686198473,0.0024500000290572643,6.749000072479248
6449.01786392362,1132560.0,0.003860000055283308,-0.004269999917596579,-0.0024500000290572643,6.548999786376953
6449.018863695543,1132561.0,0.005210000090301037,-0.003719999920576811,0.0027199999894946814,6.5370001792907715
6449.019863467465,1132562.0,0.007230000104755163,0.002360000042244792,-0.002630000002682209,6.531000137329102
6449.020863239388,1132563.0,0.008129999972879887,0.005489999894052744,0.002090000081807375,6.5980000495910645
6449.02186301131,1132564.0,0.009159999899566174,-0.004269999917596579,0.0,6.618000030517578
6449.022862783233,1132565.0,0.009340000338852406,-0.004269999917596579,0.0013599999947473407,6.568999767303467
6449.0238625551565,1132566.0,0.006829999852925539,-0.007449999917298555,-0.003809999907389283,6.651000022888184
6449.024862327079,1132567.0,0.0031399999279528856,0.003539999946951866,-0.006899999920278788,6.671000003814697
6449.025862099002,1132568.0,0.0034099998883903027,0.0020000000949949026,0.0033599999733269215,6.630000114440918
6449.026861870924,1132569.0,0.008849999867379665,-0.0013599999947473407,-0.0010000000474974513,6.5289998054504395
6449.027861642847,1132570.0,0.014109999872744083,-0.0021800000686198473,0.0012700000079348683,6.427000045776367
6449.02886141477,1132571.0,0.015769999474287033,-0.0036299999337643385,-0.0029100000392645597,6.60699987411499
6449.029861186693,1132572.0,0.014419999904930592,0.004629999864846468,0.003719999920576811,6.589000225067139
6449.030860958615,1132573.0,0.013299999758601189,0.0009500000160187483,-0.0019099999917671084,6.61299991607666
6449.031860730538,1132574.0,0.009879999794065952,-9.000000136438757e-05,-0.003719999920576811,6.577000141143799
6449.032860502461,1132575.0,0.0053900000639259815,-0.0027199999894946814,-0.0063599999994039536,6.258999824523926
6449.033860274384,1132576.0,0.00215999991632998,0.0013599999947473407,-0.002319999970495701,6.539999961853027
6449.034860046307,1132577.0,-0.000539999979082495,-0.001180000021122396,-0.0033199999015778303,6.443999767303467
6449.035859818229,1132578.0,-0.0034099998883903027,-0.002360000042244792,-0.006630000192672014,6.423999786376953
6449.036859590152,1132579.0,-0.006289999932050705,-0.0062699997797608376,0.000910000002477318,6.406000137329102
6449.037859362074,1132580.0,-0.010060000233352184,0.004360000137239695,-0.004679999779909849,6.433000087738037
6449.038859133997,1132581.0,-0.011500000022351742,-0.0027199999894946814,0.002360000042244792,6.25600004196167
6449.0398589059205,1132582.0,-0.010329999960958958,-0.003539999946951866,0.005859999917447567,6.421000003814697
6449.040858677843,1132583.0,-0.003229999914765358,-0.002360000042244792,0.0020000000949949026,6.374000072479248
6449.041858449766,1132584.0,0.003860000055283308,-0.003909999970346689,-0.001449999981559813,6.372000217437744
6449.042858221688,1132585.0,0.008980000391602516,0.004449999891221523,-0.005270000081509352,6.389999866485596
6449.043857993611,1132586.0,0.013609999790787697,0.000910000002477318,0.003909999970346689,6.328999996185303
6449.044857765534,1132587.0,0.015449999831616879,0.0033599999733269215,-0.00044999999227002263,6.26200008392334
6449.045857537457,1132588.0,0.01508999988436699,0.000910000002477318,0.000539999979082495,6.328999996185303
6449.046857309379,1132589.0,0.012129999697208405,-0.0025400000158697367,-0.00798999983817339,6.26800012588501
6449.047857081302,1132590.0,0.008089999668300152,0.0033599999733269215,0.0020000000949949026,6.252999782562256
6449.048856853225,1132591.0,0.0064199999906122684,-0.00418000016361475,0.0012700000079348683,6.23199987411499
6449.049856625148,1132592.0,0.005929999984800816,-0.0022299999836832285,0.0025400000158697367,6.320000171661377
6449.050856397071,1132593.0,0.0035000001080334187,-0.005040000192821026,-0.004360000137239695,6.288000106811523
6449.051856168993,1132594.0,0.00018000000272877514,-0.0012700000079348683,-0.003269999986514449,6.25600004196167
6449.052855940916,1132595.0,-0.001979999942705035,-0.0008200000156648457,0.0016299999551847577,6.293000221252441
6449.053855712838,1132596.0,-0.0031900000758469105,-0.004679999779909849,-0.006579999811947346,6.24399995803833
6449.054855484761,1132597.0,-0.005119999870657921,0.0031300000846385956,0.0013599999947473407,6.183000087738037
6449.0558552566845,1132598.0,-0.006829999852925539,0.0029100000392645597,-0.0027199999894946814,6.24399995803833
6449.056855028607,1132599.0,-0.008980000391602516,-0.004089999943971634,-0.002630000002682209,6.173999786376953
6449.05785480053,1132600.0,-0.009879999794065952,-0.005630000028759241,-0.006219999864697456,6.23199987411499
6449.058854572452,1132601.0,-0.008270000107586384,-0.006310000084340572,0.001449999981559813,6.1479997634887695
6449.059854344375,1132602.0,-0.00610999995842576,-0.0015399999683722854,-0.006130000110715628,6.017000198364258
6449.060854116298,1132603.0,-0.0030499999411404133,0.002360000042244792,-0.004000000189989805,5.9710001945495605
6449.061853888221,1132604.0,-0.00018000000272877514,0.002090000081807375,-0.006539999973028898,6.283999919891357
6449.062853660143,1132605.0,0.0012100000167265534,0.00018000000272877514,-0.000910000002477318,6.139999866485596
6449.063853432066,1132606.0,0.0012600000482052565,-0.007269999943673611,0.003220000071451068,6.070000171661377
6449.064853203989,1132607.0,-0.0009899999713525176,-0.0020000000949949026,-0.004089999943971634,6.145999908447266
6449.065852975912,1132608.0,-0.0016199999954551458,-0.0002699999895412475,-0.0019099999917671084,6.11299991607666
6449.066852747835,1132609.0,-0.0008999999845400453,-0.006949999835342169,0.002360000042244792,6.110000133514404
6449.067852519757,1132610.0,0.006149999797344208,-0.0025400000158697367,4.999999873689376e-05,6.019999980926514
6449.06885229168,1132611.0,0.011500000022351742,0.000539999979082495,-0.0010900000343099236,6.185999870300293
6449.069852063602,1132612.0,0.010739999823272228,0.0033599999733269215,-0.0020000000949949026,6.076000213623047
6449.070851835526,1132613.0,0.0024300001095980406,-0.00044999999227002263,0.004540000110864639,6.061999797821045
6449.0718516074485,1132614.0,-0.0047599999234080315,-0.004540000110864639,-0.004269999917596579,6.060999870300293
6449.072851379371,1132615.0,-0.005750000011175871,-0.0020000000949949026,0.0022299999836832285,6.1579999923706055
6449.073851151294,1132616.0,-0.004129999782890081,-0.001820000004954636,0.0029100000392645597,6.035999774932861
6449.074850923216,1132617.0,-0.004040000028908253,0.002360000042244792,0.001820000004954636,5.9629998207092285
6449.075850695139,1132618.0,-0.004670000169426203,-0.0016299999551847577,0.0010900000343099236,6.071000099182129
6449.076850467062,1132619.0,-0.007009999826550484,0.0021800000686198473,9.000000136438757e-05,6.01200008392334
6449.077850238985,1132620.0,-0.007860000245273113,-0.005900000222027302,-0.005539999809116125,5.980999946594238
6449.078850010907,1132621.0,-0.00803999975323677,-0.00418000016361475,0.004360000137239695,5.974999904632568
6449.07984978283,1132622.0,-0.00610999995842576,-0.00535999983549118,0.0010900000343099236,5.883999824523926
6449.080849554753,1132623.0,-0.0027000000700354576,0.0016799999866634607,0.000910000002477318,6.076000213623047
6449.081849326676,1132624.0,0.0021100000012665987,0.004040000028908253,-0.001820000004954636,5.855999946594238
6449.082849098599,1132625.0,0.004989999812096357,-0.002360000042244792,0.000910000002477318,5.968999862670898
6449.083848870521,1132626.0,0.008129999972879887,-0.002360000042244792,-0.005770000163465738,5.931000232696533
6449.084848642444,1132627.0,0.01095999963581562,0.000910000002477318,0.000910000002477318,5.942999839782715
6449.085848414366,1132628.0,0.013120000250637531,-0.0036800000816583633,0.0010400000028312206,5.724999904632568
6449.08684818629,1132629.0,0.013749999925494194,-0.004900000058114529,0.001180000021122396,5.955999851226807
6449.0878479582125,1132630.0,0.012040000408887863,0.0036299999337643385,-0.003000000026077032,5.9070000648498535
6449.088847730135,1132631.0,0.006649999879300594,-0.004129999782890081,0.0002699999895412475,5.894000053405762
6449.089847502058,1132632.0,-0.0015300000086426735,0.005270000081509352,-0.000539999979082495,5.877999782562256
6449.09084727398,1132633.0,-0.009970000013709068,0.002360000042244792,0.0002699999895412475,5.941999912261963
6449.091847045903,1132634.0,-0.016529999673366547,-0.0005000000237487257,0.0016799999866634607,5.86899995803833
6449.092846817826,1132635.0,-0.02022000029683113,-0.0010400000028312206,0.001449999981559813,5.78000020980835
6449.093846589749,1132636.0,-0.020309999585151672,-0.00418000016361475,-0.004999999888241291,5.833000183105469
6449.094846361671,1132637.0,-0.014910000376403332,-0.005400000140070915,0.001820000004954636,5.821000099182129
6449.095846133594,1132638.0,-0.007139999885112047,0.0031799999997019768,0.001820000004954636,5.807000160217285
6449.096845905517,1132639.0,-0.00013000000035390258,0.0012700000079348683,-0.0021800000686198473,5.927000045776367
6449.09784567744,1132640.0,0.0048500001430511475,0.0010900000343099236,-0.004449999891221523,5.795000076293945
6449.098845449363,1132641.0,0.013120000250637531,-0.00535999983549118,-0.0051299999468028545,5.7210001945495605
6449.099845221285,1132642.0,0.020749999210238457,-0.007180000189691782,0.0028200000524520874,5.572999954223633
6449.100844993208,1132643.0,0.024890000000596046,0.0036299999337643385,-0.004900000058114529,5.552999973297119
6449.10184476513,1132644.0,0.027310000732541084,-0.000910000002477318,-0.007809999864548445,5.7769999504089355
6449.102844537054,1132645.0,0.02785000018775463,-4.999999873689376e-05,-0.005900000222027302,5.857999801635742
6449.1038443089765,1132646.0,0.028750000521540642,0.003000000026077032,-0.0062699997797608376,5.743000030517578
6449.104844080899,1132647.0,0.03009999915957451,-0.003909999970346689,-0.0022700000554323196,5.672999858856201
6449.105843852822,1132648.0,0.029650000855326653,0.005270000081509352,-0.00018000000272877514,5.572999954223633
6449.106843624744,1132649.0,0.028209999203681946,-0.000910000002477318,0.005900000222027302,5.609000205993652
6449.107843396667,1132650.0,0.024979999288916588,-0.006719999946653843,-0.0030900000128895044,5.609000205993652
6449.10884316859,1132651.0,0.021250000223517418,-0.004809999838471413,0.004000000189989805,5.710000038146973
6449.109842940513,1132652.0,0.0185100007802248,0.0002699999895412475,0.0030900000128895044,5.489999771118164
6449.110842712435,1132653.0,0.015720000490546227,0.005810000002384186,0.002360000042244792,5.695000171661377
6449.111842484358,1132654.0,0.01348000019788742,0.0017300000181421638,-0.003539999946951866,5.605000019073486
6449.112842256281,1132655.0,0.011950000189244747,-0.006180000025779009,-0.004089999943971634,5.585000038146973
6449.113842028204,1132656.0,0.010780000127851963,0.003269999986514449,0.0011399999493733048,5.572999954223633
6449.114841800127,1132657.0,0.009569999761879444,-0.008080000057816505,0.00044999999227002263,5.684999942779541
6449.115841572049,1132658.0,0.0088900001719594,-0.0020000000949949026,0.0030900000128895044,5.64900016784668
6449.116841343972,1132659.0,0.007369999773800373,0.004360000137239695,0.0007699999841861427,5.5329999923706055
6449.117841115894,1132660.0,0.004490000195801258,0.0003600000054575503,0.003809999907389283,5.51800012588501
6449.118840887818,1132661.0,0.00018000000272877514,-0.003449999960139394,-0.0033599999733269215,5.474999904632568
6449.1198406597405,1132662.0,-0.0027000000700354576,0.0033599999733269215,-0.0012700000079348683,5.4019999504089355
6449.120840431663,1132663.0,-0.004310000222176313,-0.004900000058114529,0.0017300000181421638,5.624000072479248
6449.121840203586,1132664.0,-0.007189999800175428,-0.00418000016361475,-0.000910000002477318,5.561999797821045
6449.122839975508,1132665.0,-0.009429999627172947,0.0016299999551847577,-0.002859999891370535,5.376999855041504
6449.123839747432,1132666.0,-0.01051000040024519,-0.00418000016361475,0.0024999999441206455,5.364999771118164
6449.124839519354,1132667.0,-0.009700000286102295,-0.0013200000394135714,-0.006810000166296959,5.552999973297119
6449.125839291277,1132668.0,-0.007550000213086605,0.0020000000949949026,0.0016299999551847577,5.515999794006348
6449.126839063199,1132669.0,-0.0053900000639259815,-0.00535999983549118,-0.004000000189989805,5.428999900817871
6449.127838835122,1132670.0,-0.005570000037550926,-0.003000000026077032,-0.00418000016361475,5.620999813079834
6449.128838607045,1132671.0,-0.006920000072568655,0.003809999907389283,-0.0034099998883903027,5.291999816894531
6449.129838378968,1132672.0,-0.010420000180602074,-0.004269999917596579,0.0028200000524520874,5.493000030517578
6449.130838150891,1132673.0,-0.014109999872744083,-0.005090000107884407,-0.003449999960139394,5.468999862670898
6449.131837922813,1132674.0,-0.016939999535679817,-0.003269999986514449,-0.000539999979082495,5.572999954223633
6449.132837694736,1132675.0,-0.019449999555945396,-0.005270000081509352,0.0016299999551847577,5.453000068664551
6449.133837466658,1132676.0,-0.0243500005453825,0.0030900000128895044,0.0036299999337643385,5.376999855041504
6449.134837238582,1132677.0,-0.028209999203681946,0.00571999978274107,-0.0010900000343099236,5.426000118255615
6449.1358370105045,1132678.0,-0.028929999098181725,-0.00018000000272877514,0.004900000058114529,5.493000030517578
6449.136836782427,1132679.0,-0.027489999309182167,-0.004720000084489584,-0.004000000189989805,5.52400016784668
6449.13783655435,1132680.0,-0.02443999983370304,-0.00880999956279993,9.000000136438757e-05,5.296000003814697
6449.138836326272,1132681.0,-0.016620000824332237,0.0007300000288523734,0.000539999979082495,5.486999988555908
6449.139836098196,1132682.0,-0.0064199999906122684,0.0027199999894946814,4.999999873689376e-05,5.370999813079834
6449.140835870118,1132683.0,0.004989999812096357,0.003949999809265137,-0.00798999983817339,5.359000205993652
6449.141835642041,1132684.0,0.013659999705851078,0.00018000000272877514,0.003539999946951866,5.261000156402588
6449.142835413963,1132685.0,0.01860000006854534,-0.005270000081509352,-0.0033599999733269215,5.2829999923706055
6449.143835185886,1132686.0,0.021740000694990158,-0.005270000081509352,0.001820000004954636,5.343999862670898
6449.144834957809,1132687.0,0.024890000000596046,-0.003809999907389283,0.0027199999894946814,5.267000198364258
6449.145834729732,1132688.0,0.028209999203681946,0.0027699999045580626,0.0012700000079348683,5.353000164031982
6449.146834501655,1132689.0,0.028750000521540642,0.0007300000288523734,-0.006719999946653843,5.341000080108643
6449.147834273577,1132690.0,0.026149999350309372,-0.00418000016361475,-0.00018000000272877514,5.247000217437744
6449.1488340455,1132691.0,0.023000000044703484,-0.0006399999838322401,0.002360000042244792,5.224999904632568
6449.149833817422,1132692.0,0.022280000150203705,-0.000539999979082495,-0.000539999979082495,5.291999816894531
6449.150833589346,1132693.0,0.018869999796152115,-0.006630000192672014,0.0012700000079348683,5.197000026702881
6449.1518333612685,1132694.0,0.014290000312030315,-0.0003600000054575503,-0.0033599999733269215,5.396999835968018
6449.152833133191,1132695.0,0.009519999846816063,-0.0051299999468028545,-0.000539999979082495,5.205999851226807
6449.153832905114,1132696.0,0.004360000137239695,0.0031799999997019768,-0.006180000025779009,5.170000076293945
6449.154832677036,1132697.0,0.0030499999411404133,0.002950000111013651,-0.001180000021122396,5.164000034332275
6449.15583244896,1132698.0,0.004129999782890081,0.004269999917596579,-0.004000000189989805,5.236999988555908
6449.156832220882,1132699.0,0.00773000018671155,-0.00014000000373926014,-0.0029100000392645597,5.098999977111816
6449.157831992805,1132700.0,0.010239999741315842,-0.007449999917298555,-0.0033599999733269215,5.333000183105469
6449.158831764727,1132701.0,0.011590000241994858,-0.000539999979082495,-0.001500000013038516,5.211999893188477
6449.15983153665,1132702.0,0.010420000180602074,0.00014000000373926014,0.000910000002477318,5.170000076293945
6449.160831308573,1132703.0,0.007590000052005053,-0.005270000081509352,-0.003719999920576811,5.110000133514404
6449.161831080496,1132704.0,0.003860000055283308,0.0020000000949949026,-0.0030900000128895044,5.298999786376953
6449.162830852419,1132705.0,-0.0013899999903514981,0.0012700000079348683,-0.001500000013038516,5.166999816894531
6449.163830624341,1132706.0,-0.005929999984800816,-0.00418000016361475,-0.00418000016361475,5.074999809265137
6449.164830396264,1132707.0,-0.009519999846816063,0.002360000042244792,-0.0020000000949949026,5.074999809265137
6449.165830168186,1132708.0,-0.01051000040024519,-0.002950000111013651,0.004310000222176313,5.038000106811523
6449.16682994011,1132709.0,-0.007280000019818544,-0.005630000028759241,-0.0083600003272295,4.940999984741211
6449.1678297120325,1132710.0,-0.0017999999690800905,0.0025400000158697367,-0.00418000016361475,5.132999897003174
6449.168829483955,1132711.0,0.0021100000012665987,0.005539999809116125,0.0020000000949949026,5.126999855041504
6449.169829255878,1132712.0,0.0037700000684708357,0.002090000081807375,0.00018000000272877514,5.051000118255615
6449.1708290278,1132713.0,0.003590000094845891,-9.000000136438757e-05,-0.005590000189840794,5.052000045776367
6449.171828799724,1132714.0,0.004310000222176313,-0.0076299998909235,-0.004629999864846468,5.034999847412109
6449.172828571646,1132715.0,0.007009999826550484,0.0007300000288523734,0.0015399999683722854,5.002999782562256
6449.173828343569,1132716.0,0.009519999846816063,-0.006630000192672014,0.004449999891221523,5.103000164031982
6449.174828115491,1132717.0,0.013030000030994415,0.0006399999838322401,0.0003600000054575503,4.888999938964844
6449.175827887414,1132718.0,0.017069999128580093,0.0016299999551847577,-0.000539999979082495,5.138000011444092
6449.176827659337,1132719.0,0.018780000507831573,-0.006719999946653843,0.0033599999733269215,5.160999774932861
6449.17782743126,1132720.0,0.01800999976694584,-0.0021800000686198473,-0.003220000071451068,5.114999771118164
6449.178827203183,1132721.0,0.016170000657439232,0.005270000081509352,0.0036299999337643385,4.888999938964844
6449.179826975105,1132722.0,0.014639999717473984,-0.0008200000156648457,0.0003600000054575503,5.111999988555908
6449.180826747028,1132723.0,0.009879999794065952,-0.002360000042244792,0.0020000000949949026,5.017000198364258
6449.18182651895,1132724.0,0.0029200001154094934,-0.002950000111013651,0.000539999979082495,5.090000152587891
6449.182826290874,1132725.0,-0.004720000084489584,-0.003269999986514449,0.002630000002682209,5.034999847412109
6449.1838260627965,1132726.0,-0.010870000347495079,0.001500000013038516,-0.0030900000128895044,4.932000160217285
6449.184825834719,1132727.0,-0.014910000376403332,0.004449999891221523,0.004000000189989805,4.995999813079834
6449.185825606642,1132728.0,-0.018959999084472656,-0.002589999930933118,0.003449999960139394,4.894999980926514
6449.186825378564,1132729.0,-0.020309999585151672,-0.002360000042244792,0.002589999930933118,5.078000068664551
6449.187825150488,1132730.0,-0.018459999933838844,-0.0030900000128895044,-0.003269999986514449,4.864999771118164
6449.18882492241,1132731.0,-0.01590000092983246,0.0011399999493733048,0.003269999986514449,4.784999847412109
6449.189824694333,1132732.0,-0.01590000092983246,-0.0008200000156648457,-0.005270000081509352,4.732999801635742
6449.190824466255,1132733.0,-0.018330000340938568,0.00418000016361475,-0.0002699999895412475,5.0
6449.191824238178,1132734.0,-0.021740000694990158,-0.0017300000181421638,0.0019099999917671084,4.926000118255615
6449.192824010101,1132735.0,-0.020309999585151672,-0.00571999978274107,0.003809999907389283,4.800000190734863
6449.193823782024,1132736.0,-0.012040000408887863,-0.008170000277459621,-0.004679999779909849,4.932000160217285
6449.194823553947,1132737.0,-0.004399999976158142,0.003949999809265137,0.0010000000474974513,4.892000198364258
6449.195823325869,1132738.0,0.0037700000684708357,-0.0019499999471008778,-0.004129999782890081,4.874000072479248
6449.196823097792,1132739.0,0.012400000356137753,0.001820000004954636,-0.00041000000783242285,4.790999889373779
6449.197822869714,1132740.0,0.018780000507831573,-0.002360000042244792,-0.004449999891221523,4.965000152587891
6449.198822641638,1132741.0,0.02281999960541725,-0.007809999864548445,-0.0027199999894946814,4.8520002365112305
6449.1998224135605,1132742.0,0.022460000589489937,-0.009220000356435776,0.002409999957308173,4.857999801635742
6449.200822185483,1132743.0,0.021740000694990158,0.004900000058114529,0.0002699999895412475,4.915999889373779
6449.201821957406,1132744.0,0.01923000067472458,0.004999999888241291,-0.005179999861866236,4.868000030517578
6449.202821729328,1132745.0,0.017880000174045563,0.0006799999973736703,-0.0015399999683722854,4.815999984741211
6449.203821501252,1132746.0,0.015809999778866768,-0.005630000028759241,-0.00418000016361475,4.675000190734863
6449.204821273174,1132747.0,0.012040000408887863,0.0021800000686198473,-0.005270000081509352,4.894999980926514
6449.205821045097,1132748.0,0.006649999879300594,-0.005630000028759241,0.003269999986514449,4.855000019073486
6449.206820817019,1132749.0,0.00018000000272877514,-0.003719999920576811,-0.004679999779909849,4.744999885559082
6449.207820588942,1132750.0,-0.005210000090301037,0.004449999891221523,0.0017300000181421638,4.703000068664551
6449.2088203608655,1132751.0,-0.007499999832361937,-0.0012700000079348683,0.00044999999227002263,4.876999855041504
6449.209820132788,1132752.0,-0.006560000125318766,-0.004310000222176313,0.0010900000343099236,4.7729997634887695
6449.210819904711,1132753.0,-0.004129999782890081,0.0003600000054575503,-0.0020000000949949026,4.7729997634887695
6449.211819676633,1132754.0,-0.003229999914765358,-0.005450000055134296,0.0010900000343099236,4.7230000495910645
6449.212819448556,1132755.0,-0.0017999999690800905,0.003269999986514449,-0.007720000110566616,4.705999851226807
6449.213819220478,1132756.0,0.0007600000244565308,0.0025400000158697367,0.003539999946951866,4.611000061035156
6449.214818992402,1132757.0,0.00107999995816499,-0.001449999981559813,0.0027199999894946814,4.7789998054504395
6449.2158187643245,1132758.0,-0.00215999991632998,-0.006219999864697456,0.002360000042244792,4.715000152587891
6449.216818536247,1132759.0,-0.004310000222176313,-0.0012700000079348683,-0.004360000137239695,4.658999919891357
6449.21781830817,1132760.0,-0.006870000157505274,0.000539999979082495,0.0030900000128895044,4.619999885559082
6449.218818080092,1132761.0,-0.007009999826550484,0.0020000000949949026,-0.0051299999468028545,4.619999885559082
6449.219817852016,1132762.0,-0.003949999809265137,-0.0019499999471008778,-0.00018000000272877514,4.688000202178955
6449.220817623938,1132763.0,0.0003600000054575503,0.0036299999337643385,0.0021800000686198473,4.556000232696533
6449.221817395861,1132764.0,0.003640000009909272,-0.003909999970346689,0.001449999981559813,4.736000061035156
6449.222817167783,1132765.0,0.004670000169426203,-0.006899999920278788,-0.0033599999733269215,4.585000038146973
6449.223816939706,1132766.0,0.006779999937862158,0.005270000081509352,0.001820000004954636,4.559000015258789
6449.2248167116295,1132767.0,0.008179999887943268,-0.0008200000156648457,0.000910000002477318,4.560999870300293
6449.225816483552,1132768.0,0.00872000027447939,-0.000910000002477318,0.0010900000343099236,4.630000114440918
6449.226816255475,1132769.0,0.008940000087022781,0.0019099999917671084,0.0020000000949949026,4.498000144958496
6449.227816027397,1132770.0,0.009159999899566174,-0.003449999960139394,0.0021800000686198473,4.71999979019165
6449.22881579932,1132771.0,0.008179999887943268,-0.0006399999838322401,-0.003809999907389283,4.535999774932861
6449.229815571242,1132772.0,0.004269999917596579,0.002090000081807375,0.0011399999493733048,4.478000164031982
6449.230815343166,1132773.0,0.0006699999794363976,-0.0022700000554323196,0.0027199999894946814,4.448999881744385
6449.2318151150885,1132774.0,0.0002699999895412475,-0.008170000277459621,-0.001769999973475933,4.584000110626221
6449.232814887011,1132775.0,-0.000539999979082495,-0.00018000000272877514,9.000000136438757e-05,4.442999839782715
6449.233814658934,1132776.0,-0.002959999954327941,0.002360000042244792,0.0003600000054575503,4.6479997634887695
6449.234814430856,1132777.0,-0.007910000160336494,-0.000539999979082495,-0.0052200001664459705,4.506999969482422
6449.23581420278,1132778.0,-0.011049999855458736,-0.003809999907389283,-0.006490000057965517,4.473999977111816
6449.236813974702,1132779.0,-0.00839999970048666,0.003269999986514449,0.000539999979082495,4.459000110626221
6449.237813746625,1132780.0,-0.0048500001430511475,-0.00018000000272877514,0.000590000010561198,4.540999889373779
6449.238813518547,1132781.0,-0.005570000037550926,-0.005630000028759241,-0.0029100000392645597,4.3429999351501465
6449.23981329047,1132782.0,-0.006649999879300594,-0.0006399999838322401,0.004269999917596579,4.591000080108643
6449.2408130623935,1132783.0,-0.007679999805986881,-0.0022700000554323196,0.006130000110715628,4.448999881744385
6449.241812834316,1132784.0,-0.009750000201165676,0.0016799999866634607,-0.004360000137239695,4.5320000648498535
6449.242812606239,1132785.0,-0.010780000127851963,-0.0020000000949949026,0.002859999891370535,4.498000144958496
6449.243812378161,1132786.0,-0.012849999591708183,0.004410000052303076,-0.0029100000392645597,4.473999977111816
6449.244812150084,1132787.0,-0.013389999978244305,-0.003719999920576811,-0.005590000189840794,4.290999889373779
6449.245811922006,1132788.0,-0.013930000364780426,-0.003449999960139394,-0.005090000107884407,4.4019999504089355
6449.24681169393,1132789.0,-0.015720000490546227,-0.0022700000554323196,0.0012700000079348683,4.381999969482422
6449.2478114658525,1132790.0,-0.015990000218153,0.000910000002477318,-0.002090000081807375,4.369999885559082
6449.248811237775,1132791.0,-0.015270000323653221,-0.004410000052303076,-0.004540000110864639,4.294000148773193
6449.249811009698,1132792.0,-0.011590000241994858,-0.0007300000288523734,-0.0006399999838322401,4.535999774932861
6449.25081078162,1132793.0,-0.007550000213086605,0.003809999907389283,-0.006899999920278788,4.4070000648498535
6449.251810553544,1132794.0,-0.006020000204443932,0.000539999979082495,-0.004900000058114529,4.3460001945495605
6449.252810325466,1132795.0,-0.006649999879300594,0.0012700000079348683,-0.006680000107735395,4.331999778747559
6449.253810097389,1132796.0,-0.006649999879300594,-0.006719999946653843,-0.0007699999841861427,4.327000141143799
6449.254809869311,1132797.0,-0.005570000037550926,0.0036800000816583633,0.0012700000079348683,4.308000087738037
6449.255809641234,1132798.0,-0.0048500001430511475,-0.004449999891221523,0.000539999979082495,4.388000011444092
6449.2568094131575,1132799.0,-0.007369999773800373,-0.002630000002682209,0.0010000000474974513,4.238999843597412
6449.25780918508,1132800.0,-0.00872000027447939,-0.0020000000949949026,0.0006399999838322401,4.401000022888184
6449.258808957003,1132801.0,-0.006829999852925539,-0.005630000028759241,4.999999873689376e-05,4.401000022888184
6449.259808728925,1132802.0,-0.004220000002533197,0.001769999973475933,-0.005270000081509352,4.394999980926514
6449.260808500848,1132803.0,-0.004399999976158142,-0.0010900000343099236,0.001820000004954636,4.3460001945495605
6449.261808272771,1132804.0,-0.006829999852925539,0.0025400000158697367,0.0030900000128895044,4.321000099182129
6449.262808044694,1132805.0,-0.005929999984800816,-0.004540000110864639,-0.00014000000373926014,4.192999839782715
6449.2638078166165,1132806.0,-0.0003600000054575503,-0.00267999991774559,-0.003000000026077032,4.310999870300293
6449.264807588539,1132807.0,0.00872000027447939,0.000910000002477318,-0.002090000081807375,4.309000015258789
6449.265807360462,1132808.0,0.01384000014513731,-0.005090000107884407,0.0,4.302999973297119
6449.266807132384,1132809.0,0.014290000312030315,-0.005090000107884407,-0.003449999960139394,4.379000186920166
6449.267806904308,1132810.0,0.013120000250637531,0.000910000002477318,-0.002090000081807375,4.294000148773193
6449.26880667623,1132811.0,0.01095999963581562,0.005630000028759241,-0.005450000055134296,4.181000232696533
6449.269806448153,1132812.0,0.008449999615550041,0.0013599999947473407,0.0033199999015778303,4.297999858856201
6449.270806220075,1132813.0,0.006829999852925539,-0.00535999983549118,-0.005090000107884407,4.2789998054504395
6449.271805991998,1132814.0,0.0048500001430511475,0.004540000110864639,-0.0006799999973736703,4.265999794006348
6449.2728057639215,1132815.0,0.00279000005684793,0.000539999979082495,-0.005450000055134296,4.320000171661377
6449.273805535844,1132816.0,-3.9999998989515007e-05,-0.002360000042244792,-0.003539999946951866,4.230000019073486
6449.274805307767,1132817.0,-0.002520000096410513,-0.0029100000392645597,-0.004900000058114529,4.13700008392334
6449.275805079689,1132818.0,-0.0008500000112690032,-0.004360000137239695,-0.0020000000949949026,4.046999931335449
6449.276804851612,1132819.0,0.004399999976158142,0.0002699999895412475,0.004000000189989805,4.224999904632568
6449.277804623534,1132820.0,0.009519999846816063,-0.0025400000158697367,-0.004540000110864639,4.208000183105469
6449.278804395458,1132821.0,0.0129399998113513,0.002360000042244792,0.003449999960139394,4.230000019073486
6449.2798041673805,1132822.0,0.012040000408887863,0.0010400000028312206,0.004000000189989805,4.181000232696533
6449.280803939303,1132823.0,0.010599999688565731,-0.004540000110864639,0.00041000000783242285,4.015999794006348
6449.281803711226,1132824.0,0.007410000078380108,0.0003600000054575503,-0.005859999917447567,4.169000148773193
6449.282803483148,1132825.0,0.0027000000700354576,0.0016299999551847577,9.000000136438757e-05,4.156000137329102
6449.283803255072,1132826.0,-0.0006699999794363976,-0.0029100000392645597,0.0030900000128895044,4.171999931335449
6449.284803026994,1132827.0,-0.0024300001095980406,-0.0029100000392645597,0.001820000004954636,4.061999797821045
6449.285802798917,1132828.0,-0.0027000000700354576,-0.00267999991774559,0.001449999981559813,4.242000102996826
6449.286802570839,1132829.0,-0.0022499999031424522,0.0022299999836832285,0.0006399999838322401,4.140999794006348
6449.287802342762,1132830.0,-0.0016199999954551458,-0.004089999943971634,0.003809999907389283,4.124000072479248
6449.2888021146855,1132831.0,-0.0027000000700354576,-0.00018000000272877514,-0.003269999986514449,4.117000102996826
6449.289801886608,1132832.0,-0.0031399999279528856,0.0010000000474974513,-0.005900000222027302,4.1020002365112305
6449.290801658531,1132833.0,-0.004129999782890081,0.0031799999997019768,-0.0016799999866634607,4.010000228881836
6449.291801430453,1132834.0,-0.007009999826550484,-0.004720000084489584,-0.005539999809116125,4.144000053405762
6449.292801202376,1132835.0,-0.013930000364780426,-0.0037700000684708357,-0.00267999991774559,3.9730000495910645
6449.293800974299,1132836.0,-0.02263999916613102,0.0006399999838322401,-0.0063599999994039536,3.989000082015991
6449.294800746222,1132837.0,-0.028119999915361404,-0.004809999838471413,0.002360000042244792,3.9639999866485596
6449.2958005181445,1132838.0,-0.03288000077009201,-0.008170000277459621,-0.003809999907389283,3.9049999713897705
6449.296800290067,1132839.0,-0.03773999959230423,0.0006399999838322401,0.005309999920427799,4.09499979019165
6449.29780006199,1132840.0,-0.038270000368356705,0.003809999907389283,0.0012700000079348683,4.050000190734863
6449.298799833912,1132841.0,-0.03305999934673309,0.0017300000181421638,0.0059899999760091305,3.921999931335449
6449.299799605836,1132842.0,-0.02281999960541725,0.0012700000079348683,-0.003809999907389283,3.867000102996826
6449.300799377758,1132843.0,-0.014019999653100967,-0.0059899999760091305,-0.004449999891221523,3.8359999656677246
6449.301799149681,1132844.0,-0.006149999797344208,-0.001180000021122396,-0.001180000021122396,4.025000095367432
6449.302798921603,1132845.0,0.0007600000244565308,-0.0024999999441206455,0.001449999981559813,3.884999990463257
6449.303798693526,1132846.0,0.004939999897032976,0.0005000000237487257,0.000910000002477318,4.071000099182129
6449.3047984654495,1132847.0,0.009879999794065952,0.00018000000272877514,-0.0015399999683722854,3.821000099182129
6449.305798237372,1132848.0,0.013930000364780426,-0.0059899999760091305,0.0006399999838322401,3.812000036239624
6449.306798009295,1132849.0,0.01607999950647354,-0.0008200000156648457,0.0002699999895412475,3.997999906539917
6449.307797781217,1132850.0,0.017340000718832016,0.00418000016361475,0.001820000004954636,3.992000102996826
6449.30879755314,1132851.0,0.015270000323653221,-0.006180000025779009,-0.004269999917596579,3.7899999618530273
6449.309797325063,1132852.0,0.012400000356137753,-0.004540000110864639,-0.004129999782890081,3.9059998989105225
6449.310797096986,1132853.0,0.011680000461637974,-0.00418000016361475,-0.004540000110864639,3.9730000495910645
6449.3117968689085,1132854.0,0.012670000083744526,-0.005590000189840794,0.005270000081509352,3.9519999027252197
6449.312796640831,1132855.0,0.015410000458359718,0.004310000222176313,0.004269999917596579,3.9609999656677246
6449.313796412754,1132856.0,0.01860000006854534,-0.0033199999015778303,0.001180000021122396,3.815000057220459
6449.314796184676,1132857.0,0.021740000694990158,-0.000539999979082495,0.001180000021122396,3.9579999446868896
6449.3157959566,1132858.0,0.023180000483989716,0.002630000002682209,0.00031999999191612005,3.921999931335449
6449.316795728522,1132859.0,0.023269999772310257,0.0031799999997019768,-0.00418000016361475,3.8359999656677246
6449.317795500445,1132860.0,0.02281999960541725,-0.007079999893903732,0.001449999981559813,3.803999900817871
6449.318795272367,1132861.0,0.0218299999833107,-0.004540000110864639,-0.005810000002384186,3.7860000133514404
6449.31979504429,1132862.0,0.019589999690651894,-0.006899999920278788,0.001449999981559813,3.9489998817443848
6449.3207948162135,1132863.0,0.017069999128580093,0.0012700000079348683,0.000910000002477318,3.878999948501587
6449.321794588136,1132864.0,0.014059999957680702,0.003590000094845891,0.0017300000181421638,3.7750000953674316
6449.322794360059,1132865.0,0.012849999591708183,0.004679999779909849,-0.005489999894052744,3.743000030517578
6449.323794131981,1132866.0,0.01095999963581562,-0.004540000110864639,0.003000000026077032,3.7049999237060547
6449.324793903904,1132867.0,0.008089999668300152,-0.0025400000158697367,0.0025400000158697367,3.7139999866485596
6449.325793675827,1132868.0,0.00646999990567565,-0.007540000136941671,0.0028200000524520874,3.924999952316284
6449.32679344775,1132869.0,0.005080000031739473,-0.0019099999917671084,0.002409999957308173,3.8389999866485596
6449.3277932196725,1132870.0,0.004579999949783087,0.002630000002682209,0.003449999960139394,3.7139999866485596
6449.328792991595,1132871.0,0.0037700000684708357,0.0017300000181421638,-0.00418000016361475,3.690000057220459
6449.329792763518,1132872.0,0.0008999999845400453,-0.00418000016361475,-0.0020000000949949026,3.615999937057495
6449.33079253544,1132873.0,-0.0015300000086426735,0.0031799999997019768,0.004040000028908253,3.61899995803833
6449.331792307364,1132874.0,-0.0015300000086426735,-0.0063599999994039536,-0.00044999999227002263,3.802000045776367
6449.332792079286,1132875.0,-0.0018899999558925629,-0.0015399999683722854,-0.003449999960139394,3.7780001163482666
6449.333791851209,1132876.0,-0.0027000000700354576,-0.0014100000262260437,-0.005450000055134296,3.683000087738037
6449.334791623131,1132877.0,-0.00215999991632998,-0.004860000219196081,0.0025400000158697367,3.6559998989105225
6449.335791395054,1132878.0,-0.0008999999845400453,0.004089999943971634,-0.0028200000524520874,3.6410000324249268
6449.3367911669775,1132879.0,0.0016199999954551458,-9.000000136438757e-05,-0.0036299999337643385,3.5829999446868896
6449.3377909389,1132880.0,0.0037700000684708357,-0.0010900000343099236,-0.005900000222027302,3.7260000705718994
6449.338790710823,1132881.0,0.003949999809265137,-0.004310000222176313,-0.005810000002384186,3.734999895095825
6449.339790482745,1132882.0,0.004310000222176313,-0.004129999782890081,-0.0033599999733269215,3.638000011444092
6449.340790254668,1132883.0,0.004579999949783087,-0.007449999917298555,0.000910000002477318,3.6679999828338623
6449.341790026591,1132884.0,0.004989999812096357,0.000910000002477318,0.0022700000554323196,3.61899995803833
6449.342789798514,1132885.0,0.004579999949783087,-0.000539999979082495,-0.0024999999441206455,3.5369999408721924
6449.3437895704365,1132886.0,0.002520000096410513,-0.0007300000288523734,-0.003000000026077032,3.6559998989105225
6449.344789342359,1132887.0,0.0012600000482052565,-0.0021299999207258224,-0.004000000189989805,3.7049999237060547
6449.345789114282,1132888.0,-0.0012100000167265534,0.000910000002477318,-0.005630000028759241,3.5799999237060547
6449.346788886205,1132889.0,-0.005080000031739473,-0.0083600003272295,-0.0012700000079348683,3.5399999618530273
6449.347788658128,1132890.0,-0.009159999899566174,0.004269999917596579,-0.0008200000156648457,3.496999979019165
6449.34878843005,1132891.0,-0.013030000030994415,0.005630000028759241,0.0014100000262260437,3.693000078201294
6449.349788201973,1132892.0,-0.013930000364780426,-0.00535999983549118,0.000539999979082495,3.484999895095825
6449.350787973895,1132893.0,-0.009840000420808792,-0.000910000002477318,-0.0007699999841861427,3.561000108718872
6449.351787745818,1132894.0,0.00039999998989515007,-0.000590000010561198,-0.00418000016361475,3.634999990463257
6449.3527875177415,1132895.0,0.00925000011920929,-0.0030900000128895044,0.000910000002477318,3.61899995803833
6449.353787289664,1132896.0,0.013659999705851078,0.0006399999838322401,-0.003000000026077032,3.6070001125335693
6449.354787061587,1132897.0,0.01549999974668026,-0.003000000026077032,0.0030900000128895044,3.568000078201294
6449.355786833509,1132898.0,0.015990000218153,-0.0022700000554323196,0.0011399999493733048,3.61899995803833
6449.356786605432,1132899.0,0.015270000323653221,0.00418000016361475,0.0027199999894946814,3.427000045776367
6449.357786377355,1132900.0,0.015629999339580536,0.0002699999895412475,-0.005630000028759241,3.5829999446868896
6449.358786149278,1132901.0,0.013609999790787697,-0.004310000222176313,-0.0007699999841861427,3.6649999618530273
6449.3597859212005,1132902.0,0.01131999958306551,-0.00031999999191612005,-0.001820000004954636,3.5829999446868896
6449.360785693123,1132903.0,0.005570000037550926,-0.005630000028759241,0.003590000094845891,3.561000108718872
6449.361785465046,1132904.0,-0.004490000195801258,-0.000539999979082495,0.0016299999551847577,3.4609999656677246
6449.362785236969,1132905.0,-0.019589999690651894,0.003449999960139394,-0.0011399999493733048,3.5829999446868896
6449.363785008892,1132906.0,-0.03720000013709068,0.0016299999551847577,-0.0027199999894946814,3.624000072479248
6449.364784780814,1132907.0,-0.05274000018835068,-0.008539999835193157,-0.005630000028759241,3.5829999446868896
6449.365784552737,1132908.0,-0.0636100023984909,0.0024999999441206455,0.004089999943971634,3.572000026702881
6449.366784324659,1132909.0,-0.06559000164270401,0.000910000002477318,0.0015399999683722854,3.5339999198913574
6449.367784096582,1132910.0,-0.05714000016450882,-0.004360000137239695,-0.0007300000288523734,3.4149999618530273
6449.3687838685055,1132911.0,-0.03822999820113182,0.0024500000290572643,0.000910000002477318,3.5840001106262207
6449.369783640428,1132912.0,-0.01508999988436699,-0.0027199999894946814,0.0016299999551847577,3.552000045776367
6449.370783412351,1132913.0,0.006649999879300594,-0.0020000000949949026,-0.0051299999468028545,3.5220000743865967
6449.371783184273,1132914.0,0.02363000065088272,0.0012700000079348683,-0.00018000000272877514,3.427000045776367
6449.372782956196,1132915.0,0.03342000022530556,-0.0021800000686198473,0.0016299999551847577,3.5250000953674316
6449.373782728119,1132916.0,0.03844999894499779,-0.003809999907389283,-0.0008200000156648457,3.4700000286102295
6449.374782500042,1132917.0,0.03863000124692917,0.0016299999551847577,0.004769999999552965,3.3369998931884766
6449.375782271964,1132918.0,0.03692999854683876,-0.00418000016361475,-0.0021800000686198473,3.3259999752044678
6449.376782043887,1132919.0,0.03305999934673309,-0.0020000000949949026,-0.0029100000392645597,3.2939999103546143
6449.37778181581,1132920.0,0.024800000712275505,0.002589999930933118,0.0033599999733269215,3.265000104904175
6449.378781587733,1132921.0,0.014419999904930592,-0.0016299999551847577,0.003449999960139394,3.3949999809265137
6449.379781359656,1132922.0,0.0033199999015778303,-0.004449999891221523,-0.0008200000156648457,3.4159998893737793
6449.380781131578,1132923.0,-0.007369999773800373,0.0025400000158697367,0.0,3.2939999103546143
6449.381780903501,1132924.0,-0.014550000429153442,-0.006130000110715628,0.002589999930933118,3.3259999752044678
6449.382780675423,1132925.0,-0.015270000323653221,0.006399999838322401,-0.004269999917596579,3.3420000076293945
6449.383780447346,1132926.0,-0.012040000408887863,0.003269999986514449,0.001820000004954636,3.2839999198913574
6449.3847802192695,1132927.0,-0.006829999852925539,-0.000910000002477318,0.002360000042244792,3.4790000915527344
6449.385779991192,1132928.0,0.0007600000244565308,-0.0033599999733269215,0.0024500000290572643,3.375
6449.386779763115,1132929.0,0.009879999794065952,-0.002360000042244792,0.000539999979082495,3.4549999237060547
6449.387779535037,1132930.0,0.01689000055193901,-0.00418000016361475,0.0021800000686198473,3.444999933242798
6449.38877930696,1132931.0,0.022549999877810478,0.00418000016361475,-0.003719999920576811,3.450000047683716
6449.389779078883,1132932.0,0.024080000817775726,0.0014100000262260437,0.003269999986514449,3.2320001125335693
6449.390778850806,1132933.0,0.023360000923275948,-0.0021299999207258224,0.0010900000343099236,3.438999891281128
6449.391778622728,1132934.0,0.019950000569224358,-0.005539999809116125,0.002409999957308173,3.3259999752044678
6449.392778394651,1132935.0,0.015809999778866768,-0.00535999983549118,-0.001820000004954636,3.378000020980835
6449.393778166574,1132936.0,0.01095999963581562,0.0003600000054575503,0.0006399999838322401,3.313999891281128
6449.394777938497,1132937.0,0.0053900000639259815,0.0002699999895412475,-0.004900000058114529,3.2090001106262207
6449.39577771042,1132938.0,-0.0017099999822676182,-0.001180000021122396,0.0036800000816583633,3.313999891281128
6449.396777482342,1132939.0,-0.009340000338852406,0.002630000002682209,0.004269999917596579,3.191999912261963
6449.397777254265,1132940.0,-0.015629999339580536,-0.005450000055134296,0.0020000000949949026,3.3259999752044678
6449.398777026187,1132941.0,-0.017969999462366104,-0.0051299999468028545,-0.0033599999733269215,3.265000104904175
6449.39977679811,1132942.0,-0.016529999673366547,0.0027199999894946814,0.004000000189989805,3.197999954223633
6449.4007765700335,1132943.0,-0.012350000441074371,-0.003909999970346689,0.000910000002477318,3.1429998874664307
6449.401776341956,1132944.0,-0.006289999932050705,-0.001769999973475933,0.0012700000079348683,3.257999897003174
6449.402776113879,1132945.0,-3.9999998989515007e-05,-0.001180000021122396,-0.0007699999841861427,3.1459999084472656
6449.403775885801,1132946.0,0.0035500000230968,0.003809999907389283,-0.0015399999683722854,3.3329999446868896
6449.404775657724,1132947.0,0.005570000037550926,0.0059899999760091305,0.0006799999973736703,3.2909998893737793
6449.405775429647,1132948.0,0.0064199999906122684,-0.0036299999337643385,-0.005590000189840794,3.2960000038146973
6449.40677520157,1132949.0,0.0071000000461936,-0.004540000110864639,-0.000539999979082495,3.265000104904175
6449.407774973492,1132950.0,0.007009999826550484,-0.004769999999552965,-0.0012700000079348683,3.2170000076293945
6449.408774745415,1132951.0,0.004670000169426203,-0.0030900000128895044,-0.004900000058114529,3.1070001125335693
6449.409774517338,1132952.0,0.0037700000684708357,0.004089999943971634,-0.003719999920576811,3.2239999771118164
6449.410774289261,1132953.0,0.000539999979082495,-0.0027199999894946814,0.0012700000079348683,3.240999937057495
6449.411774061184,1132954.0,-0.0037700000684708357,-0.004540000110864639,0.0045900000259280205,3.197000026702881
6449.412773833106,1132955.0,-0.006560000125318766,0.007079999893903732,-0.0059899999760091305,3.194999933242798
6449.413773605029,1132956.0,-0.009700000286102295,0.000539999979082495,-0.003809999907389283,3.0239999294281006
6449.414773376951,1132957.0,-0.013120000250637531,-0.005770000163465738,0.0020000000949949026,3.240999937057495
6449.415773148874,1132958.0,-0.0147299999371171,-0.0007300000288523734,0.0014100000262260437,3.13700008392334
6449.4167729207975,1132959.0,-0.020309999585151672,-0.004629999864846468,-0.004720000084489584,3.134000062942505
6449.41777269272,1132960.0,-0.030640000477433205,-0.0027199999894946814,0.000910000002477318,3.140000104904175
6449.418772464643,1132961.0,-0.04438000172376633,0.005270000081509352,0.00044999999227002263,3.13100004196167
6449.419772236565,1132962.0,-0.056379999965429306,-0.005270000081509352,0.0021800000686198473,2.9600000381469727
6449.420772008488,1132963.0,-0.06631000339984894,-0.003909999970346689,0.0017300000181421638,3.1630001068115234
6449.421771780411,1132964.0,-0.07336000353097916,0.00018000000272877514,0.003539999946951866,3.125
6449.422771552334,1132965.0,-0.0762299969792366,-0.004900000058114529,-0.001180000021122396,3.1040000915527344
6449.423771324256,1132966.0,-0.0762299969792366,0.003860000055283308,-0.00267999991774559,3.0869998931884766
6449.424771096179,1132967.0,-0.06809999793767929,0.002360000042244792,-0.00041000000783242285,3.1679999828338623
6449.425770868102,1132968.0,-0.04972999915480614,-0.005630000028759241,-0.002589999930933118,3.069999933242798
6449.426770640025,1132969.0,-0.030009999871253967,-0.006810000166296959,0.00031999999191612005,2.9719998836517334
6449.427770411948,1132970.0,-0.019500000402331352,0.00018000000272877514,0.003449999960139394,3.058000087738037
6449.42877018387,1132971.0,-0.015629999339580536,-0.007269999943673611,-0.006719999946653843,3.0759999752044678
6449.429769955793,1132972.0,-0.014910000376403332,0.004360000137239695,0.00018000000272877514,3.115999937057495
6449.430769727715,1132973.0,-0.016259999945759773,0.007860000245273113,-0.0036800000816583633,3.0290000438690186
6449.431769499639,1132974.0,-0.016440000385046005,-0.005090000107884407,-0.0019099999917671084,3.0399999618530273
6449.4327692715615,1132975.0,-0.015990000218153,-0.00041000000783242285,0.0013599999947473407,2.88700008392334
6449.433769043484,1132976.0,-0.01513999979943037,-0.005090000107884407,-9.000000136438757e-05,3.0239999294281006
6449.434768815407,1132977.0,-0.015629999339580536,-0.000539999979082495,0.002360000042244792,3.0209999084472656
6449.435768587329,1132978.0,-0.016170000657439232,0.0031799999997019768,-0.004540000110864639,2.996999979019165
6449.436768359252,1132979.0,-0.017249999567866325,0.0010000000474974513,-0.003269999986514449,2.9110000133514404
6449.437768131175,1132980.0,-0.020659999921917915,-0.00267999991774559,-0.00031999999191612005,3.0209999084472656
6449.438767903098,1132981.0,-0.02556000091135502,-0.004540000110864639,0.0029100000392645597,2.8380000591278076
6449.43976767502,1132982.0,-0.03117999993264675,-0.006130000110715628,-0.0016299999551847577,3.003000020980835
6449.440767446943,1132983.0,-0.0350399985909462,-0.0025400000158697367,0.0010000000474974513,3.052999973297119
6449.441767218866,1132984.0,-0.03773999959230423,0.003539999946951866,-0.0021800000686198473,3.0
6449.442766990789,1132985.0,-0.039889998733997345,0.004769999999552965,-0.007770000025629997,2.9539999961853027
6449.443766762712,1132986.0,-0.040789999067783356,-0.007720000110566616,-0.005900000222027302,2.8380000591278076
6449.444766534634,1132987.0,-0.042500000447034836,-0.003539999946951866,-0.001769999973475933,2.9600000381469727
6449.445766306557,1132988.0,-0.04650000110268593,-0.003220000071451068,-0.004720000084489584,2.997999906539917
6449.446766078479,1132989.0,-0.052650000900030136,-0.005590000189840794,-0.0006399999838322401,2.9820001125335693
6449.447765850403,1132990.0,-0.0573199987411499,0.0021299999207258224,-0.006219999864697456,2.947999954223633
6449.4487656223255,1132991.0,-0.06294000148773193,0.0020000000949949026,-0.0028200000524520874,2.8949999809265137
6449.449765394248,1132992.0,-0.06764999777078629,-0.005950000137090683,-0.0036299999337643385,2.7679998874664307
6449.450765166171,1132993.0,-0.0689999982714653,-0.0010000000474974513,-0.0051299999468028545,2.8919999599456787
6449.451764938093,1132994.0,-0.06577000021934509,-0.005489999894052744,0.001500000013038516,2.756999969482422
6449.452764710016,1132995.0,-0.059300001710653305,-0.0033599999733269215,-0.0020000000949949026,2.75
6449.453764481939,1132996.0,-0.05031000077724457,0.0021299999207258224,-0.0063599999994039536,2.7239999771118164
6449.454764253862,1132997.0,-0.04295000061392784,-0.0033599999733269215,-0.00418000016361475,2.933000087738037
6449.455764025784,1132998.0,-0.03692999854683876,-9.000000136438757e-05,-0.0076299998909235,2.8440001010894775
6449.456763797707,1132999.0,-0.03109000064432621,0.003220000071451068,-0.008080000057816505,2.7339999675750732
6449.45776356963,1133000.0,-0.025200000032782555,-0.0024500000290572643,-0.000539999979082495,2.7279999256134033
6449.458763341553,1133001.0,-0.018689999356865883,-0.0011399999493733048,0.005309999920427799,2.694999933242798
6449.459763113476,1133002.0,-0.012670000083744526,-0.00018000000272877514,-0.0022700000554323196,2.6570000648498535
6449.460762885398,1133003.0,-0.005659999791532755,-0.005539999809116125,-0.007269999943673611,2.75600004196167
6449.461762657321,1133004.0,0.00018000000272877514,0.0003600000054575503,-0.006089999806135893,2.8350000381469727
6449.462762429243,1133005.0,0.003949999809265137,0.00203999993391335,-0.004540000110864639,2.631999969482422
6449.463762201167,1133006.0,0.0023399998899549246,-0.00018000000272877514,-0.004540000110864639,2.8269999027252197
6449.4647619730895,1133007.0,-0.005840000230818987,-0.005270000081509352,0.002360000042244792,2.7829999923706055
6449.465761745012,1133008.0,-0.0147299999371171,0.0013599999947473407,-0.002360000042244792,2.7679998874664307
6449.466761516935,1133009.0,-0.02022000029683113,-0.004000000189989805,-0.005539999809116125,2.614000082015991
6449.467761288857,1133010.0,-0.016259999945759773,-0.00535999983549118,-0.004449999891221523,2.7890000343322754
6449.46876106078,1133011.0,-0.0036800000816583633,-0.00018000000272877514,0.004540000110864639,2.765000104904175
6449.469760832703,1133012.0,0.013700000010430813,-0.006899999920278788,-0.000910000002477318,2.7279999256134033
6449.470760604626,1133013.0,0.03288000077009201,-0.00041000000783242285,0.001449999981559813,2.75600004196167
6449.471760376548,1133014.0,0.05364000052213669,0.0031799999997019768,-0.005590000189840794,2.813999891281128
6449.472760148471,1133015.0,0.07614000141620636,-0.0024500000290572643,-0.0028200000524520874,2.7330000400543213
6449.473759920394,1133016.0,0.09702999889850616,-0.0029100000392645597,-0.002360000042244792,2.5940001010894775
6449.474759692317,1133017.0,0.10960999876260757,-0.0002699999895412475,0.00418000016361475,2.7190001010894775
6449.47575946424,1133018.0,0.11060000211000443,-0.004129999782890081,-0.005900000222027302,2.7160000801086426
6449.476759236162,1133019.0,0.10655999928712845,0.0010000000474974513,0.001820000004954636,2.7679998874664307
6449.477759008085,1133020.0,0.1001800000667572,0.002360000042244792,-0.0064500002190470695,2.5940001010894775
6449.478758780007,1133021.0,0.08975999802350998,-0.005090000107884407,-0.004449999891221523,2.7739999294281006
6449.479758551931,1133022.0,0.07677000015974045,-0.0033599999733269215,-0.004449999891221523,2.671999931335449
6449.4807583238535,1133023.0,0.064690001308918,0.00018000000272877514,-0.0007300000288523734,2.742000102996826
6449.481758095776,1133024.0,0.055080000311136246,-0.0030900000128895044,-0.005179999861866236,2.7360000610351562
6449.482757867699,1133025.0,0.05012999847531319,0.004360000137239695,0.00571999978274107,2.7160000801086426
6449.483757639621,1133026.0,0.04554999992251396,0.0,-0.0036299999337643385,2.486999988555908
6449.484757411545,1133027.0,0.04402000084519386,-0.004129999782890081,-0.004449999891221523,2.6059999465942383
6449.485757183467,1133028.0,0.04383999854326248,0.00018000000272877514,-0.005630000028759241,2.63100004196167
6449.48675695539,1133029.0,0.042319998145103455,-0.0020000000949949026,0.0016299999551847577,2.7039999961853027
6449.487756727312,1133030.0,0.03872000053524971,-0.004410000052303076,-0.004269999917596579,2.7100000381469727
6449.488756499235,1133031.0,0.032749999314546585,0.0028200000524520874,0.0012700000079348683,2.6689999103546143
6449.489756271158,1133032.0,0.025699999183416367,0.001500000013038516,-0.002950000111013651,2.440000057220459
6449.490756043081,1133033.0,0.017430000007152557,-0.005630000028759241,-0.00418000016361475,2.509000062942505
6449.491755815004,1133034.0,0.008630000054836273,-0.0025400000158697367,-0.004900000058114529,2.622999906539917
6449.492755586926,1133035.0,-0.00018000000272877514,-0.007079999893903732,0.001449999981559813,2.6429998874664307
6449.493755358849,1133036.0,-0.008089999668300152,0.002090000081807375,-0.004449999891221523,2.621000051498413
6449.494755130771,1133037.0,-0.012849999591708183,0.0011399999493733048,-0.0027199999894946814,2.5450000762939453
6449.495754902695,1133038.0,-0.014290000312030315,0.003449999960139394,-0.003449999960139394,2.546999931335449
6449.4967546746175,1133039.0,-0.015629999339580536,-0.0025400000158697367,-0.0059899999760091305,2.4049999713897705
6449.49775444654,1133040.0,-0.018239999189972878,-0.0014100000262260437,-0.0020000000949949026,2.571000099182129
6449.498754218463,1133041.0,-0.0218299999833107,-0.003449999960139394,0.00418000016361475,2.502000093460083
6449.499753990385,1133042.0,-0.02425999939441681,0.0021299999207258224,-0.005859999917447567,2.447999954223633
6449.500753762309,1133043.0,-0.02483999915421009,0.003539999946951866,0.000539999979082495,2.4000000953674316
6449.501753534231,1133044.0,-0.025340000167489052,0.004540000110864639,-0.0005000000237487257,2.5769999027252197
6449.502753306154,1133045.0,-0.02353999949991703,-0.002589999930933118,-0.00418000016361475,2.365000009536743
6449.503753078076,1133046.0,-0.02022000029683113,-0.0024500000290572643,-0.0030900000128895044,2.5829999446868896
6449.504752849999,1133047.0,-0.017069999128580093,0.002360000042244792,0.0017300000181421638,2.5820000171661377
6449.505752621922,1133048.0,-0.012040000408887863,-0.005900000222027302,0.003809999907389283,2.566999912261963
6449.506752393845,1133049.0,-0.00800000037997961,-0.005179999861866236,-0.004540000110864639,2.562000036239624
6449.507752165768,1133050.0,-0.008539999835193157,-0.002360000042244792,-0.00418000016361475,2.4630000591278076
6449.50875193769,1133051.0,-0.0129399998113513,-0.002360000042244792,-0.006630000192672014,2.3469998836517334
6449.509751709613,1133052.0,-0.017069999128580093,0.0024500000290572643,-0.0036800000816583633,2.4609999656677246
6449.510751481535,1133053.0,-0.01779000088572502,-0.0059899999760091305,-0.006899999920278788,2.4570000171661377
6449.511751253459,1133054.0,-0.01607999950647354,-0.0020000000949949026,0.0015399999683722854,2.447999954223633
6449.5127510253815,1133055.0,-0.011409999802708626,0.0030900000128895044,0.0017300000181421638,2.497999906539917
6449.513750797304,1133056.0,-0.005030000116676092,-0.001180000021122396,0.002090000081807375,2.2769999504089355
6449.514750569227,1133057.0,0.0034099998883903027,-0.003809999907389283,0.00031999999191612005,2.4489998817443848
6449.515750341149,1133058.0,0.01257999986410141,-0.003949999809265137,-0.0030900000128895044,2.256999969482422
6449.516750113073,1133059.0,0.01769999973475933,0.0013599999947473407,0.005630000028759241,2.252000093460083
6449.517749884995,1133060.0,0.01679999940097332,-0.003000000026077032,-0.0059899999760091305,2.240000009536743
6449.518749656918,1133061.0,0.014600000344216824,-0.0008200000156648457,0.003539999946951866,2.4110000133514404
6449.51974942884,1133062.0,0.011719999834895134,-0.00014000000373926014,0.0017300000181421638,2.240000009536743
6449.520749200763,1133063.0,0.00773000018671155,0.0012700000079348683,0.0010000000474974513,2.315999984741211
6449.521748972686,1133064.0,0.004490000195801258,0.004720000084489584,-0.00418000016361475,2.2130000591278076
6449.522748744609,1133065.0,0.0026100000832229853,-0.001769999973475933,0.002950000111013651,2.2090001106262207
6449.523748516532,1133066.0,0.0016199999954551458,-0.0006799999973736703,0.005810000002384186,2.2130000591278076
6449.524748288454,1133067.0,0.000539999979082495,-0.001769999973475933,0.0030900000128895044,2.4140000343322754
6449.525748060377,1133068.0,0.0008999999845400453,-0.005450000055134296,-0.0044999998062849045,2.3540000915527344
6449.526747832299,1133069.0,0.0012600000482052565,-0.0025400000158697367,-0.0030400000978261232,2.252000093460083
6449.527747604223,1133070.0,0.0,-0.0014100000262260437,0.0020000000949949026,2.184000015258789
6449.5287473761455,1133071.0,-0.0016199999954551458,0.00044999999227002263,-0.002630000002682209,2.3440001010894775
6449.529747148068,1133072.0,-0.002520000096410513,0.0035000001080334187,-0.00418000016361475,2.312999963760376
6449.530746919991,1133073.0,-0.00279000005684793,0.000910000002477318,-0.003719999920576811,2.378999948501587
6449.531746691913,1133074.0,-0.0022899999748915434,-0.00018000000272877514,0.00044999999227002263,2.2950000762939453
6449.532746463837,1133075.0,-0.003590000094845891,-0.00418000016361475,0.003000000026077032,2.2769999504089355
6449.533746235759,1133076.0,-0.005659999791532755,0.006949999835342169,-0.00686000008136034,2.1449999809265137
6449.534746007682,1133077.0,-0.008270000107586384,-0.005400000140070915,0.000539999979082495,2.1440000534057617
6449.535745779604,1133078.0,-0.0083600003272295,-0.0076299998909235,0.0017300000181421638,2.132999897003174
6449.536745551527,1133079.0,-0.008449999615550041,-0.004360000137239695,0.005859999917447567,2.3510000705718994
6449.53774532345,1133080.0,-0.010780000127851963,0.005810000002384186,0.00014000000373926014,2.257999897003174
6449.538745095373,1133081.0,-0.013749999925494194,0.001769999973475933,0.0017300000181421638,2.118000030517578
6449.539744867296,1133082.0,-0.015720000490546227,0.0036299999337643385,-0.004540000110864639,2.0999999046325684
6449.540744639218,1133083.0,-0.01671000011265278,-0.005270000081509352,0.0012700000079348683,2.0940001010894775
6449.541744411141,1133084.0,-0.016979999840259552,-0.0003600000054575503,0.0014100000262260437,2.2190001010894775
6449.542744183063,1133085.0,-0.014550000429153442,-0.004360000137239695,0.0,2.1059999465942383
6449.543743954987,1133086.0,-0.01348000019788742,-0.005630000028759241,0.004269999917596579,2.2669999599456787
6449.5447437269095,1133087.0,-0.015540000051259995,0.0010000000474974513,0.0030900000128895044,2.058000087738037
6449.545743498832,1133088.0,-0.0185100007802248,-0.005450000055134296,-0.0029100000392645597,2.0450000762939453
6449.546743270755,1133089.0,-0.01923000067472458,-0.0015399999683722854,0.0006799999973736703,2.196000099182129
6449.547743042677,1133090.0,-0.020659999921917915,0.001820000004954636,0.002409999957308173,2.190999984741211
6449.548742814601,1133091.0,-0.020390000194311142,-0.00418000016361475,0.002589999930933118,2.0390000343322754
6449.549742586523,1133092.0,-0.01779000088572502,-0.004410000052303076,0.0024999999441206455,2.124000072479248
6449.550742358446,1133093.0,-0.013299999758601189,0.00018000000272877514,-0.0007300000288523734,2.1710000038146973
6449.551742130368,1133094.0,-0.0083600003272295,-0.007809999864548445,-0.006130000110715628,2.2079999446868896
6449.552741902291,1133095.0,-0.005210000090301037,-0.0016299999551847577,-0.004769999999552965,2.2219998836517334
6449.553741674214,1133096.0,-0.0034099998883903027,0.003449999960139394,0.0021800000686198473,2.0450000762939453
6449.554741446137,1133097.0,-0.0034099998883903027,-0.008539999835193157,0.002630000002682209,2.190999984741211
6449.55574121806,1133098.0,-0.0028800000436604023,-0.0027199999894946814,0.002090000081807375,2.1419999599456787
6449.556740989982,1133099.0,-0.0017999999690800905,-0.0010900000343099236,0.00418000016361475,2.0
6449.557740761905,1133100.0,-0.0014400000218302011,-0.005270000081509352,-0.0022700000554323196,1.9989999532699585
6449.558740533827,1133101.0,9.000000136438757e-05,0.00418000016361475,-0.004269999917596579,1.9500000476837158
6449.559740305751,1133102.0,-0.0013500000350177288,0.003449999960139394,0.00018000000272877514,2.127000093460083
6449.5607400776735,1133103.0,-0.00872000027447939,-0.00418000016361475,0.0010900000343099236,1.9620000123977661
6449.561739849596,1133104.0,-0.021159999072551727,-0.006310000084340572,0.003269999986514449,2.0869998931884766
6449.562739621519,1133105.0,-0.03449999913573265,-0.003449999960139394,0.0031799999997019768,1.9390000104904175
6449.563739393441,1133106.0,-0.04244999960064888,-0.0037700000684708357,-0.004540000110864639,1.9259999990463257
6449.564739165365,1133107.0,-0.045099999755620956,0.004540000110864639,-0.00535999983549118,2.0139999389648438
6449.565738937287,1133108.0,-0.04061000049114227,0.000910000002477318,-0.006310000084340572,2.132999897003174
6449.56673870921,1133109.0,-0.027130000293254852,-0.004900000058114529,-0.005590000189840794,2.0420000553131104
6449.567738481132,1133110.0,-0.0101500004529953,-0.005270000081509352,-0.0021299999207258224,1.9470000267028809
6449.568738253055,1133111.0,0.003100000089034438,-0.004360000137239695,0.0016299999551847577,1.8949999809265137
6449.5697380249785,1133112.0,0.010060000233352184,0.0013599999947473407,-0.0006799999973736703,1.8799999952316284
6449.570737796901,1133113.0,0.011680000461637974,-0.0012700000079348683,-0.00418000016361475,1.8650000095367432
6449.571737568824,1133114.0,0.009340000338852406,0.0015399999683722854,-0.004540000110864639,2.0940001010894775
6449.572737340746,1133115.0,0.0053900000639259815,0.004540000110864639,-0.004540000110864639,2.0280001163482666
6449.573737112669,1133116.0,0.004310000222176313,-0.004000000189989805,-0.006310000084340572,1.8919999599456787
6449.574736884591,1133117.0,0.0024300001095980406,-0.001820000004954636,-0.0006399999838322401,1.8489999771118164
6449.575736656515,1133118.0,0.0010300000431016088,0.0016299999551847577,-0.003719999920576811,1.9839999675750732
6449.5767364284375,1133119.0,-0.0008999999845400453,-0.004720000084489584,-0.0059899999760091305,1.9839999675750732
6449.57773620036,1133120.0,-0.00107999995816499,-0.00018000000272877514,-0.002630000002682209,1.8489999771118164
6449.578735972283,1133121.0,-0.0024300001095980406,0.007449999917298555,-0.0021800000686198473,1.996000051498413
6449.579735744205,1133122.0,-0.003370000049471855,-0.0020000000949949026,-0.0036299999337643385,1.9589999914169312
6449.580735516129,1133123.0,-0.006020000204443932,0.003909999970346689,0.0033599999733269215,1.9609999656677246
6449.581735288051,1133124.0,-0.007369999773800373,-0.004540000110864639,0.0030900000128895044,1.9559999704360962
6449.582735059974,1133125.0,-0.006829999852925539,-0.006899999920278788,-0.0036299999337643385,1.9869999885559082
6449.583734831896,1133126.0,-0.0053900000639259815,-0.00795000046491623,-0.004360000137239695,1.934999942779541
6449.584734603819,1133127.0,-0.0007200000109151006,0.0031799999997019768,-0.0027199999894946814,1.8279999494552612
6449.5857343757425,1133128.0,0.0028800000436604023,0.0007300000288523734,-0.00418000016361475,1.9129999876022339
6449.586734147665,1133129.0,0.005210000090301037,0.004999999888241291,0.0010000000474974513,1.9780000448226929
6449.587733919588,1133130.0,0.00610999995842576,-0.003860000055283308,0.0010000000474974513,1.9850000143051147
6449.58873369151,1133131.0,0.005210000090301037,-0.004410000052303076,-0.007809999864548445,1.8919999599456787
6449.589733463433,1133132.0,0.0030499999411404133,-0.0015399999683722854,-0.00267999991774559,1.9129999876022339
6449.590733235355,1133133.0,0.00018000000272877514,0.00018000000272877514,-0.0028200000524520874,1.7519999742507935
6449.591733007279,1133134.0,-0.0016199999954551458,-0.0005000000237487257,-0.004000000189989805,1.8860000371932983
6449.5927327792015,1133135.0,-0.00018000000272877514,0.0021299999207258224,0.00203999993391335,1.8279999494552612
6449.593732551124,1133136.0,0.004540000110864639,-0.003220000071451068,-0.0021800000686198473,1.7940000295639038
6449.594732323047,1133137.0,0.009789999574422836,-0.00571999978274107,0.00018000000272877514,1.7239999771118164
6449.595732094969,1133138.0,0.007550000213086605,0.0012700000079348683,-0.0020000000949949026,1.8370000123977661
6449.596731866893,1133139.0,-0.00018000000272877514,0.004449999891221523,-0.0008200000156648457,1.843000054359436
6449.597731638815,1133140.0,-0.009159999899566174,-0.00267999991774559,-0.005539999809116125,1.6979999542236328
6449.598731410738,1133141.0,-0.018459999933838844,0.0030900000128895044,-0.000910000002477318,1.7059999704360962
6449.59973118266,1133142.0,-0.02727000042796135,-0.001820000004954636,-0.004769999999552965,1.6820000410079956
6449.600730954583,1133143.0,-0.033330000936985016,-0.004000000189989805,0.003590000094845891,1.8309999704360962
6449.6017307265065,1133144.0,-0.0370200015604496,0.002360000042244792,-9.000000136438757e-05,1.6679999828338623
6449.602730498429,1133145.0,-0.03612000122666359,-0.0012700000079348683,-9.000000136438757e-05,1.7059999704360962
6449.603730270352,1133146.0,-0.030950000509619713,-0.0059899999760091305,0.0011399999493733048,1.8040000200271606
6449.604730042274,1133147.0,-0.02263999916613102,-0.000539999979082495,0.004720000084489584,1.8079999685287476
6449.605729814197,1133148.0,-0.015990000218153,-0.0019099999917671084,-0.004129999782890081,1.8040000200271606
6449.606729586119,1133149.0,-0.012400000356137753,0.0028200000524520874,-0.0002699999895412475,1.6690000295639038
6449.607729358043,1133150.0,-0.008089999668300152,-0.00041000000783242285,0.0006399999838322401,1.8550000190734863
6449.6087291299655,1133151.0,-0.0030499999411404133,-0.0063599999994039536,0.0010900000343099236,1.75600004196167
6449.609728901888,1133152.0,0.0009899999713525176,-0.003269999986514449,0.001449999981559813,1.819000005722046
6449.610728673811,1133153.0,0.004310000222176313,0.0030900000128895044,0.000539999979082495,1.8220000267028809
6449.611728445733,1133154.0,0.005929999984800816,-0.0030900000128895044,-0.0030900000128895044,1.8250000476837158
6449.612728217657,1133155.0,0.008270000107586384,0.0016799999866634607,0.0015399999683722854,1.6080000400543213
6449.613727989579,1133156.0,0.010239999741315842,0.0020000000949949026,0.0002300000051036477,1.7029999494552612
6449.614727761502,1133157.0,0.0147299999371171,-0.0029100000392645597,0.0025400000158697367,1.7430000305175781
6449.615727533424,1133158.0,0.021199999377131462,-0.003909999970346689,-0.005270000081509352,1.809999942779541
6449.616727305347,1133159.0,0.02694999985396862,0.001449999981559813,0.0015399999683722854,1.8020000457763672
6449.6177270772705,1133160.0,0.030460000038146973,-0.005900000222027302,-0.0036299999337643385,1.7899999618530273
6449.618726849193,1133161.0,0.03077000007033348,-0.0003600000054575503,-0.0011399999493733048,1.569000005722046
6449.619726621116,1133162.0,0.030009999871253967,0.004000000189989805,0.002090000081807375,1.6970000267028809
6449.620726393038,1133163.0,0.027939999476075172,-0.004540000110864639,0.003449999960139394,1.6829999685287476
6449.621726164961,1133164.0,0.024800000712275505,0.0051299999468028545,-0.004449999891221523,1.6829999685287476
6449.622725936884,1133165.0,0.021560000255703926,-0.000910000002477318,0.0003600000054575503,1.684999942779541
6449.623725708807,1133166.0,0.018330000340938568,-0.005630000028759241,-0.001180000021122396,1.6740000247955322
6449.6247254807295,1133167.0,0.014550000429153442,-0.004540000110864639,0.0021299999207258224,1.5520000457763672
6449.625725252652,1133168.0,0.011500000022351742,0.00018000000272877514,0.004900000058114529,1.7170000076293945
6449.626725024575,1133169.0,0.007369999773800373,0.000910000002477318,0.0010900000343099236,1.5210000276565552
6449.627724796497,1133170.0,0.0048500001430511475,-0.0029100000392645597,-0.005450000055134296,1.4980000257492065
6449.628724568421,1133171.0,0.0030499999411404133,-0.0030900000128895044,-0.0012700000079348683,1.4950000047683716
6449.629724340343,1133172.0,0.0023399998899549246,0.0021299999207258224,0.0013599999947473407,1.6540000438690186
6449.630724112266,1133173.0,0.0037700000684708357,-0.007449999917298555,9.000000136438757e-05,1.5870000123977661
6449.631723884188,1133174.0,0.005750000011175871,-0.0003600000054575503,-0.0006799999973736703,1.6169999837875366
6449.632723656111,1133175.0,0.007009999826550484,0.0016299999551847577,0.0027199999894946814,1.4769999980926514
6449.6337234280345,1133176.0,0.009390000253915787,-0.004449999891221523,-0.003539999946951866,1.531999945640564
6449.634723199957,1133177.0,0.01095999963581562,-0.002589999930933118,-0.004360000137239695,1.5440000295639038
6449.63572297188,1133178.0,0.010239999741315842,0.002630000002682209,0.003809999907389283,1.4529999494552612
6449.636722743802,1133179.0,0.004129999782890081,0.003449999960139394,0.0010000000474974513,1.6050000190734863
6449.637722515725,1133180.0,-0.0026100000832229853,-0.007309999782592058,0.0007699999841861427,1.465000033378601
6449.638722287647,1133181.0,-0.009119999594986439,0.00044999999227002263,-0.004720000084489584,1.5820000171661377
6449.639722059571,1133182.0,-0.013659999705851078,0.0029100000392645597,-0.0007300000288523734,1.559000015258789
6449.6407218314935,1133183.0,-0.016170000657439232,-0.0008200000156648457,0.0006399999838322401,1.5750000476837158
6449.641721603416,1133184.0,-0.016170000657439232,-0.0033199999015778303,-0.0027199999894946814,1.6100000143051147
6449.642721375339,1133185.0,-0.014290000312030315,0.0030900000128895044,-0.000910000002477318,1.5440000295639038
6449.643721147261,1133186.0,-0.011590000241994858,-0.0031799999997019768,-0.00018000000272877514,1.4220000505447388
6449.644720919185,1133187.0,-0.005710000172257423,-0.003449999960139394,-0.004000000189989805,1.5440000295639038
6449.645720691107,1133188.0,0.0008999999845400453,0.001820000004954636,-0.0036800000816583633,1.531999945640564
6449.64672046303,1133189.0,0.0027000000700354576,-0.0010400000028312206,0.004410000052303076,1.5260000228881836
6449.647720234952,1133190.0,0.0028800000436604023,0.00018000000272877514,-0.0024500000290572643,1.5520000457763672
6449.648720006875,1133191.0,0.0021100000012665987,0.0031799999997019768,0.0,1.5049999952316284
6449.6497197787985,1133192.0,0.0027000000700354576,-0.00795000046491623,-0.0033599999733269215,1.3890000581741333
6449.650719550721,1133193.0,0.003100000089034438,-0.004769999999552965,-0.00418000016361475,1.4919999837875366
6449.651719322644,1133194.0,0.004629999864846468,0.00535999983549118,-0.006719999946653843,1.4859999418258667
6449.652719094566,1133195.0,0.0030499999411404133,-0.0012700000079348683,-0.00018000000272877514,1.4769999980926514
6449.653718866489,1133196.0,0.0008999999845400453,0.005630000028759241,0.00418000016361475,1.4470000267028809
6449.654718638412,1133197.0,-0.00018000000272877514,0.000910000002477318,-9.000000136438757e-05,1.4980000257492065
6449.655718410335,1133198.0,-0.0014400000218302011,-0.005400000140070915,-0.0030900000128895044,1.3309999704360962
6449.6567181822575,1133199.0,-0.0027000000700354576,-0.0008200000156648457,-0.0012700000079348683,1.4589999914169312
6449.65771795418,1133200.0,-0.0030499999411404133,-0.002630000002682209,-0.005179999861866236,1.4509999752044678
6449.658717726103,1133201.0,-0.0036800000816583633,0.0016299999551847577,0.002090000081807375,1.4470000267028809
6449.659717498025,1133202.0,-0.003590000094845891,0.003809999907389283,-9.000000136438757e-05,1.4129999876022339
6449.660717269949,1133203.0,-0.0037700000684708357,-0.002360000042244792,-0.0021299999207258224,1.430999994277954
6449.661717041871,1133204.0,-0.004129999782890081,-0.004900000058114529,-0.0031799999997019768,1.3079999685287476
6449.662716813794,1133205.0,-0.004129999782890081,-0.004860000219196081,0.0030900000128895044,1.2999999523162842
6449.663716585716,1133206.0,-0.004490000195801258,0.0029100000392645597,-0.006310000084340572,1.2910000085830688
6449.664716357639,1133207.0,-0.005659999791532755,-0.003220000071451068,-0.0016299999551847577,1.2799999713897705
6449.6657161295625,1133208.0,-0.00773000018671155,0.0019099999917671084,-0.0021800000686198473,1.4769999980926514
6449.666715901485,1133209.0,-0.008940000087022781,-0.0016299999551847577,0.0012700000079348683,1.4160000085830688
6449.667715673408,1133210.0,-0.009970000013709068,-0.0021800000686198473,-0.005450000055134296,1.3949999809265137
6449.66871544533,1133211.0,-0.011189999990165234,0.00018000000272877514,0.004360000137239695,1.409999966621399
6449.669715217253,1133212.0,-0.011500000022351742,0.0022700000554323196,-0.006579999811947346,1.4500000476837158
6449.670714989176,1133213.0,-0.01217000000178814,-0.003949999809265137,0.002589999930933118,1.3919999599456787
6449.671714761099,1133214.0,-0.014999999664723873,0.003449999960139394,0.0025400000158697367,1.3700000047683716
6449.6727145330215,1133215.0,-0.02102000080049038,-0.00044999999227002263,-0.005539999809116125,1.2269999980926514
6449.673714304944,1133216.0,-0.02857000008225441,-0.006810000166296959,-0.0029100000392645597,1.440000057220459
6449.674714076867,1133217.0,-0.03432000055909157,0.00018000000272877514,0.000539999979082495,1.3760000467300415
6449.675713848789,1133218.0,-0.03720000013709068,0.003590000094845891,0.0010000000474974513,1.3240000009536743
6449.676713620713,1133219.0,-0.03971000015735626,-0.00418000016361475,0.0016799999866634607,1.2280000448226929
6449.677713392635,1133220.0,-0.03756000101566315,-0.0010900000343099236,0.000910000002477318,1.4040000438690186
6449.678713164558,1133221.0,-0.02807999961078167,0.002360000042244792,-0.0017300000181421638,1.3289999961853027
6449.67971293648,1133222.0,-0.014550000429153442,-0.004360000137239695,-0.0019099999917671084,1.2079999446868896
6449.680712708403,1133223.0,-0.0011699999449774623,0.0036299999337643385,0.000539999979082495,1.1929999589920044
6449.6817124803265,1133224.0,0.00930000003427267,-0.0007300000288523734,-0.005539999809116125,1.340000033378601
6449.682712252249,1133225.0,0.015629999339580536,-0.003000000026077032,0.0008200000156648457,1.3370000123977661
6449.683712024172,1133226.0,0.01800999976694584,0.0010900000343099236,0.0016299999551847577,1.1749999523162842
6449.684711796094,1133227.0,0.017829999327659607,-0.007809999864548445,0.0024999999441206455,1.312000036239624
6449.685711568017,1133228.0,0.016529999673366547,-0.006490000057965517,0.003000000026077032,1.1629999876022339
6449.68671133994,1133229.0,0.014910000376403332,0.0021800000686198473,-0.003590000094845891,1.218000054359436
6449.687711111863,1133230.0,0.012489999644458294,0.003590000094845891,-0.0063599999994039536,1.2699999809265137
6449.6887108837855,1133231.0,0.010780000127851963,0.001500000013038516,-0.005270000081509352,1.343000054359436
6449.689710655708,1133232.0,0.008980000391602516,0.0,-0.004900000058114529,1.2760000228881836
6449.690710427631,1133233.0,0.006649999879300594,-0.004540000110864639,-0.0030900000128895044,1.1540000438690186
6449.691710199553,1133234.0,0.0052999998442828655,-0.0025400000158697367,0.0013599999947473407,1.2760000228881836
6449.692709971477,1133235.0,0.006020000204443932,-0.00267999991774559,-0.003809999907389283,1.2410000562667847
6449.693709743399,1133236.0,0.00925000011920929,0.002360000042244792,0.001820000004954636,1.2569999694824219
6449.694709515322,1133237.0,0.013659999705851078,0.003539999946951866,-0.0030400000978261232,1.1230000257492065
6449.695709287244,1133238.0,0.017069999128580093,-0.006810000166296959,-0.0063599999994039536,1.2569999694824219
6449.696709059167,1133239.0,0.022280000150203705,-0.0030900000128895044,-0.005630000028759241,1.2389999628067017
6449.6977088310905,1133240.0,0.02655000053346157,-0.003449999960139394,0.002409999957308173,1.24399995803833
6449.698708603013,1133241.0,0.024210000410676003,-0.00535999983549118,-0.0036800000816583633,1.2910000085830688
6449.699708374936,1133242.0,0.015720000490546227,0.0035000001080334187,0.001449999981559813,1.281999945640564
6449.700708146858,1133243.0,0.008449999615550041,-0.0006799999973736703,-0.0003600000054575503,1.2050000429153442
6449.701707918781,1133244.0,0.004490000195801258,-0.005270000081509352,-0.0021800000686198473,1.0679999589920044
6449.702707690704,1133245.0,0.0023399998899549246,0.002589999930933118,0.0019099999917671084,1.2359999418258667
6449.703707462627,1133246.0,0.0018400000408291817,-0.004269999917596579,0.0010900000343099236,1.2510000467300415
6449.7047072345495,1133247.0,3.9999998989515007e-05,-0.002319999970495701,-0.006899999920278788,1.180999994277954
6449.705707006472,1133248.0,-0.0023399998899549246,0.0021800000686198473,0.0003600000054575503,1.1490000486373901
6449.706706778395,1133249.0,-3.9999998989515007e-05,-0.0030900000128895044,0.004809999838471413,1.1579999923706055
6449.707706550318,1133250.0,0.004310000222176313,-0.004360000137239695,0.003809999907389283,1.0410000085830688
6449.708706322241,1133251.0,0.005619999952614307,0.001820000004954636,0.0010000000474974513,1.2269999980926514
6449.709706094163,1133252.0,0.005570000037550926,-0.0024500000290572643,-0.00418000016361475,1.190000057220459
6449.710705866086,1133253.0,0.004490000195801258,-0.006990000139921904,0.0006799999973736703,1.093000054359436
6449.711705638008,1133254.0,0.0030499999411404133,0.003809999907389283,0.002360000042244792,1.0130000114440918
6449.712705409931,1133255.0,0.003229999914765358,-0.004809999838471413,-0.0010900000343099236,1.1779999732971191
6449.7137051818545,1133256.0,0.005570000037550926,-0.0009500000160187483,-0.001769999973475933,1.128999948501587
6449.714704953777,1133257.0,0.00795000046491623,0.005630000028759241,0.001449999981559813,1.031000018119812
6449.7157047257,1133258.0,0.010780000127851963,-0.00535999983549118,-0.004449999891221523,1.0210000276565552
6449.716704497622,1133259.0,0.010239999741315842,-0.006810000166296959,0.00041000000783242285,0.9549999833106995
6449.717704269545,1133260.0,0.008179999887943268,0.0030900000128895044,-0.007079999893903732,0.9610000252723694
6449.718704041468,1133261.0,0.0035000001080334187,-0.005900000222027302,-0.0031799999997019768,1.121999979019165
6449.719703813391,1133262.0,-0.0026100000832229853,0.0016299999551847577,-0.003449999960139394,1.0859999656677246
6449.7207035853135,1133263.0,-0.008089999668300152,0.001500000013038516,0.00418000016361475,1.0479999780654907
6449.721703357236,1133264.0,-0.01257999986410141,-0.0030900000128895044,-0.0063599999994039536,1.0119999647140503
6449.722703129159,1133265.0,-0.0142000000923872,-0.0010900000343099236,0.0,0.9670000076293945
6449.723702901082,1133266.0,-0.014910000376403332,0.000539999979082495,0.0012700000079348683,0.9580000042915344
6449.724702673005,1133267.0,-0.014329999685287476,-0.0059899999760091305,-0.0031799999997019768,0.9800000190734863
6449.725702444927,1133268.0,-0.011500000022351742,-0.0025400000158697367,-0.001230000052601099,1.1169999837875366
6449.72670221685,1133269.0,-0.00646999990567565,-0.00018000000272877514,0.003809999907389283,0.921999990940094
6449.727701988772,1133270.0,-0.00018000000272877514,-0.003949999809265137,-0.008449999615550041,0.9089999794960022
6449.728701760695,1133271.0,0.007139999885112047,0.006180000025779009,-0.000539999979082495,0.9020000100135803
6449.7297015326185,1133272.0,0.01384000014513731,0.0031799999997019768,-0.006180000025779009,1.0829999446868896
6449.730701304541,1133273.0,0.017249999567866325,-0.003809999907389283,-0.004809999838471413,1.0470000505447388
6449.731701076464,1133274.0,0.017650000751018524,-0.00018000000272877514,-0.003000000026077032,0.8870000243186951
6449.732700848386,1133275.0,0.016620000824332237,0.0021800000686198473,0.0006799999973736703,1.0190000534057617
6449.733700620309,1133276.0,0.01671000011265278,-0.003449999960139394,-0.005270000081509352,1.0069999694824219
6449.734700392232,1133277.0,0.017249999567866325,-0.001820000004954636,-0.0006399999838322401,1.003999948501587
6449.735700164155,1133278.0,0.017829999327659607,-0.0022700000554323196,0.0013599999947473407,0.9980000257492065
6449.7366999360775,1133279.0,0.016170000657439232,-0.0033599999733269215,-0.003000000026077032,0.9919999837875366
6449.737699708,1133280.0,0.015629999339580536,0.0010900000343099236,-0.000910000002477318,0.8560000061988831
6449.738699479923,1133281.0,0.014910000376403332,-0.0007300000288523734,0.0006399999838322401,0.9829999804496765
6449.739699251846,1133282.0,0.014820000156760216,-0.002360000042244792,-0.0012700000079348683,0.972000002861023
6449.740699023769,1133283.0,0.012129999697208405,-0.001820000004954636,0.0035000001080334187,0.9869999885559082
6449.741698795691,1133284.0,0.011140000075101852,-0.004540000110864639,0.001820000004954636,0.8389999866485596
6449.742698567614,1133285.0,0.011230000294744968,-0.004900000058114529,-0.00418000016361475,0.972000002861023
6449.743698339536,1133286.0,0.011140000075101852,0.0020000000949949026,-0.006630000192672014,0.8240000009536743
6449.744698111459,1133287.0,0.010689999908208847,-0.004809999838471413,0.004269999917596579,0.8240000009536743
6449.7456978833825,1133288.0,0.010739999823272228,-0.0022700000554323196,-0.004089999943971634,0.8119999766349792
6449.746697655305,1133289.0,0.010239999741315842,0.003000000026077032,-0.003809999907389283,0.8159999847412109
6449.747697427228,1133290.0,0.008849999867379665,-0.005450000055134296,-0.003809999907389283,0.9829999804496765
6449.74869719915,1133291.0,0.008179999887943268,-0.004900000058114529,-0.004999999888241291,0.921999990940094
6449.749696971073,1133292.0,0.00795000046491623,0.0031799999997019768,-0.003719999920576811,0.777999997138977
6449.750696742996,1133293.0,0.006649999879300594,-0.004449999891221523,-0.002360000042244792,0.7720000147819519
6449.751696514919,1133294.0,0.0037700000684708357,0.0030900000128895044,0.000910000002477318,0.7570000290870667
6449.7526962868415,1133295.0,-0.0012100000167265534,-0.000910000002477318,0.0,0.765999972820282
6449.753696058764,1133296.0,-0.00800000037997961,0.002360000042244792,-0.007449999917298555,0.9610000252723694
6449.754695830687,1133297.0,-0.013120000250637531,-0.003809999907389283,-0.004540000110864639,0.8970000147819519
6449.75569560261,1133298.0,-0.015990000218153,-0.006180000025779009,-0.0036299999337643385,0.8059999942779541
6449.756695374533,1133299.0,-0.017430000007152557,-0.004900000058114529,-0.0062699997797608376,0.7900000214576721
6449.757695146455,1133300.0,-0.017160000279545784,0.0021299999207258224,0.003269999986514449,0.7580000162124634
6449.758694918378,1133301.0,-0.015449999831616879,-0.004449999891221523,-0.0020000000949949026,0.7289999723434448
6449.7596946903,1133302.0,-0.012040000408887863,0.004540000110864639,-0.00418000016361475,0.8849999904632568
6449.760694462223,1133303.0,-0.009519999846816063,-0.000910000002477318,-0.00018000000272877514,0.7289999723434448
6449.7616942341465,1133304.0,-0.007139999885112047,-0.0044999998062849045,0.001820000004954636,0.9089999794960022
6449.762694006069,1133305.0,-0.00800000037997961,0.004360000137239695,-0.004000000189989805,0.902999997138977
6449.763693777992,1133306.0,-0.012040000408887863,-0.002630000002682209,0.0025400000158697367,0.921999990940094
6449.764693549914,1133307.0,-0.015990000218153,-0.004000000189989805,0.0016299999551847577,0.7829999923706055
6449.765693321837,1133308.0,-0.015769999474287033,-0.001449999981559813,0.0006399999838322401,0.8610000014305115
6449.76669309376,1133309.0,-0.011500000022351742,0.0025400000158697367,-0.0019499999471008778,0.7139999866485596
6449.767692865683,1133310.0,-0.005929999984800816,0.000910000002477318,0.004900000058114529,0.890999972820282
6449.768692637605,1133311.0,-0.0011699999449774623,0.0029100000392645597,-0.006539999973028898,0.8790000081062317
6449.769692409528,1133312.0,0.004670000169426203,-0.005900000222027302,-0.0024999999441206455,0.8360000252723694
6449.770692181451,1133313.0,0.00925000011920929,-0.004449999891221523,-0.004900000058114529,0.6740000247955322
6449.771691953374,1133314.0,0.013659999705851078,-0.0019099999917671084,-0.003449999960139394,0.8849999904632568
6449.772691725297,1133315.0,0.016580000519752502,0.000910000002477318,0.001180000021122396,0.7509999871253967
6449.773691497219,1133316.0,0.019950000569224358,0.0010900000343099236,0.005270000081509352,0.8730000257492065
6449.774691269142,1133317.0,0.020390000194311142,0.0010900000343099236,-0.00989999994635582,0.8450000286102295
6449.775691041064,1133318.0,0.01671000011265278,-0.004769999999552965,4.999999873689376e-05,0.8209999799728394
6449.776690812987,1133319.0,0.007910000160336494,-0.007720000110566616,-0.0036299999337643385,0.6669999957084656
6449.7776905849105,1133320.0,-0.0053900000639259815,0.0010000000474974513,-0.003269999986514449,0.640999972820282
6449.778690356833,1133321.0,-0.020659999921917915,0.0015899999998509884,-0.00267999991774559,0.8360000252723694
6449.779690128756,1133322.0,-0.038270000368356705,0.004269999917596579,0.000910000002477318,0.656000018119812
6449.780689900678,1133323.0,-0.0568699985742569,-0.0002699999895412475,-0.0019099999917671084,0.6710000038146973
6449.781689672601,1133324.0,-0.06954000145196915,-0.004769999999552965,-0.002360000042244792,0.652999997138977
6449.782689444524,1133325.0,-0.07969000190496445,-0.005270000081509352,-0.004360000137239695,0.7289999723434448
6449.783689216447,1133326.0,-0.08410000056028366,0.0007699999841861427,-0.002859999891370535,0.6159999966621399
6449.784688988369,1133327.0,-0.08194000273942947,-0.0017300000181421638,-0.0015399999683722854,0.7419999837875366
6449.785688760292,1133328.0,-0.06932000070810318,0.0017300000181421638,0.0020000000949949026,0.7950000166893005
6449.786688532215,1133329.0,-0.05138999968767166,-0.0024500000290572643,-0.006180000025779009,0.8119999766349792
6449.787688304138,1133330.0,-0.031539998948574066,-0.0021299999207258224,0.0008200000156648457,0.7839999794960022
6449.788688076061,1133331.0,-0.009840000420808792,-0.004629999864846468,-0.005270000081509352,0.5799999833106995
6449.789687847983,1133332.0,0.010420000180602074,-0.0010900000343099236,-0.002630000002682209,0.7509999871253967
6449.790687619906,1133333.0,0.029109999537467957,0.0012700000079348683,-0.005770000163465738,0.6840000152587891
6449.791687391828,1133334.0,0.04837999865412712,-0.002589999930933118,0.0007699999841861427,0.6840000152587891
6449.792687163752,1133335.0,0.0666700005531311,-0.008310000412166119,-0.0010900000343099236,0.6899999976158142
6449.7936869356745,1133336.0,0.07672999799251556,0.0027199999894946814,-0.004410000052303076,0.6990000009536743
6449.794686707597,1133337.0,0.07780999690294266,-0.005270000081509352,-0.004900000058114529,0.6840000152587891
6449.79568647952,1133338.0,0.07462000101804733,-0.0025400000158697367,-0.0031799999997019768,0.6679999828338623
6449.796686251442,1133339.0,0.06936000287532806,0.006810000166296959,-0.0027199999894946814,0.5460000038146973
6449.797686023365,1133340.0,0.0637499988079071,-0.000539999979082495,0.0033599999733269215,0.5429999828338623
6449.798685795288,1133341.0,0.05610999837517738,-0.005489999894052744,-0.0006399999838322401,0.6650000214576721
6449.799685567211,1133342.0,0.04473999887704849,0.0016299999551847577,-0.002360000042244792,0.6499999761581421
6449.800685339133,1133343.0,0.03468000143766403,-0.006539999973028898,-0.0062699997797608376,0.5230000019073486
6449.801685111056,1133344.0,0.027130000293254852,-0.004809999838471413,-0.006539999973028898,0.6729999780654907
6449.802684882979,1133345.0,0.0218299999833107,0.003809999907389283,-0.004999999888241291,0.4970000088214874
6449.803684654902,1133346.0,0.019449999555945396,-0.003269999986514449,-0.003719999920576811,0.4909999966621399
6449.804684426825,1133347.0,0.017069999128580093,-0.00041000000783242285,0.002950000111013651,0.5099999904632568
6449.805684198747,1133348.0,0.012849999591708183,0.001449999981559813,-0.005630000028759241,0.6100000143051147
6449.80668397067,1133349.0,0.007189999800175428,-0.003000000026077032,-0.0033599999733269215,0.48500001430511475
6449.807683742592,1133350.0,0.0018400000408291817,-0.0018599999602884054,-0.002360000042244792,0.6320000290870667
6449.808683514516,1133351.0,-0.00018000000272877514,-0.001180000021122396,-0.0008200000156648457,0.48399999737739563
6449.8096832864385,1133352.0,0.0014799999771639705,-0.0031799999997019768,0.0010000000474974513,0.6039999723434448
6449.810683058361,1133353.0,0.008089999668300152,0.004540000110864639,0.0029100000392645597,0.597000002861023
6449.811682830284,1133354.0,0.01384000014513731,0.004360000137239695,0.00044999999227002263,0.6299999952316284
6449.812682602206,1133355.0,0.015320000238716602,-0.003449999960139394,-0.0016299999551847577,0.45500001311302185
6449.813682374129,1133356.0,0.01221999991685152,-0.0010000000474974513,-0.004360000137239695,0.5830000042915344
6449.814682146052,1133357.0,0.007189999800175428,-0.006539999973028898,-0.0059899999760091305,0.453000009059906
6449.815681917975,1133358.0,0.0014799999771639705,0.0007300000288523734,-0.005630000028759241,0.43299999833106995
6449.816681689897,1133359.0,-0.0027000000700354576,-0.004000000189989805,0.000539999979082495,0.44600000977516174
6449.81768146182,1133360.0,-0.0065100002102553844,-0.0020000000949949026,-0.004449999891221523,0.4180000126361847
6449.818681233743,1133361.0,-0.01051000040024519,0.000910000002477318,-0.004310000222176313,0.5799999833106995
6449.819681005666,1133362.0,-0.014820000156760216,0.0033199999015778303,-0.0028200000524520874,0.5370000004768372
6449.820680777589,1133363.0,-0.017249999567866325,0.00571999978274107,0.003809999907389283,0.5680000185966492
6449.821680549511,1133364.0,-0.017069999128580093,-0.004809999838471413,-0.007360000163316727,0.5400000214576721
6449.822680321434,1133365.0,-0.010739999823272228,-0.0029100000392645597,-0.005270000081509352,0.531000018119812
6449.823680093356,1133366.0,-0.0009899999713525176,-0.008449999615550041,-0.007360000163316727,0.46399998664855957
6449.82467986528,1133367.0,0.005659999791532755,-0.0037700000684708357,-0.0015399999683722854,0.5339999794960022
6449.8256796372025,1133368.0,0.007230000104755163,0.005539999809116125,-0.0010000000474974513,0.3970000147819519
6449.826679409125,1133369.0,0.006649999879300594,0.001820000004954636,0.0024500000290572643,0.4959999918937683
6449.827679181048,1133370.0,0.005929999984800816,-0.0063599999994039536,-0.0021800000686198473,0.49399998784065247
6449.82867895297,1133371.0,0.005799999926239252,-0.002950000111013651,0.0028200000524520874,0.5080000162124634
6449.829678724893,1133372.0,0.007369999773800373,-0.00494999997317791,-0.004629999864846468,0.3540000021457672
6449.830678496816,1133373.0,0.00930000003427267,-0.0006799999973736703,-0.0030900000128895044,0.5619999766349792
6449.831678268739,1133374.0,0.010689999908208847,0.0025400000158697367,-0.005900000222027302,0.48500001430511475
6449.832678040661,1133375.0,0.012439999729394913,0.0028200000524520874,0.000910000002477318,0.5
6449.833677812584,1133376.0,0.014059999957680702,-0.0012700000079348683,-0.004809999838471413,0.5070000290870667
6449.834677584507,1133377.0,0.015270000323653221,-0.0030400000978261232,0.004540000110864639,0.5400000214576721
6449.83567735643,1133378.0,0.014109999872744083,0.0012700000079348683,0.003539999946951866,0.37400001287460327
6449.836677128353,1133379.0,0.010780000127851963,0.0019099999917671084,0.00018000000272877514,0.39100000262260437
6449.837676900275,1133380.0,0.006649999879300594,-0.004000000189989805,-0.00041000000783242285,0.44600000977516174
6449.838676672198,1133381.0,0.0017099999822676182,0.0010900000343099236,-0.001449999981559813,0.43799999356269836
6449.83967644412,1133382.0,-0.003949999809265137,-0.003220000071451068,-0.005270000081509352,0.43299999833106995
6449.840676216044,1133383.0,-0.009700000286102295,-0.004629999864846468,0.0016299999551847577,0.48500001430511475
6449.8416759879665,1133384.0,-0.014109999872744083,-0.0016299999551847577,-0.0002699999895412475,0.44600000977516174
6449.842675759889,1133385.0,-0.017430000007152557,0.002409999957308173,0.000910000002477318,0.3109999895095825
6449.843675531812,1133386.0,-0.016529999673366547,0.0017300000181421638,0.002589999930933118,0.42100000381469727
6449.844675303734,1133387.0,-0.0101500004529953,0.001820000004954636,-0.0027199999894946814,0.4359999895095825
6449.845675075658,1133388.0,-0.0037700000684708357,-0.003000000026077032,-0.004540000110864639,0.43299999833106995
6449.84667484758,1133389.0,0.0006300000241026282,-0.003590000094845891,0.003000000026077032,0.4699999988079071
6449.847674619503,1133390.0,0.0028800000436604023,-0.005179999861866236,0.00418000016361475,0.38100001215934753
6449.848674391425,1133391.0,0.0020699999295175076,0.0002699999895412475,0.0025400000158697367,0.2619999945163727
6449.849674163348,1133392.0,0.0006300000241026282,0.002090000081807375,-0.0031799999997019768,0.3880000114440918
6449.850673935271,1133393.0,-0.0007200000109151006,-0.00418000016361475,0.004269999917596579,0.4000000059604645
6449.851673707194,1133394.0,-0.0023399998899549246,-0.0012700000079348683,-0.004000000189989805,0.38499999046325684
6449.852673479117,1133395.0,-0.002469999948516488,0.0,0.0009500000160187483,0.4269999861717224
6449.853673251039,1133396.0,-0.004490000195801258,-0.008449999615550041,-9.000000136438757e-05,0.3630000054836273
6449.854673022962,1133397.0,-0.00872000027447939,0.004540000110864639,0.0024500000290572643,0.24400000274181366
6449.855672794884,1133398.0,-0.015449999831616879,0.000910000002477318,-0.0012700000079348683,0.35199999809265137
6449.856672566808,1133399.0,-0.02092999964952469,-0.0052200001664459705,0.000590000010561198,0.335999995470047
6449.8576723387305,1133400.0,-0.025340000167489052,-0.000539999979082495,-0.006719999946653843,0.3310000002384186
6449.858672110653,1133401.0,-0.026410000398755074,0.004900000058114529,0.0019099999917671084,0.3970000147819519
6449.859671882576,1133402.0,-0.02191999927163124,-0.006719999946653843,0.004449999891221523,0.31700000166893005
6449.860671654498,1133403.0,-0.015589999966323376,0.0027199999894946814,0.001820000004954636,0.20000000298023224
6449.861671426422,1133404.0,-0.011680000461637974,-0.00535999983549118,-0.00418000016361475,0.31299999356269836
6449.862671198344,1133405.0,-0.0088900001719594,-0.005090000107884407,0.00418000016361475,0.31700000166893005
6449.863670970267,1133406.0,-0.006560000125318766,0.006719999946653843,-0.0033599999733269215,0.3230000138282776
6449.864670742189,1133407.0,-0.0023399998899549246,0.0030900000128895044,0.003949999809265137,0.27799999713897705
6449.865670514112,1133408.0,0.004310000222176313,-0.0027199999894946814,0.0013200000394135714,0.3070000112056732
6449.866670286035,1133409.0,0.012489999644458294,-0.003809999907389283,0.0020000000949949026,0.16500000655651093
6449.867670057958,1133410.0,0.01779000088572502,-0.003809999907389283,0.00018000000272877514,0.26899999380111694
6449.868669829881,1133411.0,0.020889999344944954,0.004809999838471413,0.005450000055134296,0.27900001406669617
6449.869669601803,1133412.0,0.022600000724196434,-0.0030900000128895044,-0.0010000000474974513,0.2750000059604645
6449.870669373726,1133413.0,0.023900000378489494,0.0010900000343099236,0.0013599999947473407,0.28700000047683716
6449.871669145648,1133414.0,0.023719999939203262,0.0027699999045580626,0.0019099999917671084,0.25
6449.872668917572,1133415.0,0.020889999344944954,-0.004540000110864639,0.0012700000079348683,0.11299999803304672
6449.8736686894945,1133416.0,0.016529999673366547,0.004540000110864639,-0.0062699997797608376,0.11299999803304672
6449.874668461417,1133417.0,0.012040000408887863,-0.0025400000158697367,-0.005590000189840794,0.10700000077486038
6449.87566823334,1133418.0,0.007189999800175428,-0.004449999891221523,0.0007300000288523734,0.09799999743700027
6449.876668005262,1133419.0,0.0035500000230968,-0.005810000002384186,0.000910000002477318,0.26899999380111694
6449.877667777186,1133420.0,0.0026100000832229853,-0.0018599999602884054,0.000910000002477318,0.13600000739097595
6449.878667549108,1133421.0,0.005030000116676092,0.003809999907389283,0.0010000000474974513,0.22599999606609344
6449.879667321031,1133422.0,0.005210000090301037,-9.000000136438757e-05,0.0016299999551847577,0.21699999272823334
6449.880667092953,1133423.0,0.003229999914765358,-0.007040000054985285,-0.004449999891221523,0.20100000500679016
6449.881666864876,1133424.0,0.0028299998957663774,0.003449999960139394,-0.001820000004954636,0.1770000010728836
6449.882666636799,1133425.0,0.005080000031739473,-0.0059899999760091305,0.0010000000474974513,0.20100000500679016
6449.883666408722,1133426.0,0.006060000043362379,-0.0016299999551847577,0.0027699999045580626,0.0729999989271164
6449.884666180645,1133427.0,0.007550000213086605,0.003809999907389283,-0.0022700000554323196,0.25600001215934753
6449.885665952567,1133428.0,0.008670000359416008,-0.002360000042244792,0.000910000002477318,0.2370000034570694
6449.88666572449,1133429.0,0.008980000391602516,-0.0007300000288523734,-0.001180000021122396,0.23800000548362732
6449.887665496412,1133430.0,0.009340000338852406,0.0020000000949949026,0.0024500000290572643,0.18199999630451202
6449.888665268336,1133431.0,0.009519999846816063,-0.005900000222027302,0.00041000000783242285,0.17100000381469727
6449.8896650402585,1133432.0,0.008449999615550041,-0.000910000002477318,-0.006579999811947346,0.054999999701976776
6449.890664812181,1133433.0,0.007459999993443489,0.0016799999866634607,-0.005090000107884407,0.18299999833106995
6449.891664584104,1133434.0,0.00773000018671155,-0.005810000002384186,-0.007079999893903732,0.16500000655651093
6449.892664356026,1133435.0,0.008630000054836273,0.0027199999894946814,0.0012700000079348683,0.16500000655651093
6449.89366412795,1133436.0,0.007230000104755163,0.0017300000181421638,-0.0063599999994039536,0.20800000429153442
6449.894663899872,1133437.0,0.004540000110864639,0.0036299999337643385,-0.005539999809116125,0.024000000208616257
6449.895663671795,1133438.0,0.00215999991632998,-0.0003600000054575503,-0.0022299999836832285,0.04399999976158142
6449.896663443717,1133439.0,0.0017999999690800905,-0.002950000111013651,0.003220000071451068,0.03099999949336052
6449.89766321564,1133440.0,0.0014400000218302011,0.0028200000524520874,-0.0014100000262260437,0.14300000667572021
6449.898662987563,1133441.0,0.000539999979082495,-0.001180000021122396,-0.0018599999602884054,0.12099999934434891
6449.899662759486,1133442.0,9.000000136438757e-05,-0.003449999960139394,-0.0022299999836832285,0.1889999955892563
6449.900662531409,1133443.0,0.0002699999895412475,0.0016299999551847577,-0.003000000026077032,0.10100000351667404
6449.901662303331,1133444.0,0.002199999988079071,-0.002630000002682209,-0.003449999960139394,-0.03400000184774399
6449.902662075254,1133445.0,0.0031900000758469105,-0.003809999907389283,0.005309999920427799,0.10700000077486038
6449.903661847176,1133446.0,0.00215999991632998,0.0036299999337643385,-0.0076299998909235,0.0949999988079071
6449.9046616191,1133447.0,0.00044999999227002263,-0.001180000021122396,-0.001449999981559813,0.07900000363588333
6449.9056613910225,1133448.0,-0.001930000027641654,-0.00418000016361475,-0.004269999917596579,0.10400000214576721
6449.906661162945,1133449.0,-0.003860000055283308,-0.0019099999917671084,-0.008539999835193157,0.07199999690055847
6449.907660934868,1133450.0,-0.005570000037550926,-0.0010400000028312206,-0.00041000000783242285,-0.054999999701976776
6449.90866070679,1133451.0,-0.008179999887943268,0.003809999907389283,0.002859999891370535,-0.04899999871850014
6449.909660478714,1133452.0,-0.01131999958306551,-0.002630000002682209,-0.0027199999894946814,-0.061000000685453415
6449.910660250636,1133453.0,-0.014910000376403332,-0.008170000277459621,-0.00018000000272877514,0.057999998331069946
6449.911660022559,1133454.0,-0.01841999962925911,-0.005900000222027302,-0.0036800000816583633,0.012000000104308128
6449.912659794481,1133455.0,-0.019500000402331352,0.0010900000343099236,-0.004769999999552965,0.0430000014603138
6449.913659566404,1133456.0,-0.01841999962925911,0.0030900000128895044,-0.006899999920278788,-0.08900000154972076
6449.914659338327,1133457.0,-0.017340000718832016,-0.0010000000474974513,0.0024500000290572643,-0.0820000022649765
6449.91565911025,1133458.0,-0.0175199992954731,-0.003809999907389283,-0.00418000016361475,-0.09000000357627869
6449.916658882173,1133459.0,-0.021159999072551727,0.001820000004954636,-0.003449999960139394,-0.10199999809265137
6449.917658654095,1133460.0,-0.024979999288916588,-0.003809999907389283,-0.004000000189989805,0.0729999989271164
6449.918658426018,1133461.0,-0.029109999537467957,-0.00418000016361475,-0.0033599999733269215,-0.10199999809265137
6449.91965819794,1133462.0,-0.03215999901294708,0.001820000004954636,-0.0034099998883903027,-0.017999999225139618
6449.920657969864,1133463.0,-0.03206999972462654,-0.004540000110864639,0.001769999973475933,-0.0729999989271164
6449.9216577417865,1133464.0,-0.025340000167489052,-0.002360000042244792,0.0059899999760091305,-0.12399999797344208
6449.922657513709,1133465.0,-0.01181000005453825,0.001180000021122396,-0.0014100000262260437,-0.15299999713897705
6449.923657285632,1133466.0,0.002199999988079071,0.005810000002384186,-0.004310000222176313,0.017999999225139618
6449.924657057554,1133467.0,0.011719999834895134,-0.005630000028759241,-0.005539999809116125,-0.14000000059604645
6449.925656829478,1133468.0,0.020349999889731407,-0.004040000028908253,-0.000539999979082495,-0.061000000685453415
6449.9266566014,1133469.0,0.02928999997675419,-0.004449999891221523,-0.004999999888241291,-0.15299999713897705
6449.927656373323,1133470.0,0.03499000146985054,0.0027199999894946814,0.0010900000343099236,-0.16200000047683716
6449.928656145245,1133471.0,0.035259999334812164,-0.000910000002477318,-0.00571999978274107,-0.1720000058412552
6449.929655917168,1133472.0,0.03198999911546707,0.0012700000079348683,-0.0010000000474974513,0.014999999664723873
6449.9306556890915,1133473.0,0.028710000216960907,0.002360000042244792,-0.000859999970998615,-0.1720000058412552
6449.931655461014,1133474.0,0.026410000398755074,0.0059899999760091305,0.0020000000949949026,-0.03099999949336052
6449.932655232937,1133475.0,0.024709999561309814,-0.005630000028759241,-0.004679999779909849,-0.0430000014603138
6449.933655004859,1133476.0,0.021970000118017197,-0.000539999979082495,-0.005590000189840794,-0.052000001072883606
6449.934654776782,1133477.0,0.020479999482631683,0.0025400000158697367,0.0027699999045580626,-0.06700000166893005
6449.935654548704,1133478.0,0.01607999950647354,-0.004900000058114529,0.005090000107884407,-0.08500000089406967
6449.936654320628,1133479.0,0.0129399998113513,-0.00418000016361475,0.0003600000054575503,-0.23800000548362732
6449.9376540925505,1133480.0,0.01257999986410141,-0.004000000189989805,0.0030900000128895044,-0.10400000214576721
6449.938653864473,1133481.0,0.013120000250637531,-0.0021800000686198473,0.0021299999207258224,-0.1979999989271164
6449.939653636396,1133482.0,0.01508999988436699,0.0029100000392645597,-0.00044999999227002263,-0.21799999475479126
6449.940653408318,1133483.0,0.017430000007152557,-0.00418000016361475,-9.000000136438757e-05,-0.13300000131130219
6449.941653180242,1133484.0,0.018869999796152115,0.0009500000160187483,-0.005270000081509352,-0.23800000548362732
6449.942652952164,1133485.0,0.019589999690651894,0.0030900000128895044,-0.003000000026077032,-0.10400000214576721
6449.943652724087,1133486.0,0.018869999796152115,0.005900000222027302,0.0021800000686198473,-0.16300000250339508
6449.944652496009,1133487.0,0.018869999796152115,-0.003590000094845891,-0.004000000189989805,-0.16500000655651093
6449.945652267932,1133488.0,0.016580000519752502,-0.003719999920576811,-0.0014100000262260437,-0.16899999976158142
6449.9466520398555,1133489.0,0.011590000241994858,-0.004809999838471413,-0.0008200000156648457,-0.2549999952316284
6449.947651811778,1133490.0,0.008179999887943268,-0.004900000058114529,-0.0030900000128895044,-0.10100000351667404
6449.948651583701,1133491.0,0.005710000172257423,0.0013599999947473407,-0.006990000139921904,-0.16300000250339508
6449.949651355623,1133492.0,0.004040000028908253,-0.0006799999973736703,0.005270000081509352,-0.12099999934434891
6449.950651127546,1133493.0,0.0037700000684708357,-0.002589999930933118,-0.000910000002477318,-0.09200000017881393
6449.951650899468,1133494.0,0.003280000062659383,0.004410000052303076,-0.004410000052303076,-0.09799999743700027
6449.952650671392,1133495.0,0.002959999954327941,0.00418000016361475,0.0,-0.3199999928474426
6449.9536504433145,1133496.0,0.002959999954327941,-0.005630000028759241,0.0030900000128895044,-0.13699999451637268
6449.954650215237,1133497.0,0.003590000094845891,-0.0022700000554323196,0.004360000137239695,-0.29600000381469727
6449.95564998716,1133498.0,0.004129999782890081,-0.008080000057816505,-0.005179999861866236,-0.1770000010728836
6449.956649759082,1133499.0,0.005210000090301037,0.006719999946653843,0.00018000000272877514,-0.18000000715255737
6449.957649531006,1133500.0,0.00547999981790781,-0.003000000026077032,0.00418000016361475,-0.18299999833106995
6449.958649302928,1133501.0,0.005750000011175871,-0.0008200000156648457,0.004449999891221523,-0.20100000500679016
6449.959649074851,1133502.0,0.006289999932050705,-0.0025400000158697367,0.0015399999683722854,-0.21400000154972076
6449.960648846773,1133503.0,0.0064199999906122684,-0.0036800000816583633,-0.000910000002477318,-0.3449999988079071
6449.961648618696,1133504.0,0.005030000116676092,0.0007300000288523734,-0.0022299999836832285,-0.35100001096725464
6449.9626483906195,1133505.0,0.0035000001080334187,-0.001820000004954636,-0.003949999809265137,-0.3230000138282776
6449.963648162542,1133506.0,0.00107999995816499,-0.003809999907389283,0.00031999999191612005,-0.26899999380111694
6449.964647934465,1133507.0,-0.0036800000816583633,-0.004809999838471413,-0.00018000000272877514,-0.24699999392032623
6449.965647706387,1133508.0,-0.007910000160336494,0.0024500000290572643,-0.003719999920576811,-0.39100000262260437
6449.96664747831,1133509.0,-0.010739999823272228,0.0033599999733269215,-0.0052200001664459705,-0.22599999606609344
6449.967647250232,1133510.0,-0.011680000461637974,-0.004449999891221523,0.000539999979082495,-0.2409999966621399
6449.968647022156,1133511.0,-0.010060000233352184,-0.0022700000554323196,0.003909999970346689,-0.2619999945163727
6449.9696467940785,1133512.0,-0.007819999940693378,0.002360000042244792,-0.003719999920576811,-0.26100000739097595
6449.970646566001,1133513.0,-0.005350000225007534,0.0013200000394135714,-0.0033599999733269215,-0.39399999380111694
6449.971646337924,1133514.0,-0.0012100000167265534,-0.0059899999760091305,-0.005450000055134296,-0.2199999988079071
6449.972646109846,1133515.0,0.004220000002533197,-0.006899999920278788,-0.001180000021122396,-0.4059999883174896
6449.97364588177,1133516.0,0.006289999932050705,-0.0030900000128895044,-0.005900000222027302,-0.4090000092983246
6449.974645653692,1133517.0,0.0053900000639259815,0.000539999979082495,0.002360000042244792,-0.4090000092983246
6449.975645425615,1133518.0,0.0017999999690800905,-0.0010000000474974513,-0.003449999960139394,-0.3779999911785126
6449.976645197537,1133519.0,-0.004129999782890081,0.0007300000288523734,-0.0016299999551847577,-0.3140000104904175
6449.97764496946,1133520.0,-0.011590000241994858,0.0030900000128895044,0.0027199999894946814,-0.29899999499320984
6449.9786447413835,1133521.0,-0.016580000519752502,0.002630000002682209,0.0015399999683722854,-0.25
6449.979644513306,1133522.0,-0.017340000718832016,-0.0015399999683722854,0.004999999888241291,-0.257999986410141
6449.980644285229,1133523.0,-0.015180000104010105,-0.005270000081509352,-0.0022299999836832285,-0.24400000274181366
6449.981644057151,1133524.0,-0.011680000461637974,0.0006399999838322401,0.00044999999227002263,-0.3720000088214874
6449.982643829074,1133525.0,-0.00965999998152256,-0.004360000137239695,0.000539999979082495,-0.33000001311302185
6449.983643600997,1133526.0,-0.004490000195801258,-0.0011399999493733048,0.0025400000158697367,-0.4620000123977661
6449.98464337292,1133527.0,0.0002699999895412475,-0.0059899999760091305,-0.005590000189840794,-0.3479999899864197
6449.9856431448425,1133528.0,0.0053900000639259815,-0.006719999946653843,0.004860000219196081,-0.3449999988079071
6449.986642916765,1133529.0,0.009159999899566174,0.00267999991774559,-0.005900000222027302,-0.36000001430511475
6449.987642688688,1133530.0,0.012400000356137753,0.006089999806135893,0.003809999907389283,-0.3199999928474426
6449.98864246061,1133531.0,0.01671000011265278,0.003909999970346689,0.0027199999894946814,-0.4699999988079071
6449.989642232534,1133532.0,0.021379999816417694,-0.0063599999994039536,0.0012700000079348683,-0.34299999475479126
6449.990642004456,1133533.0,0.0243500005453825,0.002360000042244792,-0.005950000137090683,-0.49399998784065247
6449.991641776379,1133534.0,0.02515999972820282,0.0016299999551847577,0.0007699999841861427,-0.4819999933242798
6449.992641548301,1133535.0,0.023760000243782997,-0.005040000192821026,0.00018000000272877514,-0.5189999938011169
6449.993641320224,1133536.0,0.020309999585151672,-0.004449999891221523,-0.0021800000686198473,-0.40299999713897705
6449.9946410921475,1133537.0,0.014910000376403332,0.0007300000288523734,-4.999999873689376e-05,-0.5400000214576721
6449.99564086407,1133538.0,0.009789999574422836,9.000000136438757e-05,-0.006579999811947346,-0.3540000021457672
6449.996640635993,1133539.0,0.00646999990567565,0.0027199999894946814,0.0010400000028312206,-0.4000000059604645
6449.997640407915,1133540.0,0.006200000178068876,-0.005539999809116125,-0.003590000094845891,-0.382999986410141
6449.998640179838,1133541.0,0.009700000286102295,0.0028200000524520874,-0.003590000094845891,-0.3970000147819519
6449.99963995176,1133542.0,0.0142000000923872,0.0064500002190470695,-0.004809999838471413,-0.5139999985694885
6450.000639723684,1133543.0,0.01508999988436699,-0.0036299999337643385,-0.007269999943673611,-0.4819999933242798
6450.0016394956065,1133544.0,0.013209999538958073,-0.004679999779909849,-0.006539999973028898,-0.42100000381469727
6450.002639267529,1133545.0,0.01131999958306551,-0.004809999838471413,0.004999999888241291,-0.42899999022483826
6450.003639039452,1133546.0,0.00925000011920929,0.0021299999207258224,0.0,-0.44600000977516174
6450.004638811374,1133547.0,0.0071000000461936,-0.003809999907389283,-0.002319999970495701,-0.4490000009536743
6450.005638583298,1133548.0,0.006149999797344208,-0.005810000002384186,0.0,-0.5249999761581421
6450.00663835522,1133549.0,0.0053900000639259815,-0.000539999979082495,0.003809999907389283,-0.43799999356269836
6450.007638127143,1133550.0,0.005210000090301037,0.0025400000158697367,0.004040000028908253,-0.5950000286102295
6450.008637899065,1133551.0,0.006380000151693821,-0.0012700000079348683,-0.004040000028908253,-0.6010000109672546
6450.009637670988,1133552.0,0.009159999899566174,-0.005040000192821026,-0.0064500002190470695,-0.6150000095367432
6450.0106374429115,1133553.0,0.010379999876022339,0.004089999943971634,0.0024500000290572643,-0.6100000143051147
6450.011637214834,1133554.0,0.011409999802708626,-0.005090000107884407,0.00494999997317791,-0.4169999957084656
6450.012636986757,1133555.0,0.01095999963581562,-0.003000000026077032,0.004449999891221523,-0.574999988079071
6450.013636758679,1133556.0,0.00930000003427267,-0.00031999999191612005,0.0010900000343099236,-0.4259999990463257
6450.014636530602,1133557.0,0.007550000213086605,-0.005270000081509352,-0.0020000000949949026,-0.4440000057220459
