LSL_Time,PLUX_P1_nSeq,PLUX_P1_ECG0,PLUX_P1_EMG1,PLUX_P1_EMG2,PLUX_P1_RESPIRATION3
6448.942482544423,1131334.0,0.0007200000109151006,0.00014000000373926014,-0.0014100000262260437,-0.06550999730825424
6448.943482316638,1131335.0,-0.0023399998899549246,-0.004769999999552965,-0.000859999970998615,-0.07077000290155411
6448.944482088853,1131336.0,-0.00547999981790781,-0.0030900000128895044,0.00031999999191612005,-0.06706000119447708
6448.945481861068,1131337.0,-0.009840000420808792,0.00014000000373926014,-0.000859999970998615,-0.07108999788761139
6448.946481633284,1131338.0,-0.014329999685287476,0.00014000000373926014,-0.0006399999838322401,-0.07282999902963638
6448.947481405499,1131339.0,-0.016039999201893806,-0.003449999960139394,0.0035000001080334187,-0.07292000204324722
6448.948481177715,1131340.0,-0.016170000657439232,-0.005679999943822622,-0.0012700000079348683,-0.06999000161886215
6448.949480949929,1131341.0,-0.017160000279545784,0.0012700000079348683,-0.006039999891072512,-0.0701799988746643
6448.950480722145,1131342.0,-0.016440000385046005,0.00031999999191612005,0.00031999999191612005,-0.07378999888896942
6448.95148049436,1131343.0,-0.013389999978244305,0.002319999970495701,0.00031999999191612005,-0.0757099986076355
6448.952480266576,1131344.0,-0.009789999574422836,-0.0031300000846385956,0.002409999957308173,-0.07191000133752823
6448.953480038791,1131345.0,-0.008089999668300152,-0.001230000052601099,-0.0028200000524520874,-0.07374999672174454
6448.9544798110055,1131346.0,-0.00610999995842576,0.0015899999998509884,-0.004679999779909849,-0.07767999917268753
6448.955479583221,1131347.0,-0.0029200001154094934,0.00031999999191612005,0.00031999999191612005,-0.07558000087738037
6448.956479355436,1131348.0,0.004939999897032976,0.00031999999191612005,0.004410000052303076,-0.0741100013256073
6448.957479127652,1131349.0,0.012129999697208405,0.004220000002533197,0.00031999999191612005,-0.0765800029039383
6448.958478899867,1131350.0,0.016349999234080315,0.004679999779909849,-0.000910000002477318,-0.08025000244379044
6448.959478672083,1131351.0,0.018869999796152115,0.0052200001664459705,-9.000000136438757e-05,-0.07694999873638153
6448.960478444297,1131352.0,0.021199999377131462,0.005309999920427799,-0.0006399999838322401,-0.07840999960899353
6448.961478216513,1131353.0,0.020169999450445175,0.00031999999191612005,0.0013200000394135714,-0.08171000331640244
6448.962477988728,1131354.0,0.015359999611973763,-0.005489999894052744,-0.0011399999493733048,-0.08129999786615372
6448.9634777609435,1131355.0,0.005260000005364418,-0.004040000028908253,-0.0036800000816583633,-0.0791499987244606
6448.964477533159,1131356.0,-0.0048500001430511475,-0.006399999838322401,-0.0015399999683722854,-0.0831800028681755
6448.9654773053735,1131357.0,-0.010329999960958958,-0.003860000055283308,-0.00044999999227002263,-0.08523999899625778
6448.966477077589,1131358.0,-0.01271000038832426,0.0006399999838322401,0.0022700000554323196,-0.08156999945640564
6448.967476849804,1131359.0,-0.012670000083744526,-0.004310000222176313,-0.0045900000259280205,-0.0831800028681755
6448.96847662202,1131360.0,-0.011719999834895134,0.004089999943971634,-0.0028200000524520874,-0.08591999858617783
6448.969476394235,1131361.0,-0.00839999970048666,0.005770000163465738,0.0044999998062849045,-0.08748000115156174
6448.970476166451,1131362.0,-0.006380000151693821,0.005770000163465738,0.003949999809265137,-0.08449999988079071
6448.971475938665,1131363.0,-0.005439999978989363,0.0071299998089671135,-0.0009500000160187483,-0.08611000329256058
6448.972475710881,1131364.0,-0.004720000084489584,0.004449999891221523,0.001769999973475933,-0.0888499990105629
6448.973475483096,1131365.0,-0.004939999897032976,0.002090000081807375,-0.0011399999493733048,-0.09076999872922897
6448.9744752553115,1131366.0,-0.0047599999234080315,0.0010000000474974513,-0.0020000000949949026,-0.08867000043392181
6448.975475027527,1131367.0,-0.004360000137239695,-0.0002699999895412475,-0.0019099999917671084,-0.08780000358819962
6448.9764747997415,1131368.0,0.0003100000030826777,0.000910000002477318,-0.000539999979082495,-0.09160000085830688
6448.977474571957,1131369.0,0.008179999887943268,0.004860000219196081,0.0015899999998509884,-0.09342999756336212
6448.978474344172,1131370.0,0.016349999234080315,0.01066999975591898,-0.0036800000816583633,-0.09261000156402588
6448.979474116388,1131371.0,0.02263999916613102,0.006130000110715628,-0.002589999930933118,-0.09049999713897705
6448.980473888603,1131372.0,0.024620000272989273,0.003220000071451068,0.0002699999895412475,-0.09342999756336212
6448.981473660819,1131373.0,0.024080000817775726,-0.0033199999015778303,0.00014000000373926014,-0.09562999755144119
6448.982473433033,1131374.0,0.01940999925136566,-0.007670000195503235,-0.001180000021122396,-0.096950002014637
6448.983473205249,1131375.0,0.012310000136494637,-0.007899999618530273,-0.001500000013038516,-0.094480000436306
6448.984472977464,1131376.0,0.004579999949783087,-0.005489999894052744,-0.00203999993391335,-0.09503000229597092
6448.9854727496795,1131377.0,0.0002699999895412475,-0.005489999894052744,0.002360000042244792,-0.09827999770641327
6448.986472521895,1131378.0,-0.0033199999015778303,-0.004269999917596579,-0.002589999930933118,-0.10016000270843506
6448.9874722941095,1131379.0,-0.0033199999015778303,-0.002950000111013651,-0.000859999970998615,-0.09961000084877014
6448.988472066325,1131380.0,-0.0023399998899549246,0.004809999838471413,0.002589999930933118,-0.09860000014305115
6448.98947183854,1131381.0,-0.0008999999845400453,0.0014100000262260437,0.003949999809265137,-0.09804999828338623
6448.990471610756,1131382.0,0.0034600000362843275,0.0028200000524520874,-0.0002699999895412475,-0.1003900021314621
6448.991471382971,1131383.0,0.008179999887943268,-4.999999873689376e-05,0.006089999806135893,-0.10317999869585037
6448.992471155186,1131384.0,0.012439999729394913,-0.0022299999836832285,0.006810000166296959,-0.10171999782323837
6448.993470927401,1131385.0,0.017160000279545784,-0.0027699999045580626,0.001230000052601099,-0.10221999883651733
6448.994470699617,1131386.0,0.018869999796152115,0.0052200001664459705,-0.0030400000978261232,-0.10486999899148941
6448.995470471832,1131387.0,0.018459999933838844,0.014120000414550304,-0.001180000021122396,-0.10625000298023224
6448.9964702440475,1131388.0,0.021970000118017197,0.016850000247359276,0.0024500000290572643,-0.10382000356912613
6448.997470016263,1131389.0,0.0258799996227026,0.015939999371767044,0.004310000222176313,-0.10532999783754349
6448.998469788477,1131390.0,0.02735999971628189,0.00795000046491623,-0.0028200000524520874,-0.10871999710798264
6448.999469560693,1131391.0,0.024529999122023582,-0.003220000071451068,-0.0031300000846385956,-0.10871999710798264
6449.000469332908,1131392.0,0.023989999666810036,-0.002589999930933118,-0.0015399999683722854,-0.1068900004029274
6449.001469105124,1131393.0,0.02281999960541725,-0.0002300000051036477,0.00031999999191612005,-0.10871999710798264
6449.002468877339,1131394.0,0.01769999973475933,0.00031999999191612005,-0.00203999993391335,-0.11187999695539474
6449.003468649554,1131395.0,0.012260000221431255,-0.005900000222027302,-0.004629999864846468,-0.10898999869823456
6449.004468421769,1131396.0,0.006380000151693821,-0.007540000136941671,-0.0029100000392645597,-0.11045999825000763
6449.005468193985,1131397.0,0.0025599999353289604,-0.004040000028908253,-0.00018000000272877514,-0.1133899986743927
6449.0064679662,1131398.0,-0.0009899999713525176,4.999999873689376e-05,-0.0011399999493733048,-0.11307000368833542
6449.0074677384155,1131399.0,-0.0028800000436604023,-0.0017300000181421638,0.00031999999191612005,-0.11191999912261963
6449.008467510631,1131400.0,-0.0022499999031424522,-0.0013200000394135714,-0.0035000001080334187,-0.11503999680280685
6449.009467282845,1131401.0,0.0015300000086426735,-0.004089999943971634,0.00031999999191612005,-0.11687000095844269
6449.010467055061,1131402.0,0.004310000222176313,-0.0031300000846385956,0.0021299999207258224,-0.11356999725103378
6449.011466827276,1131403.0,0.0020699999295175076,-0.004410000052303076,0.00418000016361475,-0.11687000095844269
6449.012466599492,1131404.0,-0.0003600000054575503,-0.0007699999841861427,0.0031300000846385956,-0.11765000224113464
6449.013466371707,1131405.0,-0.0003600000054575503,0.006130000110715628,-0.003449999960139394,-0.11576999723911285
6449.014466143922,1131406.0,-0.0006300000241026282,0.007540000136941671,-0.0044999998062849045,-0.1188800036907196
6449.015465916137,1131407.0,-0.0026100000832229853,0.007579999975860119,0.0018599999602884054,-0.11952000111341476
6449.016465688353,1131408.0,-0.0003600000054575503,0.007860000245273113,0.0024999999441206455,-0.11796999722719193
6449.017465460568,1131409.0,0.004129999782890081,0.006769999861717224,0.00031999999191612005,-0.12071000039577484
6449.0184652327835,1131410.0,0.009479999542236328,0.002630000002682209,-0.000910000002477318,-0.12199000269174576
6449.019465004998,1131411.0,0.014469999819993973,-0.0011399999493733048,-0.002589999930933118,-0.119889996945858
6449.020464777213,1131412.0,0.017069999128580093,-0.001449999981559813,-0.001500000013038516,-0.12185999751091003
6449.021464549429,1131413.0,0.015270000323653221,-0.008449999615550041,0.00031999999191612005,-0.12450999766588211
6449.022464321644,1131414.0,0.009879999794065952,-0.00953999999910593,-0.001230000052601099,-0.12185999751091003
6449.02346409386,1131415.0,0.0034099998883903027,-0.012400000356137753,-0.001180000021122396,-0.12354999780654907
6449.024463866075,1131416.0,-0.004360000137239695,-0.00203999993391335,9.000000136438757e-05,-0.12575000524520874
6449.02546363829,1131417.0,-0.011500000022351742,0.004999999888241291,0.0021299999207258224,-0.12496999651193619
6449.026463410505,1131418.0,-0.018330000340938568,0.007770000025629997,0.0019099999917671084,-0.12432999908924103
6449.027463182721,1131419.0,-0.02012999914586544,0.004129999782890081,-0.001500000013038516,-0.12601999938488007
6449.028462954936,1131420.0,-0.019050000235438347,4.999999873689376e-05,-0.0019499999471008778,-0.12793999910354614
6449.029462727151,1131421.0,-0.014820000156760216,-0.0019499999471008778,0.002859999891370535,-0.12758000195026398
6449.030462499366,1131422.0,-0.0083600003272295,-0.0030400000978261232,-0.001230000052601099,-0.12647999823093414
6449.031462271581,1131423.0,-0.0015300000086426735,0.0012700000079348683,0.003000000026077032,-0.1287200003862381
6449.032462043797,1131424.0,0.002959999954327941,0.0031300000846385956,-0.0006799999973736703,-0.13068999350070953
6449.033461816012,1131425.0,0.005799999926239252,0.008949999697506428,-0.0044999998062849045,-0.12807999551296234
6449.034461588228,1131426.0,0.008799999952316284,0.00686000008136034,-0.005810000002384186,-0.13064999878406525
6449.035461360443,1131427.0,0.013120000250637531,0.0031799999997019768,0.0013200000394135714,-0.13083000481128693
6449.036461132658,1131428.0,0.01671000011265278,0.00031999999191612005,-0.0035000001080334187,-0.1307400017976761
6449.037460904873,1131429.0,0.01860000006854534,-0.000910000002477318,-0.001180000021122396,-0.13283999264240265
6449.038460677089,1131430.0,0.021649999544024467,0.001230000052601099,0.0029100000392645597,-0.13298000395298004
6449.039460449304,1131431.0,0.021649999544024467,0.0014100000262260437,0.0019099999917671084,-0.131740003824234
6449.040460221519,1131432.0,0.017430000007152557,0.0021299999207258224,0.001180000021122396,-0.13402999937534332
6449.041459993734,1131433.0,0.012400000356137753,-0.002319999970495701,0.00031999999191612005,-0.1330299973487854
6449.042459765949,1131434.0,0.006289999932050705,-0.004040000028908253,-0.003719999920576811,-0.13595999777317047
6449.043459538165,1131435.0,0.0010300000431016088,-0.00949000008404255,-0.0030400000978261232,-0.13379999995231628
6449.04445931038,1131436.0,-0.0031399999279528856,-0.006219999864697456,0.002950000111013651,-0.13631999492645264
6449.045459082596,1131437.0,-0.005929999984800816,-0.005590000189840794,0.002950000111013651,-0.13490000367164612
6449.046458854811,1131438.0,-0.009159999899566174,-0.012760000303387642,-0.001180000021122396,-0.13787999749183655
6449.047458627026,1131439.0,-0.008449999615550041,-0.0011399999493733048,0.0028200000524520874,-0.1356399953365326
6449.048458399241,1131440.0,-0.009340000338852406,9.000000136438757e-05,0.0014100000262260437,-0.13878999650478363
6449.0494581714565,1131441.0,-0.01221999991685152,0.002409999957308173,-0.003220000071451068,-0.13718999922275543
6449.050457943672,1131442.0,-0.012529999949038029,0.00031999999191612005,-0.002319999970495701,-0.14030000567436218
6449.051457715887,1131443.0,-0.010420000180602074,0.0019499999471008778,0.0013200000394135714,-0.13774000108242035
6449.052457488102,1131444.0,-0.007910000160336494,0.009039999917149544,-0.0012700000079348683,-0.14030000567436218
6449.053457260317,1131445.0,-0.004670000169426203,0.014120000414550304,0.0002699999895412475,-0.13921000063419342
6449.054457032533,1131446.0,-0.0012600000482052565,0.009669999592006207,0.00014000000373926014,-0.14208999276161194
6449.055456804748,1131447.0,0.0012600000482052565,0.003719999920576811,-0.0006399999838322401,-0.13970999419689178
6449.056456576964,1131448.0,0.005929999984800816,0.00031999999191612005,0.0022299999836832285,-0.14203999936580658
6449.057456349178,1131449.0,0.009929999709129333,0.0064500002190470695,0.003860000055283308,-0.14268000423908234
6449.058456121394,1131450.0,0.014379999600350857,0.012849999591708183,0.000910000002477318,-0.14139999449253082
6449.059455893609,1131451.0,0.017249999567866325,-0.001230000052601099,-0.0063599999994039536,-0.1431400030851364
6449.0604556658245,1131452.0,0.015320000238716602,-0.006630000192672014,0.0010000000474974513,-0.14396999776363373
6449.06145543804,1131453.0,0.014779999852180481,-0.006130000110715628,0.0002699999895412475,-0.14510999619960785
6449.062455210255,1131454.0,0.012040000408887863,-0.007860000245273113,-0.003000000026077032,-0.14323000609874725
6449.06345498247,1131455.0,0.007499999832361937,-0.006039999891072512,0.000910000002477318,-0.1448799967765808
6449.064454754685,1131456.0,0.003949999809265137,-0.0044999998062849045,-0.0033199999015778303,-0.14584000408649445
6449.065454526901,1131457.0,-9.000000136438757e-05,-0.008080000057816505,0.0025400000158697367,-0.1467999964952469
6449.066454299116,1131458.0,-0.0028800000436604023,-0.0071299998089671135,0.00031999999191612005,-0.14740000665187836
6449.067454071332,1131459.0,-0.003229999914765358,0.0031300000846385956,0.00031999999191612005,-0.1473499983549118
6449.068453843546,1131460.0,-0.001930000027641654,0.00031999999191612005,-0.002589999930933118,-0.14699000120162964
6449.069453615762,1131461.0,-0.0012100000167265534,-0.0005000000237487257,0.00031999999191612005,-0.14693999290466309
6449.070453387977,1131462.0,-0.0006300000241026282,0.001230000052601099,-0.000539999979082495,-0.1477700024843216
6449.0714531601925,1131463.0,-0.0003600000054575503,0.006130000110715628,-0.003909999970346689,-0.14877000451087952
6449.072452932408,1131464.0,0.003280000062659383,0.009630000218749046,0.0015399999683722854,-0.14959999918937683
6449.073452704623,1131465.0,0.007009999826550484,0.007540000136941671,9.000000136438757e-05,-0.1507900059223175
6449.074452476838,1131466.0,0.008089999668300152,-0.004629999864846468,-0.0019499999471008778,-0.15178999304771423
6449.075452249053,1131467.0,0.007499999832361937,-0.012620000168681145,0.005630000028759241,-0.1516599953174591
6449.076452021269,1131468.0,0.009340000338852406,-0.010540000163018703,0.0013200000394135714,-0.15115000307559967
6449.077451793484,1131469.0,0.014290000312030315,-0.0064500002190470695,-0.0002300000051036477,-0.1511099934577942
6449.0784515657,1131470.0,0.020749999210238457,0.00031999999191612005,0.003719999920576811,-0.15202000737190247
6449.079451337914,1131471.0,0.02606000006198883,0.0014100000262260437,-0.0007300000288523734,-0.1532599925994873
6449.08045111013,1131472.0,0.02785000018775463,-0.00014000000373926014,-0.000859999970998615,-0.15421999990940094
6449.081450882345,1131473.0,0.027990000322461128,0.0008200000156648457,0.0035000001080334187,-0.15463000535964966
6449.0824506545605,1131474.0,0.025520000606775284,-0.007040000054985285,-0.001449999981559813,-0.15581999719142914
6449.083450426776,1131475.0,0.01621999964118004,0.0021299999207258224,-0.0018599999602884054,-0.1564600020647049
6449.08445019899,1131476.0,0.006380000151693821,0.00535999983549118,0.00031999999191612005,-0.15678000450134277
6449.085449971206,1131477.0,0.0017999999690800905,0.010040000081062317,-0.0031799999997019768,-0.15678000450134277
6449.086449743421,1131478.0,-0.0024300001095980406,0.004679999779909849,0.00031999999191612005,-0.1564200073480606
6449.087449515637,1131479.0,-0.005030000116676092,0.0016799999866634607,-0.0037700000684708357,-0.15627999603748322
6449.088449287852,1131480.0,-0.0035000001080334187,0.00031999999191612005,-0.0019499999471008778,-0.15825000405311584
6449.089449060068,1131481.0,0.00107999995816499,0.00031999999191612005,-9.000000136438757e-05,-0.15934999287128448
6449.090448832282,1131482.0,0.004129999782890081,-0.0011399999493733048,0.002859999891370535,-0.15865999460220337
6449.091448604498,1131483.0,0.007139999885112047,-0.0033199999015778303,0.00571999978274107,-0.15897999703884125
6449.092448376713,1131484.0,0.008089999668300152,-0.005489999894052744,0.0002300000051036477,-0.16012999415397644
6449.0934481489285,1131485.0,0.008089999668300152,0.00014000000373926014,-0.0007699999841861427,-0.16190999746322632
6449.094447921144,1131486.0,0.008179999887943268,0.005770000163465738,-0.0011399999493733048,-0.16154000163078308
6449.095447693358,1131487.0,0.010599999688565731,0.014670000411570072,-0.0002699999895412475,-0.16141000390052795
6449.096447465574,1131488.0,0.01590000092983246,0.01947999931871891,0.000859999970998615,-0.16272999346256256
6449.097447237789,1131489.0,0.021069999784231186,0.01104000024497509,-0.0033599999733269215,-0.16314999759197235
6449.098447010005,1131490.0,0.026499999687075615,0.00203999993391335,-0.0020000000949949026,-0.162090003490448
6449.09944678222,1131491.0,0.029330000281333923,0.0021299999207258224,-0.00031999999191612005,-0.16419999301433563
6449.100446554436,1131492.0,0.028440000489354134,0.0008200000156648457,0.0010000000474974513,-0.16520999372005463
6449.10144632665,1131493.0,0.02363000065088272,-0.0018599999602884054,0.001500000013038516,-0.16447000205516815
6449.102446098866,1131494.0,0.017340000718832016,-0.011309999972581863,-0.003000000026077032,-0.16520999372005463
6449.103445871081,1131495.0,0.011409999802708626,-0.019029999151825905,-0.0028200000524520874,-0.16630999743938446
6449.1044456432965,1131496.0,0.007189999800175428,-0.022929999977350235,0.000910000002477318,-0.16740000247955322
6449.105445415512,1131497.0,0.005750000011175871,-0.016300000250339508,0.0013200000394135714,-0.16666999459266663
6449.106445187726,1131498.0,0.004040000028908253,-0.0076299998909235,0.004679999779909849,-0.16744999587535858
6449.107444959942,1131499.0,0.0016199999954551458,-0.005859999917447567,0.005539999809116125,-0.1688700020313263
6449.108444732157,1131500.0,-0.003819999983534217,0.0021299999207258224,0.0016799999866634607,-0.16854999959468842
6449.109444504373,1131501.0,-0.005439999978989363,0.004000000189989805,-0.005489999894052744,-0.1697400063276291
6449.110444276588,1131502.0,-0.0023399998899549246,0.006810000166296959,-0.0013599999947473407,-0.17111000418663025
6449.111444048804,1131503.0,0.00013000000035390258,0.010490000247955322,-0.00494999997317791,-0.17001000046730042
6449.112443821018,1131504.0,0.0024300001095980406,0.006949999835342169,-0.0007699999841861427,-0.17138999700546265
6449.113443593234,1131505.0,0.004310000222176313,0.002319999970495701,0.005040000192821026,-0.17215999960899353
6449.114443365449,1131506.0,0.007550000213086605,0.00203999993391335,0.0016799999866634607,-0.17161999642848969
6449.115443137664,1131507.0,0.009209999814629555,0.003220000071451068,-0.003449999960139394,-0.17330999672412872
6449.11644290988,1131508.0,0.013120000250637531,-0.0014100000262260437,-0.001230000052601099,-0.17372000217437744
6449.117442682094,1131509.0,0.015540000051259995,-0.008220000192523003,0.004360000137239695,-0.17381000518798828
6449.11844245431,1131510.0,0.018239999189972878,-0.00041000000783242285,0.002409999957308173,-0.1750900000333786
6449.119442226525,1131511.0,0.023089999333024025,0.010400000028312206,0.00418000016361475,-0.1750900000333786
6449.120441998741,1131512.0,0.025340000167489052,0.010169999673962593,-0.003449999960139394,-0.17587000131607056
6449.121441770956,1131513.0,0.02474999986588955,0.005539999809116125,-0.008899999782443047,-0.1769700050354004
6449.122441543171,1131514.0,0.021469999104738235,0.0071299998089671135,-0.006680000107735395,-0.1769299954175949
6449.123441315386,1131515.0,0.016759999096393585,0.0030900000128895044,0.00031999999191612005,-0.17743000388145447
6449.124441087602,1131516.0,0.01095999963581562,-0.0019499999471008778,-0.0036299999337643385,-0.1785299926996231
6449.125440859817,1131517.0,0.005799999926239252,-0.0031799999997019768,-0.002950000111013651,-0.1785299926996231
6449.126440632032,1131518.0,0.0028800000436604023,-0.004769999999552965,0.0016799999866634607,-0.17893999814987183
6449.127440404248,1131519.0,0.00215999991632998,-0.005679999943822622,0.0017300000181421638,-0.1791200041770935
6449.128440176462,1131520.0,0.0017099999822676182,-0.0021800000686198473,0.0012700000079348683,-0.18036000430583954
6449.129439948678,1131521.0,0.0017999999690800905,-0.0022299999836832285,0.006130000110715628,-0.18007999658584595
6449.130439720893,1131522.0,0.0037700000684708357,-0.0036800000816583633,0.003860000055283308,-0.18131999671459198
6449.131439493109,1131523.0,0.006020000204443932,-0.0021800000686198473,-0.000539999979082495,-0.18091000616550446
6449.132439265324,1131524.0,0.006690000183880329,-0.0027699999045580626,-0.0011399999493733048,-0.1826000064611435
6449.133439037539,1131525.0,0.00646999990567565,-0.0034099998883903027,0.00031999999191612005,-0.18297000229358673
6449.134438809754,1131526.0,0.006690000183880329,0.00203999993391335,-0.002090000081807375,-0.18242000043392181
6449.1354385819695,1131527.0,0.00773000018671155,0.0064500002190470695,0.0015399999683722854,-0.1833299994468689
6449.136438354185,1131528.0,0.009879999794065952,0.005900000222027302,0.0010000000474974513,-0.18411000072956085
6449.1374381264,1131529.0,0.012760000303387642,0.003590000094845891,-0.0031799999997019768,-0.18521000444889069
6449.138437898616,1131530.0,0.015809999778866768,0.00031999999191612005,0.0002699999895412475,-0.18483999371528625
6449.13943767083,1131531.0,0.01931999996304512,-0.004809999838471413,0.0010900000343099236,-0.1859000027179718
6449.140437443046,1131532.0,0.01962999999523163,0.0022299999836832285,0.0018599999602884054,-0.1860799938440323
6449.141437215261,1131533.0,0.01779000088572502,0.0016799999866634607,-0.004449999891221523,-0.18727000057697296
6449.142436987477,1131534.0,0.01508999988436699,-0.0034099998883903027,-0.004220000002533197,-0.18717999756336212
6449.143436759692,1131535.0,0.011140000075101852,-0.0022299999836832285,0.004310000222176313,-0.18727000057697296
6449.144436531907,1131536.0,0.005030000116676092,-0.006039999891072512,-0.0006799999973736703,-0.18863999843597412
6449.145436304122,1131537.0,0.002959999954327941,-0.002589999930933118,-0.0027199999894946814,-0.18915000557899475
6449.1464360763375,1131538.0,0.0003100000030826777,-0.0045900000259280205,0.0024500000290572643,-0.1890600025653839
6449.147435848553,1131539.0,0.0022499999031424522,0.0,0.0029100000392645597,-0.18900999426841736
6449.148435620768,1131540.0,0.00646999990567565,-0.00203999993391335,0.0010000000474974513,-0.18974000215530396
6449.149435392983,1131541.0,0.005750000011175871,0.002319999970495701,-0.0021299999207258224,-0.1915699988603592
6449.150435165198,1131542.0,0.0023399998899549246,0.00031999999191612005,-0.001769999973475933,-0.1907999962568283
6449.151434937414,1131543.0,-0.00018000000272877514,-0.0002300000051036477,-0.0009500000160187483,-0.19176000356674194
6449.152434709629,1131544.0,-0.0006300000241026282,-0.0031799999997019768,-0.0011399999493733048,-0.1921200007200241
6449.153434481845,1131545.0,-0.00022000000171829015,-0.0036800000816583633,0.0022299999836832285,-0.19307999312877655
6449.15443425406,1131546.0,0.0023399998899549246,-0.0022700000554323196,0.002589999930933118,-0.19303999841213226
6449.155434026275,1131547.0,0.005969999823719263,-0.0031300000846385956,-0.0015399999683722854,-0.19469000399112701
6449.15643379849,1131548.0,0.008449999615550041,0.005450000055134296,0.0033199999015778303,-0.19437000155448914
6449.1574335707055,1131549.0,0.010780000127851963,0.010809999890625477,-0.001449999981559813,-0.19463999569416046
6449.158433342921,1131550.0,0.01508999988436699,0.02166000008583069,-0.004040000028908253,-0.19596999883651733
6449.159433115136,1131551.0,0.019589999690651894,0.019120000302791595,-0.0006399999838322401,-0.1966100037097931
6449.160432887351,1131552.0,0.020349999889731407,0.00875999964773655,0.001769999973475933,-0.19655999541282654
6449.161432659566,1131553.0,0.01689000055193901,-0.0022299999836832285,-0.0003600000054575503,-0.197160005569458
6449.162432431782,1131554.0,0.01181000005453825,-0.008860000409185886,-0.0017300000181421638,-0.1983499974012375
6449.163432203997,1131555.0,0.009159999899566174,-0.004900000058114529,-0.0022299999836832285,-0.198170006275177
6449.164431976213,1131556.0,0.00773000018671155,-0.004860000219196081,-0.00018000000272877514,-0.1990399956703186
6449.165431748428,1131557.0,0.00674000009894371,-0.00839999970048666,0.0014100000262260437,-0.19931000471115112
6449.166431520643,1131558.0,0.005619999952614307,-0.014800000004470348,0.0014100000262260437,-0.1994899958372116
6449.167431292858,1131559.0,0.004670000169426203,-0.013670000247657299,-0.004269999917596579,-0.20091000199317932
6449.1684310650735,1131560.0,0.003280000062659383,-0.007040000054985285,-0.00014000000373926014,-0.20114000141620636
6449.169430837289,1131561.0,0.002959999954327941,0.003949999809265137,-0.003809999907389283,-0.20182999968528748
6449.170430609504,1131562.0,0.0031399999279528856,0.007770000025629997,0.0015399999683722854,-0.20218999683856964
6449.171430381719,1131563.0,0.006649999879300594,0.0051299999468028545,-0.0002699999895412475,-0.20302000641822815
6449.172430153934,1131564.0,0.009519999846816063,0.0021299999207258224,0.0031799999997019768,-0.20316000282764435
6449.17342992615,1131565.0,0.011230000294744968,-0.0007699999841861427,0.005590000189840794,-0.20407000184059143
6449.174429698365,1131566.0,0.012620000168681145,0.0022700000554323196,-0.0019499999471008778,-0.20476000010967255
6449.175429470581,1131567.0,0.014689999632537365,0.001500000013038516,0.003539999946951866,-0.20494000613689423
6449.176429242796,1131568.0,0.02012999914586544,0.003590000094845891,0.0029100000392645597,-0.2055400013923645
6449.177429015011,1131569.0,0.02776000089943409,0.005400000140070915,-0.0036800000816583633,-0.20576000213623047
6449.178428787226,1131570.0,0.03359999880194664,0.002090000081807375,-0.0018599999602884054,-0.20732000470161438
6449.1794285594415,1131571.0,0.03723999857902527,-0.0008200000156648457,-0.0016799999866634607,-0.20769000053405762
6449.180428331657,1131572.0,0.03711000084877014,0.003539999946951866,-0.00014000000373926014,-0.20764000713825226
6449.181428103872,1131573.0,0.033649999648332596,0.00267999991774559,-0.004999999888241291,-0.20869000256061554
6449.182427876087,1131574.0,0.026100000366568565,0.001769999973475933,-0.0029100000392645597,-0.20882999897003174
6449.183427648302,1131575.0,0.016440000385046005,-0.006630000192672014,-0.0008200000156648457,-0.20993000268936157
6449.184427420518,1131576.0,0.008489999920129776,-0.011490000411868095,0.0021299999207258224,-0.20987999439239502
6449.185427192733,1131577.0,0.0016599999507889152,-0.011529999785125256,0.00014000000373926014,-0.2110700011253357
6449.186426964949,1131578.0,-0.0012100000167265534,-0.009220000356435776,0.0022299999836832285,-0.21111999452114105
6449.187426737163,1131579.0,0.00107999995816499,-0.005489999894052744,0.00031999999191612005,-0.21149000525474548
6449.188426509379,1131580.0,0.005750000011175871,-0.005900000222027302,0.0028200000524520874,-0.2122199982404709
6449.189426281594,1131581.0,0.01131999958306551,0.014440000057220459,-0.0027699999045580626,-0.21303999423980713
6449.1904260538095,1131582.0,0.013249999843537807,0.021709999069571495,-0.003909999970346689,-0.21367999911308289
6449.191425826025,1131583.0,0.013120000250637531,0.015399999916553497,-0.002589999930933118,-0.21419000625610352
6449.19242559824,1131584.0,0.012489999644458294,0.005900000222027302,0.0021299999207258224,-0.21442000567913055
6449.193425370455,1131585.0,0.011859999969601631,-0.002589999930933118,0.0022700000554323196,-0.21487000584602356
6449.19442514267,1131586.0,0.012040000408887863,-0.004769999999552965,0.002409999957308173,-0.21501000225543976
6449.195424914886,1131587.0,0.011500000022351742,-0.001180000021122396,-0.001500000013038516,-0.21615999937057495
6449.196424687101,1131588.0,0.015860000625252724,0.0010400000028312206,0.0011399999493733048,-0.21648000180721283
6449.197424459317,1131589.0,0.021789999678730965,0.004679999779909849,-0.003000000026077032,-0.21720999479293823
6449.198424231531,1131590.0,0.026100000366568565,0.001230000052601099,0.0010000000474974513,-0.21743999421596527
6449.199424003747,1131591.0,0.02865999937057495,0.0030400000978261232,0.0024999999441206455,-0.2179899960756302
6449.200423775962,1131592.0,0.027089999988675117,0.008129999972879887,0.0022299999836832285,-0.2184000015258789
6449.201423548177,1131593.0,0.023310000076889992,-0.0002699999895412475,-0.003539999946951866,-0.21953999996185303
6449.202423320393,1131594.0,0.019950000569224358,-0.003539999946951866,-0.001500000013038516,-0.2195899933576584
6449.203423092608,1131595.0,0.016620000824332237,-0.005489999894052744,-0.0037700000684708357,-0.2201399952173233
6449.204422864823,1131596.0,0.01131999958306551,-0.011669999919831753,0.00014000000373926014,-0.22082999348640442
6449.205422637038,1131597.0,0.004040000028908253,-0.011760000139474869,0.0015399999683722854,-0.22078000009059906
6449.206422409254,1131598.0,-0.0022899999748915434,-0.0006399999838322401,0.0024999999441206455,-0.22156000137329102
6449.207422181469,1131599.0,-0.006649999879300594,-0.004679999779909849,0.0018599999602884054,-0.22214999794960022
6449.208421953685,1131600.0,-0.005570000037550926,-0.00267999991774559,-0.002630000002682209,-0.22306999564170837
6449.209421725899,1131601.0,-0.0025599999353289604,4.999999873689376e-05,-0.002589999930933118,-0.2233400046825409
6449.210421498115,1131602.0,-0.0007200000109151006,-0.005489999894052744,-0.00494999997317791,-0.22397999465465546
6449.21142127033,1131603.0,0.0015300000086426735,-0.0033199999015778303,0.0014100000262260437,-0.2246199995279312
6449.212421042545,1131604.0,0.004129999782890081,0.002589999930933118,-0.002319999970495701,-0.22495000064373016
6449.213420814761,1131605.0,0.005929999984800816,0.009039999917149544,0.0016799999866634607,-0.2247599959373474
6449.214420586975,1131606.0,0.005119999870657921,0.008489999920129776,0.00418000016361475,-0.22544999420642853
6449.215420359191,1131607.0,0.0037700000684708357,0.00494999997317791,0.004679999779909849,-0.22585999965667725
6449.216420131406,1131608.0,0.005570000037550926,0.006810000166296959,0.009759999811649323,-0.22673000395298004
6449.217419903622,1131609.0,0.008980000391602516,0.007860000245273113,-0.0013200000394135714,-0.22745999693870544
6449.218419675837,1131610.0,0.015449999831616879,0.011939999647438526,-0.00803999975323677,-0.22787000238895416
6449.219419448053,1131611.0,0.021970000118017197,0.006130000110715628,-0.002090000081807375,-0.2282399982213974
6449.220419220267,1131612.0,0.0257399994879961,0.003949999809265137,-0.0018599999602884054,-0.22901999950408936
6449.2214189924825,1131613.0,0.02305000089108944,0.003809999907389283,-0.0009500000160187483,-0.2296600043773651
6449.222418764698,1131614.0,0.01607999950647354,-0.009759999811649323,-0.00044999999227002263,-0.23003000020980835
6449.223418536913,1131615.0,0.009159999899566174,-0.014030000194907188,-0.0007699999841861427,-0.2302599996328354
6449.224418309129,1131616.0,0.0028800000436604023,-0.011669999919831753,-0.0045900000259280205,-0.23038999736309052
6449.225418081343,1131617.0,-0.0003100000030826777,-0.007400000002235174,-0.0009500000160187483,-0.23135000467300415
6449.226417853559,1131618.0,-0.004579999949783087,-0.006899999920278788,0.0031300000846385956,-0.23135000467300415
6449.227417625774,1131619.0,-0.006829999852925539,-0.010400000028312206,0.002319999970495701,-0.23231999576091766
6449.22841739799,1131620.0,-0.007819999940693378,0.003949999809265137,0.0002699999895412475,-0.23296000063419342
6449.229417170205,1131621.0,-0.0037299999967217445,0.002319999970495701,-0.0022700000554323196,-0.23360000550746918
6449.230416942421,1131622.0,0.001979999942705035,0.006130000110715628,-0.0009500000160187483,-0.2341500073671341
6449.231416714635,1131623.0,0.0031399999279528856,0.005770000163465738,0.0010000000474974513,-0.23442000150680542
6449.2324164868505,1131624.0,0.0018899999558925629,0.0021299999207258224,-0.0014100000262260437,-0.23514999449253082
6449.233416259066,1131625.0,0.0003100000030826777,-0.0022299999836832285,0.0002699999895412475,-0.2358900010585785
6449.234416031281,1131626.0,0.0017500000540167093,0.002409999957308173,0.0010000000474974513,-0.23543000221252441
6449.235415803497,1131627.0,0.0024300001095980406,0.0015899999998509884,0.00031999999191612005,-0.23670999705791473
6449.236415575711,1131628.0,0.007280000019818544,0.003719999920576811,0.004310000222176313,-0.23707999289035797
6449.237415347927,1131629.0,0.014550000429153442,0.002090000081807375,0.00031999999191612005,-0.2373500019311905
6449.238415120142,1131630.0,0.020659999921917915,0.01063000038266182,-0.003000000026077032,-0.23859000205993652
6449.239414892358,1131631.0,0.024170000106096268,0.009039999917149544,-0.004040000028908253,-0.23885999619960785
6449.240414664573,1131632.0,0.023269999772310257,0.002360000042244792,-0.004449999891221523,-0.23917999863624573
6449.241414436789,1131633.0,0.017249999567866325,0.00031999999191612005,-0.0031300000846385956,-0.23991000652313232
6449.242414209003,1131634.0,0.009429999627172947,-0.006949999835342169,-9.000000136438757e-05,-0.24014000594615936
6449.2434139812185,1131635.0,-0.0007600000244565308,-0.006680000107735395,-0.0011399999493733048,-0.24045999348163605
6449.244413753434,1131636.0,-0.009340000338852406,-0.00749000022187829,-0.002090000081807375,-0.24146999418735504
6449.245413525649,1131637.0,-0.016440000385046005,-0.005679999943822622,-0.002950000111013651,-0.24178999662399292
6449.246413297865,1131638.0,-0.020749999210238457,-0.00749000022187829,-0.0011399999493733048,-0.24178999662399292
6449.247413070079,1131639.0,-0.021649999544024467,-0.006219999864697456,0.0010000000474974513,-0.24275000393390656
6449.248412842295,1131640.0,-0.024170000106096268,-0.0015399999683722854,0.00203999993391335,-0.2429399937391281
6449.24941261451,1131641.0,-0.025699999183416367,0.00031999999191612005,0.00031999999191612005,-0.24344000220298767
6449.250412386726,1131642.0,-0.023360000923275948,0.0031799999997019768,0.001230000052601099,-0.24402999877929688
6449.251412158941,1131643.0,-0.020169999450445175,0.009449999779462814,-0.0036800000816583633,-0.24508999288082123
6449.252411931156,1131644.0,-0.01631000079214573,0.005630000028759241,0.00267999991774559,-0.24422000348567963
6449.253411703371,1131645.0,-0.01384000014513731,0.0027699999045580626,0.0027699999045580626,-0.24577000737190247
6449.2544114755865,1131646.0,-0.010379999876022339,-0.0021299999207258224,0.005539999809116125,-0.2460000067949295
6449.255411247802,1131647.0,-0.005840000230818987,0.00494999997317791,-0.004540000110864639,-0.24605000019073486
6449.256411020017,1131648.0,0.0003100000030826777,0.006630000192672014,0.0016799999866634607,-0.24747000634670258
6449.257410792233,1131649.0,0.00610999995842576,0.004220000002533197,-0.000539999979082495,-0.2476000040769577
6449.258410564447,1131650.0,0.01221999991685152,0.01030999980866909,0.0011399999493733048,-0.24747000634670258
6449.259410336663,1131651.0,0.01607999950647354,0.0016299999551847577,0.0027699999045580626,-0.24852000176906586
6449.260410108878,1131652.0,0.016529999673366547,0.00031999999191612005,-0.0013599999947473407,-0.24869999289512634
6449.261409881094,1131653.0,0.012799999676644802,-0.003449999960139394,-0.007309999782592058,-0.25012001395225525
6449.262409653309,1131654.0,0.00547999981790781,-0.007860000245273113,-0.0030400000978261232,-0.2497600018978119
6449.263409425524,1131655.0,-0.0025599999353289604,-0.010040000081062317,-0.002859999891370535,-0.2505300045013428
6449.264409197739,1131656.0,-0.008449999615550041,-0.010940000414848328,0.0006399999838322401,-0.2506699860095978
6449.2654089699545,1131657.0,-0.012400000356137753,-0.00203999993391335,0.0033599999733269215,-0.2516300082206726
6449.26640874217,1131658.0,-0.015410000458359718,-0.004220000002533197,-0.004860000219196081,-0.2517699897289276
6449.267408514385,1131659.0,-0.016489999368786812,0.0027199999894946814,-0.001449999981559813,-0.25290998816490173
6449.268408286601,1131660.0,-0.015990000218153,0.001769999973475933,0.003449999960139394,-0.2521800100803375
6449.269408058815,1131661.0,-0.013120000250637531,-0.00018000000272877514,0.004860000219196081,-0.2533699870109558
6449.270407831031,1131662.0,-0.007009999826550484,0.00203999993391335,0.0052200001664459705,-0.25301000475883484
6449.271407603246,1131663.0,-0.0013500000350177288,0.012670000083744526,-0.004040000028908253,-0.2549299895763397
6449.272407375462,1131664.0,0.0021100000012665987,0.006130000110715628,-0.002589999930933118,-0.2551099956035614
6449.273407147677,1131665.0,0.0035000001080334187,-0.005489999894052744,0.0010400000028312206,-0.25475001335144043
6449.274406919892,1131666.0,0.003229999914765358,-0.011309999972581863,0.00031999999191612005,-0.2563900053501129
6449.275406692107,1131667.0,0.002959999954327941,-0.009850000031292439,4.999999873689376e-05,-0.2566699981689453
6449.2764064643225,1131668.0,0.006020000204443932,-0.002319999970495701,0.00031999999191612005,-0.25707998871803284
6449.277406236538,1131669.0,0.006560000125318766,0.0010000000474974513,0.001230000052601099,-0.257999986410141
6449.278406008753,1131670.0,0.007550000213086605,0.010850000195205212,-0.005040000192821026,-0.25821998715400696
6449.279405780968,1131671.0,0.009429999627172947,0.006039999891072512,-0.00203999993391335,-0.2588199973106384
6449.280405553183,1131672.0,0.012760000303387642,0.003539999946951866,0.00014000000373926014,-0.2591400146484375
6449.281405325399,1131673.0,0.013299999758601189,-0.000859999970998615,-0.00203999993391335,-0.2590000033378601
6449.282405097614,1131674.0,0.011769999749958515,0.00031999999191612005,-0.002950000111013651,-0.25992000102996826
6449.28340486983,1131675.0,0.00674000009894371,0.00031999999191612005,-0.0034099998883903027,-0.26078999042510986
6449.284404642045,1131676.0,0.0010300000431016088,-0.004040000028908253,-0.002589999930933118,-0.2610599994659424
6449.28540441426,1131677.0,-0.004670000169426203,-0.004809999838471413,0.00031999999191612005,-0.2612900137901306
6449.286404186475,1131678.0,-0.012400000356137753,-0.006399999838322401,0.003719999920576811,-0.2620700001716614
6449.28740395869,1131679.0,-0.016939999535679817,0.0014100000262260437,0.003949999809265137,-0.2618899941444397
6449.288403730906,1131680.0,-0.016529999673366547,0.001769999973475933,0.004860000219196081,-0.2633500099182129
6449.289403503121,1131681.0,-0.014999999664723873,0.006630000192672014,-0.00041000000783242285,-0.2633500099182129
6449.290403275336,1131682.0,-0.01181000005453825,0.008860000409185886,0.00031999999191612005,-0.26357999444007874
6449.291403047551,1131683.0,-0.007459999993443489,0.0029100000392645597,-0.000590000010561198,-0.26499998569488525
6449.292402819767,1131684.0,-0.005169999785721302,0.002589999930933118,0.0024999999441206455,-0.26517999172210693
6449.293402591982,1131685.0,-0.0035000001080334187,0.003719999920576811,0.00031999999191612005,-0.2652300000190735
6449.294402364198,1131686.0,-0.0013000000035390258,-9.000000136438757e-05,-0.008170000277459621,-0.266510009765625
6449.295402136413,1131687.0,0.0003100000030826777,0.004679999779909849,-0.0064500002190470695,-0.266510009765625
6449.296401908628,1131688.0,0.0016599999507889152,-0.0018599999602884054,-0.0007699999841861427,-0.26655998826026917
6449.297401680843,1131689.0,0.005880000069737434,-0.001769999973475933,0.003949999809265137,-0.2682499885559082
6449.298401453058,1131690.0,0.011769999749958515,0.003220000071451068,0.0028200000524520874,-0.2678399980068207
6449.299401225274,1131691.0,0.014469999819993973,0.004129999782890081,-0.0033199999015778303,-0.26848000288009644
6449.300400997489,1131692.0,0.014059999957680702,0.0015899999998509884,-0.0021800000686198473,-0.26934999227523804
6449.301400769704,1131693.0,0.01257999986410141,0.0037700000684708357,-0.00418000016361475,-0.2696700096130371
6449.302400541919,1131694.0,0.007550000213086605,-0.00014000000373926014,0.00031999999191612005,-0.27081000804901123
6449.303400314135,1131695.0,0.0015699999639764428,-0.007040000054985285,0.0029100000392645597,-0.2711299955844879
6449.30440008635,1131696.0,-0.007319999858736992,-0.003539999946951866,0.0012700000079348683,-0.2715499997138977
6449.305399858566,1131697.0,-0.0147299999371171,-0.006949999835342169,-0.005489999894052744,-0.2710399925708771
6449.306399630781,1131698.0,-0.01631000079214573,-0.008580000139772892,-0.0002699999895412475,-0.2731499969959259
6449.3073994029955,1131699.0,-0.013659999705851078,-0.006949999835342169,0.00031999999191612005,-0.27360999584198
6449.308399175211,1131700.0,-0.008489999920129776,-0.0051299999468028545,-0.0006399999838322401,-0.27397000789642334
6449.309398947426,1131701.0,-0.009069999679923058,-0.007770000025629997,0.00031999999191612005,-0.27410998940467834
6449.310398719642,1131702.0,-0.01508999988436699,-0.005539999809116125,-0.0009500000160187483,-0.2744300067424774
6449.311398491857,1131703.0,-0.01769999973475933,-4.999999873689376e-05,0.00031999999191612005,-0.27612000703811646
6449.312398264072,1131704.0,-0.016440000385046005,0.005400000140070915,0.0021299999207258224,-0.2761699855327606
6449.313398036287,1131705.0,-0.012760000303387642,-0.0002699999895412475,0.0034099998883903027,-0.2766300141811371
6449.314397808503,1131706.0,-0.011680000461637974,0.006680000107735395,-0.0033199999015778303,-0.2775000035762787
6449.315397580718,1131707.0,-0.011590000241994858,0.009580000303685665,-0.0035000001080334187,-0.2776300013065338
6449.316397352934,1131708.0,-0.0088900001719594,0.00880999956279993,-0.00044999999227002263,-0.2784999907016754
6449.317397125148,1131709.0,-0.0027000000700354576,0.009990000165998936,0.004310000222176313,-0.27858999371528625
6449.3183968973635,1131710.0,0.001979999942705035,0.00418000016361475,0.002630000002682209,-0.27873000502586365
6449.319396669579,1131711.0,0.005570000037550926,0.0052200001664459705,0.0014100000262260437,-0.280239999294281
6449.320396441794,1131712.0,0.007369999773800373,0.0015899999998509884,0.001180000021122396,-0.2796899974346161
6449.32139621401,1131713.0,0.006289999932050705,0.004900000058114529,0.0,-0.2825300097465515
6449.322395986225,1131714.0,0.0023399998899549246,-0.00418000016361475,0.00267999991774559,-0.28148001432418823
6449.32339575844,1131715.0,-0.0017099999822676182,-0.00839999970048666,-0.0019499999471008778,-0.2823899984359741
6449.324395530655,1131716.0,-0.007369999773800373,-0.009449999779462814,-0.0033199999015778303,-0.28290000557899475
6449.325395302871,1131717.0,-0.00925000011920929,-0.003449999960139394,-0.004310000222176313,-0.28290000557899475
6449.326395075086,1131718.0,-0.007459999993443489,-0.008220000192523003,0.0015899999998509884,-0.2851400077342987
6449.327394847302,1131719.0,-0.0048500001430511475,-0.005489999894052744,0.0013599999947473407,-0.2845900058746338
6449.328394619516,1131720.0,-0.0017099999822676182,-0.005489999894052744,0.0002699999895412475,-0.28422999382019043
6449.3293943917315,1131721.0,0.0029200001154094934,-0.0010400000028312206,0.003590000094845891,-0.2861500084400177
6449.330394163947,1131722.0,0.007410000078380108,0.003220000071451068,0.0010400000028312206,-0.28564000129699707
6449.331393936162,1131723.0,0.008089999668300152,0.004269999917596579,0.00031999999191612005,-0.2875699996948242
6449.332393708378,1131724.0,0.008129999972879887,0.007449999917298555,-0.0006399999838322401,-0.2880699932575226
6449.333393480593,1131725.0,0.009340000338852406,0.008630000054836273,-0.001230000052601099,-0.28738000988960266
6449.334393252808,1131726.0,0.009519999846816063,0.003860000055283308,-0.0031799999997019768,-0.2893100082874298
6449.335393025023,1131727.0,0.008270000107586384,-0.005630000028759241,-0.0036800000816583633,-0.2890799939632416
6449.336392797239,1131728.0,0.008089999668300152,-0.00041000000783242285,-0.0006799999973736703,-0.2903600037097931
6449.337392569454,1131729.0,0.011950000189244747,0.0045900000259280205,0.001500000013038516,-0.290910005569458
6449.3383923416695,1131730.0,0.019360000267624855,0.004679999779909849,0.0015399999683722854,-0.29045000672340393
6449.339392113884,1131731.0,0.023089999333024025,0.0034099998883903027,0.004129999782890081,-0.29256001114845276
6449.3403918860995,1131732.0,0.02263999916613102,0.0014100000262260437,0.004220000002533197,-0.2923699915409088
6449.341391658315,1131733.0,0.02012999914586544,-0.005489999894052744,-0.002950000111013651,-0.2921000123023987
6449.34239143053,1131734.0,0.014870000071823597,-0.004769999999552965,-0.005630000028759241,-0.2938399910926819
6449.343391202746,1131735.0,0.008980000391602516,0.007400000002235174,-0.005489999894052744,-0.2933799922466278
6449.34439097496,1131736.0,0.005210000090301037,-0.002589999930933118,0.0019099999917671084,-0.2953900098800659
6449.345390747176,1131737.0,0.002959999954327941,-0.004129999782890081,0.0021800000686198473,-0.2953000068664551
6449.346390519391,1131738.0,0.0016199999954551458,-0.0035000001080334187,0.0037700000684708357,-0.29517000913619995
6449.347390291607,1131739.0,0.0020699999295175076,-0.0009500000160187483,0.002360000042244792,-0.29635998606681824
6449.348390063822,1131740.0,0.0035000001080334187,0.0014100000262260437,-0.00014000000373926014,-0.29736000299453735
6449.3493898360375,1131741.0,0.00674000009894371,0.0017300000181421638,-0.0027199999894946814,-0.2971799969673157
6449.350389608252,1131742.0,0.008980000391602516,-0.001769999973475933,0.0013200000394135714,-0.29868999123573303
6449.3513893804675,1131743.0,0.0088900001719594,0.00031999999191612005,-0.0006399999838322401,-0.29750001430511475
6449.352389152683,1131744.0,0.011230000294744968,-0.0019499999471008778,-0.0018599999602884054,-0.3003399968147278
6449.353388924898,1131745.0,0.016259999945759773,0.001500000013038516,-0.0018599999602884054,-0.29923999309539795
6449.354388697114,1131746.0,0.019050000235438347,-0.0010400000028312206,-0.000539999979082495,-0.30156999826431274
6449.355388469328,1131747.0,0.02263999916613102,-0.00418000016361475,0.0015399999683722854,-0.3001999855041504
6449.356388241544,1131748.0,0.029020000249147415,4.999999873689376e-05,-0.0005000000237487257,-0.3023099899291992
6449.357388013759,1131749.0,0.035440001636743546,0.01775999926030636,-0.0021299999207258224,-0.30079999566078186
6449.358387785975,1131750.0,0.04061000049114227,0.016119999811053276,0.001820000004954636,-0.30272001028060913
6449.35938755819,1131751.0,0.04295000061392784,0.018479999154806137,-0.000910000002477318,-0.3033599853515625
6449.3603873304055,1131752.0,0.04024999961256981,0.010350000113248825,-0.0013200000394135714,-0.3037300109863281
6449.36138710262,1131753.0,0.03531000018119812,-0.003220000071451068,-0.00041000000783242285,-0.3050999939441681
6449.3623868748355,1131754.0,0.02686000056564808,-0.00839999970048666,-0.0030400000978261232,-0.3046000003814697
6449.363386647051,1131755.0,0.017920000478625298,-0.011309999972581863,-0.003949999809265137,-0.3063400089740753
6449.364386419266,1131756.0,0.007860000245273113,-0.012029999867081642,-0.00203999993391335,-0.30500999093055725
6449.365386191482,1131757.0,0.0010300000431016088,-0.007040000054985285,0.002090000081807375,-0.3066999912261963
6449.366385963696,1131758.0,-0.005119999870657921,-0.007309999782592058,0.005630000028759241,-0.3061999976634979
6449.367385735912,1131759.0,-0.008310000412166119,-0.004860000219196081,0.004089999943971634,-0.3078500032424927
6449.368385508127,1131760.0,-0.009429999627172947,0.008949999697506428,0.00031999999191612005,-0.3074299991130829
6449.369385280343,1131761.0,-0.008179999887943268,0.00535999983549118,0.0002699999895412475,-0.30994999408721924
6449.370385052558,1131762.0,-0.0052999998442828655,0.0037700000684708357,-0.000590000010561198,-0.30889999866485596
6449.3713848247735,1131763.0,-0.0024300001095980406,0.0083600003272295,-0.001180000021122396,-0.3093999922275543
6449.372384596988,1131764.0,0.0011699999449774623,0.003909999970346689,-0.0011399999493733048,-0.3108200132846832
6449.373384369203,1131765.0,0.0048500001430511475,-0.0018599999602884054,0.003590000094845891,-0.3104099929332733
6449.374384141419,1131766.0,0.006649999879300594,-0.0022700000554323196,0.003220000071451068,-0.3123300075531006
6449.375383913634,1131767.0,0.009700000286102295,-0.010990000329911709,0.0010400000028312206,-0.31209999322891235
6449.37638368585,1131768.0,0.015540000051259995,-0.014030000194907188,0.0008200000156648457,-0.3110499978065491
6449.377383458064,1131769.0,0.023809999227523804,-0.015440000221133232,-0.000859999970998615,-0.31439000368118286
6449.37838323028,1131770.0,0.029650000855326653,0.001180000021122396,0.00031999999191612005,-0.31384000182151794
6449.379383002495,1131771.0,0.03513000160455704,0.01107999961823225,-0.0013599999947473407,-0.3146199882030487
6449.380382774711,1131772.0,0.03593999892473221,0.006680000107735395,-0.0006399999838322401,-0.3149000108242035
6449.381382546926,1131773.0,0.032430000603199005,0.009039999917149544,0.0031300000846385956,-0.31415998935699463
6449.382382319141,1131774.0,0.024529999122023582,0.003590000094845891,-0.0033199999015778303,-0.3166399896144867
6449.383382091356,1131775.0,0.014379999600350857,0.006219999864697456,0.0011399999493733048,-0.3162199854850769
6449.384381863571,1131776.0,0.006020000204443932,0.0024999999441206455,0.003539999946951866,-0.31746000051498413
6449.385381635787,1131777.0,0.0006300000241026282,0.001230000052601099,-0.001500000013038516,-0.3182399868965149
6449.386381408002,1131778.0,-0.0009899999713525176,-0.005489999894052744,-0.004129999782890081,-0.31718000769615173
6449.387381180218,1131779.0,0.0014400000218302011,-0.005859999917447567,-0.002950000111013651,-0.32030001282691956
6449.388380952432,1131780.0,0.008799999952316284,-0.0031300000846385956,-0.002090000081807375,-0.31975001096725464
6449.389380724648,1131781.0,0.014379999600350857,0.00018000000272877514,0.00031999999191612005,-0.31902000308036804
6449.390380496863,1131782.0,0.016440000385046005,0.002360000042244792,0.003220000071451068,-0.32102999091148376
6449.391380269079,1131783.0,0.014779999852180481,0.006630000192672014,0.0031300000846385956,-0.3202100098133087
6449.392380041294,1131784.0,0.011719999834895134,0.004089999943971634,0.0030400000978261232,-0.32262998819351196
6449.393379813509,1131785.0,0.007280000019818544,0.0019499999471008778,0.0019099999917671084,-0.322270005941391
6449.394379585724,1131786.0,0.0070500001311302185,0.00031999999191612005,0.003220000071451068,-0.3225399851799011
6449.395379357939,1131787.0,0.004220000002533197,0.002859999891370535,-0.002409999957308173,-0.32291001081466675
6449.396379130155,1131788.0,0.004670000169426203,0.006990000139921904,0.00031999999191612005,-0.3221699893474579
6449.39737890237,1131789.0,0.008489999920129776,0.0021299999207258224,-0.0006799999973736703,-0.3255600035190582
6449.398378674586,1131790.0,0.013659999705851078,-0.000859999970998615,-0.00044999999227002263,-0.3244200050830841
6449.3993784468,1131791.0,0.017969999462366104,-0.001449999981559813,-0.0007699999841861427,-0.3248699903488159
6449.400378219016,1131792.0,0.02043999917805195,-0.0021800000686198473,0.001230000052601099,-0.3254700005054474
6449.401377991231,1131793.0,0.021290000528097153,-0.007079999893903732,0.002859999891370535,-0.3241400122642517
6449.402377763447,1131794.0,0.01689000055193901,-0.010579999536275864,0.0014100000262260437,-0.32725998759269714
6449.403377535662,1131795.0,0.011140000075101852,0.0015899999998509884,-0.002589999930933118,-0.3256100118160248
6449.4043773078765,1131796.0,0.006289999932050705,0.010130000300705433,-0.0015899999998509884,-0.32857999205589294
6449.405377080092,1131797.0,0.000539999979082495,0.0044999998062849045,0.002859999891370535,-0.3270699977874756
6449.406376852307,1131798.0,-0.005659999791532755,-0.0005000000237487257,-0.0021800000686198473,-0.3286300003528595
6449.407376624523,1131799.0,-0.00965999998152256,0.00031999999191612005,-0.005489999894052744,-0.32872000336647034
6449.408376396738,1131800.0,-0.011950000189244747,-0.004410000052303076,-0.0010400000028312206,-0.3278000056743622
6449.409376168953,1131801.0,-0.015629999339580536,-0.002360000042244792,-0.002090000081807375,-0.33072999119758606
6449.410375941168,1131802.0,-0.01711999997496605,-0.006949999835342169,0.004269999917596579,-0.33017998933792114
6449.411375713384,1131803.0,-0.016620000824332237,-0.006219999864697456,0.006680000107735395,-0.328900009393692
6449.412375485599,1131804.0,-0.012620000168681145,-0.0028200000524520874,-0.0013200000394135714,-0.33219999074935913
6449.413375257815,1131805.0,-0.004939999897032976,-0.0018599999602884054,-0.0033199999015778303,-0.33114999532699585
6449.41437503003,1131806.0,-0.0008999999845400453,0.002360000042244792,0.0030900000128895044,-0.33072999119758606
6449.4153748022445,1131807.0,0.000539999979082495,0.009669999592006207,-0.001820000004954636,-0.3325200080871582
6449.41637457446,1131808.0,0.003229999914765358,0.008489999920129776,0.0018599999602884054,-0.33101001381874084
6449.417374346675,1131809.0,0.005260000005364418,0.003860000055283308,0.0045900000259280205,-0.33316001296043396
6449.418374118891,1131810.0,0.006920000072568655,0.006130000110715628,0.0010400000028312206,-0.33476001024246216
6449.419373891106,1131811.0,0.008129999972879887,0.004679999779909849,-0.006680000107735395,-0.3341200053691864
6449.420373663321,1131812.0,0.009750000201165676,0.0021299999207258224,-0.002090000081807375,-0.3338499963283539
6449.421373435536,1131813.0,0.011189999990165234,0.0014100000262260437,0.0017300000181421638,-0.33333998918533325
6449.422373207752,1131814.0,0.008980000391602516,-0.0018599999602884054,-0.004999999888241291,-0.3364099860191345
6449.423372979967,1131815.0,0.003949999809265137,-0.0036800000816583633,-0.0031300000846385956,-0.33636000752449036
6449.4243727521825,1131816.0,-0.003590000094845891,-0.003539999946951866,-0.003949999809265137,-0.33507999777793884
6449.425372524398,1131817.0,-0.012400000356137753,-0.009669999592006207,-0.0022299999836832285,-0.33733001351356506
6449.4263722966125,1131818.0,-0.01899999938905239,-0.005489999894052744,0.003719999920576811,-0.33695998787879944
6449.427372068828,1131819.0,-0.019770000129938126,0.001180000021122396,0.005040000192821026,-0.3371399939060211
6449.428371841043,1131820.0,-0.01761000044643879,-0.0016299999551847577,0.005400000140070915,-0.33765000104904175
6449.429371613259,1131821.0,-0.016349999234080315,-0.0027699999045580626,0.001500000013038516,-0.3365899920463562
6449.430371385474,1131822.0,-0.013790000230073929,0.0030400000978261232,0.0013200000394135714,-0.3398900032043457
6449.431371157689,1131823.0,-0.009879999794065952,0.00031999999191612005,-0.002090000081807375,-0.3397499918937683
6449.432370929904,1131824.0,-0.00773000018671155,0.0002300000051036477,-0.0033599999733269215,-0.3383300006389618
6449.43337070212,1131825.0,-0.005750000011175871,-0.003909999970346689,-0.003000000026077032,-0.3412199914455414
6449.434370474335,1131826.0,-0.004939999897032976,0.00031999999191612005,-0.004540000110864639,-0.34011998772621155
6449.4353702465505,1131827.0,-0.0033199999015778303,-0.0019099999917671084,-0.00203999993391335,-0.3422200083732605
6449.436370018766,1131828.0,0.003819999983534217,0.00031999999191612005,-0.003539999946951866,-0.3413499891757965
6449.4373697909805,1131829.0,0.01348000019788742,0.004679999779909849,0.001769999973475933,-0.33998000621795654
6449.438369563196,1131830.0,0.020309999585151672,0.003220000071451068,0.004410000052303076,-0.34373000264167786
6449.439369335411,1131831.0,0.024480000138282776,0.007770000025629997,0.0019499999471008778,-0.3428199887275696
6449.440369107627,1131832.0,0.025469999760389328,-0.006399999838322401,0.008310000412166119,-0.3410300016403198
6449.441368879842,1131833.0,0.019360000267624855,0.0012700000079348683,0.001769999973475933,-0.3451099991798401
6449.442368652057,1131834.0,0.007590000052005053,0.00795000046491623,-0.0036800000816583633,-0.34369000792503357
6449.443368424272,1131835.0,-0.0008099999977275729,0.009580000303685665,-0.009580000303685665,-0.34446999430656433
6449.444368196488,1131836.0,-0.005570000037550926,-0.004220000002533197,-0.0021299999207258224,-0.3447900116443634
6449.445367968703,1131837.0,-0.010239999741315842,4.999999873689376e-05,-0.0012700000079348683,-0.344650000333786
6449.4463677409185,1131838.0,-0.014379999600350857,0.0021800000686198473,0.000859999970998615,-0.34634000062942505
6449.447367513133,1131839.0,-0.016620000824332237,0.004089999943971634,-0.0033199999015778303,-0.34615999460220337
6449.4483672853485,1131840.0,-0.0147299999371171,0.001769999973475933,-0.000859999970998615,-0.3447900116443634
6449.449367057564,1131841.0,-0.011140000075101852,-0.004769999999552965,0.0025400000158697367,-0.3479900062084198
6449.450366829779,1131842.0,-0.006380000151693821,0.00031999999191612005,0.0008200000156648457,-0.3474000096321106
6449.451366601995,1131843.0,-0.0024300001095980406,-0.006810000166296959,0.002090000081807375,-0.3465299904346466
6449.45236637421,1131844.0,0.00107999995816499,-0.00203999993391335,0.003220000071451068,-0.34977999329566956
6449.453366146425,1131845.0,0.0024300001095980406,0.00031999999191612005,0.006039999891072512,-0.34790000319480896
6449.45436591864,1131846.0,0.0008999999845400453,-0.000590000010561198,-0.002589999930933118,-0.3483099937438965
6449.455365690856,1131847.0,-0.0008999999845400453,0.007770000025629997,-0.0016799999866634607,-0.3501400053501129
6449.456365463071,1131848.0,0.0013000000035390258,0.014619999565184116,0.002950000111013651,-0.34950000047683716
6449.4573652352865,1131849.0,0.008799999952316284,0.009759999811649323,-0.0003600000054575503,-0.3498699963092804
6449.458365007501,1131850.0,0.017340000718832016,0.0027699999045580626,0.003220000071451068,-0.35196998715400696
6449.459364779716,1131851.0,0.02281999960541725,-0.008949999697506428,0.0002300000051036477,-0.35082998871803284
6449.460364551932,1131852.0,0.021609999239444733,-0.005489999894052744,-0.00418000016361475,-0.35179001092910767
6449.461364324147,1131853.0,0.017559999600052834,-0.004040000028908253,-0.005539999809116125,-0.35225000977516174
6449.462364096363,1131854.0,0.01131999958306551,-0.008860000409185886,-0.0064500002190470695,-0.3514699935913086
6449.463363868578,1131855.0,0.0020699999295175076,-0.016030000522732735,-0.0015399999683722854,-0.354449987411499
6449.464363640793,1131856.0,-0.0101500004529953,-0.017980000004172325,0.003269999986514449,-0.35398998856544495
6449.465363413008,1131857.0,-0.023089999333024025,0.00031999999191612005,0.0027699999045580626,-0.3527500033378601
6449.466363185224,1131858.0,-0.03714999929070473,0.005040000192821026,0.001769999973475933,-0.35600000619888306
6449.467362957439,1131859.0,-0.05012999847531319,0.004999999888241291,0.006130000110715628,-0.35587000846862793
6449.4683627296545,1131860.0,-0.05974999815225601,0.004720000084489584,0.0013599999947473407,-0.3543500006198883
6449.469362501869,1131861.0,-0.06774000078439713,-0.00018000000272877514,-0.005489999894052744,-0.35802000761032104
6449.470362274084,1131862.0,-0.07709000259637833,0.0035000001080334187,-0.004540000110864639,-0.35714998841285706
6449.4713620463,1131863.0,-0.08534999936819077,0.004679999779909849,-0.00044999999227002263,-0.3566400110721588
6449.472361818515,1131864.0,-0.09168999642133713,-0.002409999957308173,-0.0002300000051036477,-0.35861000418663025
6449.473361590731,1131865.0,-0.09452000260353088,-0.006490000057965517,0.001500000013038516,-0.3572399914264679
6449.474361362945,1131866.0,-0.09810999780893326,0.00018000000272877514,0.00418000016361475,-0.36017000675201416
6449.475361135161,1131867.0,-0.10655999928712845,0.01066999975591898,0.0012700000079348683,-0.36002999544143677
6449.476360907376,1131868.0,-0.11806000024080276,0.014399999752640724,-0.000910000002477318,-0.359250009059906
6449.477360679592,1131869.0,-0.12330999970436096,0.015350000001490116,-0.003000000026077032,-0.3616800010204315
6449.478360451807,1131870.0,-0.1282999962568283,0.008129999972879887,0.00031999999191612005,-0.3619999885559082
6449.4793602240225,1131871.0,-0.13301999866962433,-0.002409999957308173,0.0015399999683722854,-0.36063000559806824
6449.480359996237,1131872.0,-0.13917000591754913,-0.0010400000028312206,0.0002300000051036477,-0.36496999859809875
6449.481359768452,1131873.0,-0.14663000404834747,0.004679999779909849,-0.003449999960139394,-0.3641499876976013
6449.482359540668,1131874.0,-0.15399999916553497,-0.002589999930933118,0.0007699999841861427,-0.3634200096130371
6449.483359312883,1131875.0,-0.15776999294757843,-0.0013599999947473407,-0.002589999930933118,-0.36699000000953674
6449.484359085099,1131876.0,-0.15740999579429626,-0.003220000071451068,-0.003539999946951866,-0.36579999327659607
6449.485358857313,1131877.0,-0.15498000383377075,-0.006949999835342169,-0.0022700000554323196,-0.36496999859809875
6449.486358629529,1131878.0,-0.15098999440670013,-0.007309999782592058,-0.0011399999493733048,-0.3688200116157532
6449.487358401744,1131879.0,-0.14284999668598175,-0.004269999917596579,0.0024999999441206455,-0.36855000257492065
6449.48835817396,1131880.0,-0.1273999959230423,-0.000859999970998615,0.001230000052601099,-0.36768001317977905
6449.489357946175,1131881.0,-0.10538999736309052,-0.004040000028908253,0.0034099998883903027,-0.36941999197006226
6449.49035771839,1131882.0,-0.08041000366210938,0.004089999943971634,0.004220000002533197,-0.3686400055885315
6449.491357490605,1131883.0,-0.05355000123381615,0.004679999779909849,0.0029100000392645597,-0.3707900047302246
6449.49235726282,1131884.0,-0.026319999247789383,-0.004769999999552965,-0.00014000000373926014,-0.37106001377105713
6449.493357035036,1131885.0,-0.0012600000482052565,-0.000859999970998615,-0.0016299999551847577,-0.3700999915599823
6449.494356807251,1131886.0,0.026410000398755074,0.008670000359416008,-0.002859999891370535,-0.3735800087451935
6449.495356579467,1131887.0,0.060109999030828476,0.00535999983549118,0.003220000071451068,-0.37248000502586365
6449.496356351681,1131888.0,0.09720999747514725,0.003220000071451068,0.00418000016361475,-0.37330999970436096
6449.497356123897,1131889.0,0.1370999962091446,0.007180000189691782,0.008310000412166119,-0.3746800124645233
6449.498355896112,1131890.0,0.17941999435424805,0.00913000013679266,0.004769999999552965,-0.3739500045776367
6449.499355668328,1131891.0,0.22120000422000885,0.004900000058114529,-0.0007699999841861427,-0.37669000029563904
6449.500355440543,1131892.0,0.25534000992774963,0.005590000189840794,-0.0013200000394135714,-0.37650999426841736
6449.501355212758,1131893.0,0.2747499942779541,0.0019099999917671084,-0.0016799999866634607,-0.37536999583244324
6449.502354984973,1131894.0,0.28005000948905945,-0.0024999999441206455,-0.004900000058114529,-0.37926000356674194
6449.503354757188,1131895.0,0.2763200104236603,-0.004360000137239695,-0.0010900000343099236,-0.378710001707077
6449.504354529404,1131896.0,0.2753300070762634,-0.00494999997317791,-0.002589999930933118,-0.3783000111579895
6449.505354301619,1131897.0,0.2796899974346161,-0.006039999891072512,-0.0035000001080334187,-0.3794899880886078
6449.506354073835,1131898.0,0.29262998700141907,-0.009809999726712704,-0.000859999970998615,-0.3783400058746338
6449.507353846049,1131899.0,0.3121199905872345,-0.004040000028908253,0.0028200000524520874,-0.38155001401901245
6449.508353618265,1131900.0,0.3260500133037567,-0.00031999999191612005,9.000000136438757e-05,-0.3793500065803528
6449.50935339048,1131901.0,0.3333300054073334,0.001180000021122396,0.00031999999191612005,-0.38374000787734985
6449.5103531626955,1131902.0,0.3389900028705597,0.0018599999602884054,0.00031999999191612005,-0.3817700147628784
6449.511352934911,1131903.0,0.3411400020122528,0.0,-0.00267999991774559,-0.38429000973701477
6449.5123527071255,1131904.0,0.34248998761177063,0.004540000110864639,0.0014100000262260437,-0.38457000255584717
6449.513352479341,1131905.0,0.33737000823020935,0.0033599999733269215,-0.0029100000392645597,-0.3830600082874298
6449.514352251556,1131906.0,0.3239800035953522,0.0015899999998509884,-0.0037700000684708357,-0.38547998666763306
6449.515352023772,1131907.0,0.3113200068473816,-0.001500000013038516,-0.0022299999836832285,-0.38488999009132385
6449.516351795987,1131908.0,0.30619001388549805,0.00031999999191612005,-0.001500000013038516,-0.38749998807907104
6449.517351568203,1131909.0,0.3093799948692322,-0.0033199999015778303,0.00014000000373926014,-0.3868100047111511
6449.518351340417,1131910.0,0.31527000665664673,0.0064500002190470695,0.00031999999191612005,-0.38923999667167664
6449.519351112633,1131911.0,0.3158999979496002,0.003220000071451068,0.00031999999191612005,-0.38947001099586487
6449.520350884848,1131912.0,0.3078100085258484,0.001769999973475933,0.0017300000181421638,-0.38822999596595764
6449.5213506570635,1131913.0,0.2945599853992462,-0.0007699999841861427,0.00031999999191612005,-0.38736000657081604
6449.522350429279,1131914.0,0.2697199881076813,0.00031999999191612005,0.00031999999191612005,-0.3884100019931793
6449.5233502014935,1131915.0,0.23360000550746918,0.007860000245273113,-0.005489999894052744,-0.39034000039100647
6449.524349973709,1131916.0,0.19657999277114868,-0.0011399999493733048,0.0013599999947473407,-0.3917500078678131
6449.525349745924,1131917.0,0.1602800041437149,0.0024999999441206455,-0.001820000004954636,-0.3920300006866455
6449.52634951814,1131918.0,0.1272200047969818,-0.002589999930933118,-0.0015399999683722854,-0.3938100039958954
6449.527349290355,1131919.0,0.10232999920845032,-0.0011399999493733048,-0.003949999809265137,-0.3911600112915039
6449.528349062571,1131920.0,0.08422999829053879,-0.00044999999227002263,0.0024999999441206455,-0.39239999651908875
6449.529348834785,1131921.0,0.06774000078439713,0.0024500000290572643,0.00031999999191612005,-0.39473000168800354
6449.530348607001,1131922.0,0.05067000165581703,-0.0009500000160187483,0.0022700000554323196,-0.394679993391037
6449.531348379216,1131923.0,0.03720000013709068,-0.0006399999838322401,0.0027699999045580626,-0.3953700065612793
6449.5323481514315,1131924.0,0.023089999333024025,-0.0037700000684708357,0.002409999957308173,-0.39574000239372253
6449.533347923647,1131925.0,0.00773000018671155,-0.0016799999866634607,0.0033199999015778303,-0.396699994802475
6449.5343476958615,1131926.0,-0.0028800000436604023,-0.0011399999493733048,0.003220000071451068,-0.3951900005340576
6449.535347468077,1131927.0,-0.008220000192523003,0.00031999999191612005,0.00014000000373926014,-0.399260014295578
6449.536347240292,1131928.0,-0.013120000250637531,-0.00014000000373926014,-0.000859999970998615,-0.39673998951911926
6449.537347012508,1131929.0,-0.01671000011265278,-0.004129999782890081,-0.000539999979082495,-0.4008199870586395
6449.538346784723,1131930.0,-0.017430000007152557,-0.0012700000079348683,0.0019099999917671084,-0.39757001399993896
6449.539346556938,1131931.0,-0.017069999128580093,0.0051299999468028545,-0.00014000000373926014,-0.40062999725341797
6449.540346329153,1131932.0,-0.017969999462366104,0.002859999891370535,-0.0034099998883903027,-0.4016000032424927
6449.541346101369,1131933.0,-0.021159999072551727,0.0035000001080334187,-0.005489999894052744,-0.4000900089740753
6449.542345873584,1131934.0,-0.02597000077366829,0.00031999999191612005,-0.0034099998883903027,-0.4022800028324127
6449.5433456457995,1131935.0,-0.03117999993264675,0.004720000084489584,-0.005489999894052744,-0.40365999937057495
6449.544345418015,1131936.0,-0.040789999067783356,0.00949000008404255,-0.00418000016361475,-0.4025599956512451
6449.545345190229,1131937.0,-0.05057999864220619,0.0028200000524520874,-0.0010400000028312206,-0.40544000267982483
6449.546344962445,1131938.0,-0.054179999977350235,0.00031999999191612005,0.0010900000343099236,-0.4028800129890442
6449.54734473466,1131939.0,-0.054269999265670776,-0.0019099999917671084,0.0016799999866634607,-0.4057599902153015
6449.548344506876,1131940.0,-0.05345999822020531,-0.004769999999552965,0.0027699999045580626,-0.40452998876571655
6449.549344279091,1131941.0,-0.05282999947667122,0.0027199999894946814,-0.002589999930933118,-0.4064899981021881
6449.550344051306,1131942.0,-0.05067000165581703,0.003220000071451068,-0.004410000052303076,-0.40672001242637634
6449.551343823521,1131943.0,-0.04797999933362007,0.00031999999191612005,-0.0045900000259280205,-0.4095599949359894
6449.552343595737,1131944.0,-0.04690000042319298,-0.004089999943971634,-0.002589999930933118,-0.4076800048351288
6449.553343367952,1131945.0,-0.04428999871015549,-0.004900000058114529,0.005489999894052744,-0.4092400074005127
6449.5543431401675,1131946.0,-0.04438000172376633,-0.0022299999836832285,0.004679999779909849,-0.4070900082588196
6449.555342912383,1131947.0,-0.04771000146865845,-0.0033199999015778303,0.002630000002682209,-0.4116699993610382
6449.556342684597,1131948.0,-0.049240000545978546,0.003719999920576811,0.003000000026077032,-0.4118500053882599
6449.557342456813,1131949.0,-0.046810001134872437,0.010130000300705433,0.004679999779909849,-0.41290000081062317
6449.558342229028,1131950.0,-0.04061000049114227,0.016209999099373817,-0.00041000000783242285,-0.4097900092601776
6449.559342001244,1131951.0,-0.035760000348091125,0.018300000578165054,-0.005539999809116125,-0.4125399887561798
6449.560341773459,1131952.0,-0.03539999946951866,0.00686000008136034,-0.00418000016361475,-0.41161999106407166
6449.561341545674,1131953.0,-0.04024999961256981,-0.0009500000160187483,-0.0017300000181421638,-0.414139986038208
6449.562341317889,1131954.0,-0.04690000042319298,-0.006399999838322401,-0.004129999782890081,-0.41422998905181885
6449.563341090105,1131955.0,-0.05277999863028526,-0.006089999806135893,0.0018599999602884054,-0.4154199957847595
6449.56434086232,1131956.0,-0.0568699985742569,-0.00839999970048666,0.004679999779909849,-0.41578999161720276
6449.5653406345355,1131957.0,-0.0628499984741211,-0.01875999942421913,-0.00041000000783242285,-0.4144099950790405
6449.566340406751,1131958.0,-0.0674699991941452,-0.01793999969959259,-0.0013599999947473407,-0.4170700013637543
6449.567340178965,1131959.0,-0.0666700005531311,-0.00839999970048666,-0.001769999973475933,-0.41405001282691956
6449.568339951181,1131960.0,-0.06406000256538391,-0.004310000222176313,0.0028200000524520874,-0.41666001081466675
6449.569339723396,1131961.0,-0.0636100023984909,-0.0014100000262260437,0.0016799999866634607,-0.4155600070953369
6449.570339495612,1131962.0,-0.06298000365495682,0.002950000111013651,0.003000000026077032,-0.41721001267433167
6449.571339267827,1131963.0,-0.05948000028729439,-0.002589999930933118,0.0021299999207258224,-0.41771000623703003
6449.572339040042,1131964.0,-0.0573199987411499,-0.0007300000288523734,0.0014100000262260437,-0.41866999864578247
6449.573338812257,1131965.0,-0.055479999631643295,0.00031999999191612005,-0.002859999891370535,-0.4192200005054474
6449.574338584473,1131966.0,-0.05552000179886818,0.006130000110715628,-0.0036800000816583633,-0.4176200032234192
6449.575338356688,1131967.0,-0.0545400008559227,-0.0011399999493733048,0.0014100000262260437,-0.421099990606308
6449.576338128903,1131968.0,-0.04887999966740608,0.009399999864399433,0.00535999983549118,-0.4219200015068054
6449.577337901118,1131969.0,-0.03971000015735626,0.01140000019222498,0.006630000192672014,-0.41826000809669495
6449.578337673333,1131970.0,-0.03136000037193298,0.014349999837577343,0.004860000219196081,-0.4220600128173828
6449.579337445549,1131971.0,-0.027310000732541084,0.018710000440478325,-0.0011399999493733048,-0.4195399880409241
6449.580337217764,1131972.0,-0.023989999666810036,0.016979999840259552,-0.00014000000373926014,-0.4232499897480011
6449.58133698998,1131973.0,-0.023360000923275948,0.006039999891072512,-0.0063599999994039536,-0.4229699969291687
6449.582336762195,1131974.0,-0.024620000272989273,-0.006539999973028898,-0.007670000195503235,-0.4203200042247772
6449.58333653441,1131975.0,-0.028839999809861183,-0.007899999618530273,0.00031999999191612005,-0.4226999878883362
6449.584336306625,1131976.0,-0.03297000005841255,-0.004860000219196081,0.0024999999441206455,-0.4247100055217743
6449.585336078841,1131977.0,-0.03971000015735626,-0.009220000356435776,-4.999999873689376e-05,-0.4243899881839752
6449.586335851056,1131978.0,-0.04910000041127205,-0.011309999972581863,-0.002589999930933118,-0.42375001311302185
6449.587335623271,1131979.0,-0.05785999819636345,-0.013899999670684338,-0.003860000055283308,-0.42489999532699585
6449.588335395486,1131980.0,-0.060019999742507935,-0.015939999371767044,0.004269999917596579,-0.42603999376296997
6449.589335167701,1131981.0,-0.057679999619722366,-0.010219999589025974,0.005040000192821026,-0.42577001452445984
6449.590334939917,1131982.0,-0.054090000689029694,0.00031999999191612005,0.004360000137239695,-0.4265899956226349
6449.591334712132,1131983.0,-0.051750000566244125,0.005040000192821026,0.001449999981559813,-0.4278700053691864
6449.592334484348,1131984.0,-0.05090000107884407,0.004040000028908253,-0.0011399999493733048,-0.4259899854660034
6449.593334256563,1131985.0,-0.052650000900030136,0.005400000140070915,0.00018000000272877514,-0.42998000979423523
6449.594334028778,1131986.0,-0.05332000181078911,-0.00031999999191612005,0.0071299998089671135,-0.4287000000476837
6449.595333800993,1131987.0,-0.05620000138878822,0.007540000136941671,-0.002090000081807375,-0.4274600148200989
6449.5963335732085,1131988.0,-0.0553399994969368,0.020659999921917915,-0.0014100000262260437,-0.4280099868774414
6449.597333345424,1131989.0,-0.04941999912261963,0.016300000250339508,0.00031999999191612005,-0.4311699867248535
6449.598333117639,1131990.0,-0.04177999868988991,0.009039999917149544,-0.00014000000373926014,-0.4316299855709076
6449.599332889854,1131991.0,-0.03522000089287758,-0.0009500000160187483,-0.00418000016361475,-0.43314000964164734
6449.600332662069,1131992.0,-0.032519999891519547,-0.0072200000286102295,0.000859999970998615,-0.43184998631477356
6449.601332434285,1131993.0,-0.033240001648664474,-0.0017300000181421638,-0.003860000055283308,-0.4312100112438202
6449.6023322065,1131994.0,-0.037470001727342606,-0.0031799999997019768,-0.0011399999493733048,-0.43171998858451843
6449.603331978716,1131995.0,-0.044199999421834946,-0.011669999919831753,0.002589999930933118,-0.43533000349998474
6449.60433175093,1131996.0,-0.05201999843120575,-0.00795000046491623,-0.004040000028908253,-0.4366599917411804
6449.605331523146,1131997.0,-0.0587100014090538,-0.0006399999838322401,0.0045900000259280205,-0.4356499910354614
6449.606331295361,1131998.0,-0.06046999990940094,0.0010000000474974513,0.0018599999602884054,-0.4380800127983093
6449.6073310675765,1131999.0,-0.06294000148773193,-0.0002300000051036477,0.0015399999683722854,-0.4362899959087372
6449.608330839792,1132000.0,-0.06159000098705292,-0.0014100000262260437,0.001769999973475933,-0.43514999747276306
6449.609330612007,1132001.0,-0.05570000037550926,-0.000590000010561198,-0.0003600000054575503,-0.4391300082206726
6449.610330384222,1132002.0,-0.05121000111103058,-0.001180000021122396,-0.002589999930933118,-0.4399600028991699
6449.611330156437,1132003.0,-0.052650000900030136,-0.0030400000978261232,0.000910000002477318,-0.43863001465797424
6449.612329928653,1132004.0,-0.0530100017786026,0.003220000071451068,0.00267999991774559,-0.4388599991798401
6449.613329700868,1132005.0,-0.050939999520778656,0.008489999920129776,-0.004999999888241291,-0.4422000050544739
6449.614329473084,1132006.0,-0.04617999866604805,0.006089999806135893,-0.001449999981559813,-0.4418799877166748
6449.615329245298,1132007.0,-0.04258999973535538,0.002859999891370535,0.0030400000978261232,-0.44095999002456665
6449.616329017514,1132008.0,-0.038589999079704285,0.004809999838471413,0.002360000042244792,-0.44370999932289124
6449.617328789729,1132009.0,-0.03279000148177147,0.006130000110715628,0.002409999957308173,-0.44472000002861023
6449.6183285619445,1132010.0,-0.029600000008940697,0.003949999809265137,0.00018000000272877514,-0.44325000047683716
6449.61932833416,1132011.0,-0.02493000030517578,-0.0016299999551847577,0.002859999891370535,-0.4424700140953064
6449.620328106375,1132012.0,-0.02012999914586544,-0.0064500002190470695,0.0016799999866634607,-0.44727998971939087
6449.62132787859,1132013.0,-0.017969999462366104,-0.010350000113248825,-0.002319999970495701,-0.44668999314308167
6449.622327650805,1132014.0,-0.023000000044703484,-0.00839999970048666,-0.004089999943971634,-0.44617998600006104
6449.623327423021,1132015.0,-0.032340001314878464,-0.005489999894052744,0.00031999999191612005,-0.44571998715400696
6449.624327195236,1132016.0,-0.041370000690221786,-0.003809999907389283,0.0021299999207258224,-0.4479199945926666
6449.625326967452,1132017.0,-0.0494999997317791,-0.00913000013679266,0.000910000002477318,-0.44815000891685486
6449.626326739666,1132018.0,-0.05660000070929527,-0.009580000303685665,0.0021299999207258224,-0.44714000821113586
6449.627326511882,1132019.0,-0.057590000331401825,0.006130000110715628,-0.0011399999493733048,-0.45034998655319214
6449.628326284097,1132020.0,-0.055879998952150345,0.01104000024497509,-0.004540000110864639,-0.4508500099182129
6449.6293260563125,1132021.0,-0.054990001022815704,0.016119999811053276,0.00031999999191612005,-0.44828999042510986
6449.630325828528,1132022.0,-0.05282999947667122,0.015850000083446503,-0.0007699999841861427,-0.45107999444007874
6449.631325600743,1132023.0,-0.04806999862194061,0.005539999809116125,0.004679999779909849,-0.4509899914264679
6449.632325372958,1132024.0,-0.04569000005722046,-0.003000000026077032,0.0027199999894946814,-0.45131000876426697
6449.633325145173,1132025.0,-0.04977000132203102,-0.0030900000128895044,0.0010400000028312206,-0.45208999514579773
6449.634324917389,1132026.0,-0.05211000144481659,-0.0021800000686198473,-0.0016799999866634607,-0.45107999444007874
6449.635324689604,1132027.0,-0.04816000163555145,0.0016299999551847577,-0.0013200000394135714,-0.4519999921321869
6449.63632446182,1132028.0,-0.04114999994635582,0.005400000140070915,0.003220000071451068,-0.45377999544143677
6449.637324234034,1132029.0,-0.035760000348091125,0.010259999893605709,-0.0027699999045580626,-0.4546099901199341
6449.63832400625,1132030.0,-0.03127000108361244,0.010850000195205212,-0.0031300000846385956,-0.4561600089073181
6449.639323778465,1132031.0,-0.028119999915361404,0.001769999973475933,0.0028200000524520874,-0.4525499939918518
6449.6403235506805,1132032.0,-0.028349999338388443,-0.0005000000237487257,-4.999999873689376e-05,-0.45451000332832336
6449.641323322896,1132033.0,-0.02694999985396862,-0.00203999993391335,-0.003909999970346689,-0.45671001076698303
6449.64232309511,1132034.0,-0.030910000205039978,-0.008170000277459621,-0.002589999930933118,-0.4573499858379364
6449.643322867326,1132035.0,-0.0399399995803833,-0.010900000110268593,-0.0033199999015778303,-0.45671001076698303
6449.644322639541,1132036.0,-0.04600000008940697,-0.009850000031292439,0.00031999999191612005,-0.4574899971485138
6449.645322411757,1132037.0,-0.05048999935388565,-0.006039999891072512,0.0029100000392645597,-0.4553399980068207
6449.646322183972,1132038.0,-0.05861999839544296,-0.0062699997797608376,0.0010400000028312206,-0.46042001247406006
6449.647321956188,1132039.0,-0.06689000129699707,-0.002630000002682209,-0.0010400000028312206,-0.45969000458717346
6449.648321728402,1132040.0,-0.07224000245332718,-0.00494999997317791,-0.004040000028908253,-0.4573099911212921
6449.649321500618,1132041.0,-0.07474999874830246,-0.004410000052303076,0.00031999999191612005,-0.45969000458717346
6449.650321272833,1132042.0,-0.07857000082731247,0.001180000021122396,0.0020000000949949026,-0.46074000000953674
6449.6513210450485,1132043.0,-0.0778999999165535,0.01071999967098236,0.00031999999191612005,-0.4586299955844879
6449.652320817264,1132044.0,-0.07772000133991241,0.002409999957308173,-0.00267999991774559,-0.4636699855327606
6449.653320589478,1132045.0,-0.07817000150680542,-0.00949000008404255,0.004809999838471413,-0.4641300141811371
6449.654320361694,1132046.0,-0.07780999690294266,0.00031999999191612005,0.002950000111013651,-0.4608300030231476
6449.655320133909,1132047.0,-0.07519999891519547,0.017030000686645508,-0.00014000000373926014,-0.4638499915599823
6449.656319906125,1132048.0,-0.06869000196456909,0.013260000385344028,0.00031999999191612005,-0.4619799852371216
6449.65731967834,1132049.0,-0.05875999853014946,0.016580000519752502,0.0010400000028312206,-0.46445000171661377
6449.658319450556,1132050.0,-0.050850000232458115,0.010850000195205212,-0.0002699999895412475,-0.465039998292923
6449.65931922277,1132051.0,-0.04222999885678291,0.006769999861717224,-0.0016799999866634607,-0.4645799994468689
6449.660318994986,1132052.0,-0.03886000066995621,0.0034099998883903027,-0.005900000222027302,-0.46608999371528625
6449.661318767201,1132053.0,-0.04061000049114227,-4.999999873689376e-05,-0.0020000000949949026,-0.4671899974346161
6449.662318539416,1132054.0,-0.04569000005722046,-0.013120000250637531,0.0024999999441206455,-0.46463000774383545
6449.663318311632,1132055.0,-0.05641999840736389,-0.015259999781847,0.00031999999191612005,-0.469760000705719
6449.664318083846,1132056.0,-0.06954000145196915,-0.00880999956279993,-0.004220000002533197,-0.46911999583244324
6449.665317856062,1132057.0,-0.07887999713420868,-0.00989999994635582,-0.0036800000816583633,-0.4692099988460541
6449.666317628277,1132058.0,-0.0817599967122078,-0.005179999861866236,-0.005489999894052744,-0.4684300124645233
6449.667317400493,1132059.0,-0.07942000031471252,0.0010400000028312206,-0.00031999999191612005,-0.4701699912548065
6449.668317172708,1132060.0,-0.0759200006723404,0.003220000071451068,0.004310000222176313,-0.4684300124645233
6449.669316944923,1132061.0,-0.07056999951601028,0.002409999957308173,0.00203999993391335,-0.4723699986934662
6449.670316717138,1132062.0,-0.0636100023984909,0.006949999835342169,-0.00041000000783242285,-0.47185999155044556
6449.671316489354,1132063.0,-0.060019999742507935,0.0031300000846385956,0.0002699999895412475,-0.4749299883842468
6449.672316261569,1132064.0,-0.05795000120997429,0.004360000137239695,0.0035000001080334187,-0.47374001145362854
6449.673316033784,1132065.0,-0.056689999997615814,-0.002589999930933118,-0.002589999930933118,-0.47154000401496887
6449.674315806,1132066.0,-0.05785999819636345,-0.0027199999894946814,0.000859999970998615,-0.47374001145362854
6449.675315578214,1132067.0,-0.0574599988758564,0.001230000052601099,-0.0013200000394135714,-0.4745599925518036
6449.67631535043,1132068.0,-0.05381999909877777,0.008949999697506428,0.0031799999997019768,-0.47574999928474426
6449.677315122645,1132069.0,-0.04879000037908554,0.003590000094845891,0.00203999993391335,-0.47429001331329346
6449.678314894861,1132070.0,-0.04383999854326248,0.0031799999997019768,0.00031999999191612005,-0.47721999883651733
6449.679314667076,1132071.0,-0.03889999911189079,0.007449999917298555,-0.0015399999683722854,-0.47822999954223633
6449.680314439291,1132072.0,-0.0364300012588501,0.00535999983549118,-0.0011399999493733048,-0.4761199951171875
6449.681314211506,1132073.0,-0.036660000681877136,0.0010400000028312206,-0.0013200000394135714,-0.4786800146102905
6449.6823139837215,1132074.0,-0.039799999445676804,-0.0015899999998509884,0.0016799999866634607,-0.4796000123023987
6449.683313755937,1132075.0,-0.046720001846551895,-0.010400000028312206,-0.003539999946951866,-0.4765799939632416
6449.684313528152,1132076.0,-0.04958999902009964,-0.01607999950647354,-0.004269999917596579,-0.4810200035572052
6449.685313300368,1132077.0,-0.05201999843120575,-0.003449999960139394,0.00031999999191612005,-0.4802899956703186
6449.686313072582,1132078.0,-0.051660001277923584,-0.005040000192821026,0.00031999999191612005,-0.48137998580932617
6449.687312844798,1132079.0,-0.0494999997317791,0.008310000412166119,-0.00267999991774559,-0.48271000385284424
6449.688312617013,1132080.0,-0.048020001500844955,0.004310000222176313,-0.0011399999493733048,-0.4791400134563446
6449.689312389229,1132081.0,-0.048250000923871994,0.004089999943971634,0.0010000000474974513,-0.48078998923301697
6449.690312161444,1132082.0,-0.05076000094413757,-0.0037700000684708357,-0.002859999891370535,-0.4830799996852875
6449.691311933659,1132083.0,-0.052379999309778214,0.0007300000288523734,0.0027199999894946814,-0.4803299903869629
6449.692311705874,1132084.0,-0.054579999297857285,-0.0016799999866634607,0.00203999993391335,-0.4847300052642822
6449.6933114780895,1132085.0,-0.05211000144481659,0.006130000110715628,-0.0007699999841861427,-0.4831700026988983
6449.694311250305,1132086.0,-0.04932999983429909,0.004310000222176313,-0.0019099999917671084,-0.48284998536109924
6449.69531102252,1132087.0,-0.04667000100016594,0.0014100000262260437,0.002589999930933118,-0.4854600131511688
6449.696310794736,1132088.0,-0.04253999888896942,0.004999999888241291,0.002630000002682209,-0.4878399968147278
6449.69731056695,1132089.0,-0.036070000380277634,0.005590000189840794,-0.002589999930933118,-0.4830799996852875
6449.698310339166,1132090.0,-0.03117999993264675,0.004310000222176313,-0.002409999957308173,-0.4856399893760681
6449.699310111381,1132091.0,-0.028389999642968178,0.002409999957308173,0.0010400000028312206,-0.4879299998283386
6449.700309883597,1132092.0,-0.024080000817775726,-0.0013599999947473407,-0.000859999970998615,-0.4889400005340576
6449.701309655812,1132093.0,-0.02425999939441681,-0.004720000084489584,-0.0028200000524520874,-0.48600998520851135
6449.702309428027,1132094.0,-0.02727000042796135,-0.001500000013038516,-0.00203999993391335,-0.48600998520851135
6449.703309200242,1132095.0,-0.029330000281333923,-0.0033599999733269215,-0.002090000081807375,-0.48906999826431274
6449.7043089724575,1132096.0,-0.03181000053882599,-0.002630000002682209,0.003220000071451068,-0.48921000957489014
6449.705308744673,1132097.0,-0.03971000015735626,-0.0011399999493733048,-0.0003600000054575503,-0.486050009727478
6449.706308516888,1132098.0,-0.04362000152468681,0.004220000002533197,-0.004220000002533197,-0.488429993391037
6449.707308289103,1132099.0,-0.044429998844861984,-0.0009500000160187483,0.003590000094845891,-0.4918699860572815
6449.708308061318,1132100.0,-0.04470000043511391,-0.0022299999836832285,0.004310000222176313,-0.4918699860572815
6449.709307833534,1132101.0,-0.04388999938964844,0.005770000163465738,-0.003860000055283308,-0.4918699860572815
6449.710307605749,1132102.0,-0.040389999747276306,0.0020000000949949026,-0.0012700000079348683,-0.4889400005340576
6449.711307377965,1132103.0,-0.03633999824523926,-0.0035000001080334187,0.0019099999917671084,-0.4918699860572815
6449.71230715018,1132104.0,-0.03593999892473221,-0.0010900000343099236,0.005900000222027302,-0.49277999997138977
6449.713306922395,1132105.0,-0.03198999911546707,-0.0033599999733269215,-0.0036800000816583633,-0.4898500144481659
6449.71430669461,1132106.0,-0.024119999259710312,-0.002630000002682209,-0.004629999864846468,-0.4936999976634979
6449.7153064668255,1132107.0,-0.018689999356865883,-0.004410000052303076,0.0021299999207258224,-0.4936099946498871
6449.716306239041,1132108.0,-0.013299999758601189,0.006039999891072512,-0.0007699999841861427,-0.494159996509552
6449.717306011256,1132109.0,-0.007499999832361937,0.010490000247955322,-0.0006399999838322401,-0.4912700057029724
6449.718305783471,1132110.0,-0.0037700000684708357,0.011939999647438526,-0.000590000010561198,-0.49424999952316284
6449.719305555686,1132111.0,-0.002469999948516488,0.007040000054985285,-0.0006399999838322401,-0.4949299991130829
6449.720305327902,1132112.0,-0.006649999879300594,0.00031999999191612005,0.003220000071451068,-0.49191001057624817
6449.721305100117,1132113.0,-0.015449999831616879,0.0013599999947473407,-0.003000000026077032,-0.49698999524116516
6449.722304872333,1132114.0,-0.02281999960541725,-0.001500000013038516,-0.007770000025629997,-0.4986000061035156
6449.723304644548,1132115.0,-0.03109000064432621,-0.004310000222176313,-0.0027699999045580626,-0.4936999976634979
6449.724304416763,1132116.0,-0.03711000084877014,-0.012849999591708183,0.004809999838471413,-0.49437999725341797
6449.725304188978,1132117.0,-0.043310001492500305,-0.005489999894052744,-0.0012700000079348683,-0.4969500005245209
6449.7263039611935,1132118.0,-0.04797999933362007,-0.007309999782592058,-0.003220000071451068,-0.49827998876571655
6449.727303733409,1132119.0,-0.05121000111103058,-0.004220000002533197,0.0022299999836832285,-0.4977700114250183
6449.728303505624,1132120.0,-0.05183999985456467,-0.004310000222176313,0.00031999999191612005,-0.4989199936389923
6449.729303277839,1132121.0,-0.05211000144481659,0.003220000071451068,0.0020000000949949026,-0.4994199872016907
6449.730303050054,1132122.0,-0.051259998232126236,-0.00041000000783242285,0.0010400000028312206,-0.4989199936389923
6449.73130282227,1132123.0,-0.05012999847531319,0.0018599999602884054,-0.0011399999493733048,-0.4963099956512451
6449.732302594485,1132124.0,-0.04690000042319298,0.005270000081509352,-0.0027199999894946814,-0.4972200095653534
6449.733302366701,1132125.0,-0.043129999190568924,-0.0007699999841861427,-0.0021299999207258224,-0.49772998690605164
6449.734302138915,1132126.0,-0.041600000113248825,-0.002630000002682209,-0.0002300000051036477,-0.4989199936389923
6449.735301911131,1132127.0,-0.036570001393556595,-0.0034099998883903027,0.003449999960139394,-0.5018500089645386
6449.736301683346,1132128.0,-0.03158000111579895,0.0063599999994039536,-0.0031799999997019768,-0.5030400156974792
6449.7373014555615,1132129.0,-0.025520000606775284,0.01775999926030636,0.0020000000949949026,-0.4993300139904022
6449.738301227777,1132130.0,-0.01800999976694584,0.01331000030040741,-0.0021299999207258224,-0.5000200271606445
6449.739300999992,1132131.0,-0.011409999802708626,0.00535999983549118,0.00031999999191612005,-0.5029000043869019
6449.740300772207,1132132.0,-0.008980000391602516,0.004220000002533197,0.0007300000288523734,-0.5039499998092651
6449.741300544422,1132133.0,-0.008980000391602516,-0.004900000058114529,0.0013200000394135714,-0.5026699900627136
6449.742300316638,1132134.0,-0.010420000180602074,-0.008449999615550041,0.00018000000272877514,-0.5034000277519226
6449.743300088853,1132135.0,-0.0147299999371171,-0.00803999975323677,-0.004129999782890081,-0.5052300095558167
6449.744299861069,1132136.0,-0.022280000150203705,-0.013489999808371067,-0.002589999930933118,-0.5025299787521362
6449.745299633283,1132137.0,-0.03162999823689461,-0.010759999975562096,0.0002300000051036477,-0.504360020160675
6449.746299405499,1132138.0,-0.04061000049114227,-0.004220000002533197,0.001230000052601099,-0.5056899785995483
6449.747299177714,1132139.0,-0.04527999833226204,-0.003719999920576811,-0.0028200000524520874,-0.5040900111198425
6449.748298949929,1132140.0,-0.04600000008940697,0.007269999943673611,-0.0022299999836832285,-0.5036299824714661
6449.749298722145,1132141.0,-0.04357999935746193,0.011760000139474869,0.00031999999191612005,-0.5077099800109863
6449.75029849436,1132142.0,-0.03822999820113182,0.00749000022187829,-0.00014000000373926014,-0.5067399740219116
6449.751298266575,1132143.0,-0.03584999963641167,0.01775999926030636,-0.00571999978274107,-0.5070599913597107
6449.75229803879,1132144.0,-0.030729999765753746,-0.0063599999994039536,0.002319999970495701,-0.5043200254440308
6449.753297811006,1132145.0,-0.025699999183416367,-0.0011399999493733048,0.006630000192672014,-0.5054200291633606
6449.754297583221,1132146.0,-0.025699999183416367,-0.0002300000051036477,0.0030400000978261232,-0.5062000155448914
6449.755297355437,1132147.0,-0.022690000012516975,0.003000000026077032,0.002319999970495701,-0.5079299807548523
6449.756297127651,1132148.0,-0.017430000007152557,-0.0018599999602884054,-0.00018000000272877514,-0.509119987487793
6449.757296899867,1132149.0,-0.011230000294744968,0.0002699999895412475,-0.0020000000949949026,-0.5100399851799011
6449.758296672082,1132150.0,-0.007009999826550484,0.002859999891370535,0.00014000000373926014,-0.5064200162887573
6449.759296444297,1132151.0,-0.0035000001080334187,0.003220000071451068,0.00267999991774559,-0.5094500184059143
6449.760296216513,1132152.0,-0.00279000005684793,0.006719999946653843,-0.001769999973475933,-0.5104100108146667
6449.761295988728,1132153.0,-0.005210000090301037,0.00267999991774559,-0.004040000028908253,-0.5113700032234192
6449.762295760943,1132154.0,-0.009340000338852406,0.0010400000028312206,-0.003269999986514449,-0.5100399851799011
6449.763295533158,1132155.0,-0.01730000041425228,-0.0019499999471008778,-0.004769999999552965,-0.5099499821662903
6449.764295305374,1132156.0,-0.023269999772310257,-0.005489999894052744,-0.0018599999602884054,-0.5116000175476074
6449.765295077589,1132157.0,-0.02694999985396862,-0.005489999894052744,-0.004220000002533197,-0.5114099979400635
6449.766294849805,1132158.0,-0.03248000144958496,-0.008539999835193157,0.0002699999895412475,-0.5101799964904785
6449.767294622019,1132159.0,-0.03612000122666359,-0.006579999811947346,-0.0027199999894946814,-0.5142099857330322
6449.7682943942345,1132160.0,-0.03458999842405319,-0.003220000071451068,0.0031799999997019768,-0.5148000121116638
6449.76929416645,1132161.0,-0.03037000074982643,-0.001180000021122396,-0.0007699999841861427,-0.5149400234222412
6449.770293938665,1132162.0,-0.024890000000596046,0.00031999999191612005,-0.000590000010561198,-0.5110499858856201
6449.771293710881,1132163.0,-0.02215000055730343,-0.003809999907389283,0.003949999809265137,-0.5114099979400635
6449.772293483095,1132164.0,-0.023719999939203262,-0.00041000000783242285,-0.00267999991774559,-0.5122799873352051
6449.773293255311,1132165.0,-0.02785000018775463,0.0027699999045580626,0.005630000028759241,-0.5152999758720398
6449.774293027526,1132166.0,-0.030820000916719437,0.003220000071451068,0.006899999920278788,-0.517270028591156
6449.775292799742,1132167.0,-0.03297000005841255,-0.0030400000978261232,-0.0016799999866634607,-0.5136600136756897
6449.776292571957,1132168.0,-0.031539998948574066,0.0052200001664459705,-0.0002699999895412475,-0.516539990901947
6449.777292344173,1132169.0,-0.027310000732541084,0.003590000094845891,-0.0007699999841861427,-0.5146200060844421
6449.778292116387,1132170.0,-0.021700000390410423,0.0010400000028312206,0.001230000052601099,-0.5173599720001221
6449.7792918886025,1132171.0,-0.014910000376403332,-0.004220000002533197,0.001769999973475933,-0.5182300209999084
6449.780291660818,1132172.0,-0.011009999550879002,-0.000590000010561198,-0.003000000026077032,-0.5175899863243103
6449.781291433033,1132173.0,-0.011049999855458736,0.005400000140070915,-0.0019099999917671084,-0.5204300284385681
6449.782291205249,1132174.0,-0.014550000429153442,-0.0037700000684708357,0.007400000002235174,-0.5167700052261353
6449.783290977463,1132175.0,-0.023719999939203262,0.002589999930933118,-0.0017300000181421638,-0.5197399854660034
6449.784290749679,1132176.0,-0.03359999880194664,0.006089999806135893,-0.005630000028759241,-0.5166299939155579
6449.785290521894,1132177.0,-0.043219998478889465,-0.002950000111013651,0.003719999920576811,-0.5215299725532532
6449.78629029411,1132178.0,-0.051350001245737076,0.0037700000684708357,0.004679999779909849,-0.5213900208473206
6449.787290066325,1132179.0,-0.05623999983072281,-0.00031999999191612005,-0.004410000052303076,-0.5212600231170654
6449.788289838541,1132180.0,-0.06046999990940094,-0.0031300000846385956,-0.00418000016361475,-0.5222600102424622
6449.789289610755,1132181.0,-0.06266999989748001,-0.000859999970998615,0.00018000000272877514,-0.5192899703979492
6449.7902893829705,1132182.0,-0.06019999831914902,-0.003909999970346689,0.0017300000181421638,-0.5227699875831604
6449.791289155186,1132183.0,-0.05804000049829483,0.005630000028759241,0.000859999970998615,-0.5199300050735474
6449.792288927401,1132184.0,-0.055080000311136246,0.011939999647438526,-0.004629999864846468,-0.5229899883270264
6449.793288699617,1132185.0,-0.0514799989759922,0.0045900000259280205,0.00203999993391335,-0.5204300284385681
6449.794288471831,1132186.0,-0.0471699982881546,-0.0010400000028312206,-0.0015899999998509884,-0.5239999890327454
6449.795288244047,1132187.0,-0.04473999887704849,0.0009500000160187483,0.0012700000079348683,-0.522130012512207
6449.796288016262,1132188.0,-0.04042999818921089,-0.004769999999552965,0.001769999973475933,-0.5249199867248535
6449.797287788478,1132189.0,-0.03570999950170517,0.00535999983549118,-0.0009500000160187483,-0.5253300070762634
6449.798287560693,1132190.0,-0.031449999660253525,0.0002699999895412475,0.001769999973475933,-0.5241900086402893
6449.799287332908,1132191.0,-0.02597000077366829,-0.0072200000286102295,0.002319999970495701,-0.5273000001907349
6449.800287105123,1132192.0,-0.021379999816417694,-0.0006399999838322401,0.0010900000343099236,-0.5234100222587585
6449.8012868773385,1132193.0,-0.01761000044643879,-0.001180000021122396,-0.004040000028908253,-0.5266600251197815
6449.802286649554,1132194.0,-0.017249999567866325,0.005630000028759241,-0.004129999782890081,-0.5236799716949463
6449.803286421769,1132195.0,-0.02012999914586544,0.005270000081509352,0.00031999999191612005,-0.5280299782752991
6449.804286193985,1132196.0,-0.023229999467730522,4.999999873689376e-05,0.0021299999207258224,-0.5260199904441833
6449.805285966199,1132197.0,-0.029559999704360962,-0.005489999894052744,0.00031999999191612005,-0.5283100008964539
6449.806285738415,1132198.0,-0.039170000702142715,-0.0064500002190470695,0.005590000189840794,-0.5282099843025208
6449.80728551063,1132199.0,-0.04617999866604805,-0.005679999943822622,-0.0028200000524520874,-0.5293599963188171
6449.808285282846,1132200.0,-0.047210000455379486,0.004860000219196081,-0.005489999894052744,-0.5329700112342834
6449.809285055061,1132201.0,-0.04797999933362007,-0.003809999907389283,0.0007300000288523734,-0.5276200175285339
6449.810284827276,1132202.0,-0.045910000801086426,-0.007309999782592058,0.001230000052601099,-0.5317400097846985
6449.811284599491,1132203.0,-0.04106000065803528,0.0027699999045580626,-0.0044999998062849045,-0.5275300145149231
6449.8122843717065,1132204.0,-0.03720000013709068,-0.00494999997317791,0.0022700000554323196,-0.5318300127983093
6449.813284143922,1132205.0,-0.03369000181555748,-0.004040000028908253,0.0014100000262260437,-0.5333399772644043
6449.814283916137,1132206.0,-0.0301900003105402,-0.006490000057965517,-0.003539999946951866,-0.5295400023460388
6449.815283688353,1132207.0,-0.031539998948574066,0.00031999999191612005,-0.000859999970998615,-0.5315600037574768
6449.816283460567,1132208.0,-0.03136000037193298,0.007579999975860119,0.004679999779909849,-0.5303199887275696
6449.817283232783,1132209.0,-0.026319999247789383,0.02061999961733818,-0.002589999930933118,-0.534030020236969
6449.818283004998,1132210.0,-0.017249999567866325,0.013620000332593918,-0.00203999993391335,-0.5348100066184998
6449.819282777214,1132211.0,-0.008089999668300152,0.011219999752938747,-0.0017300000181421638,-0.5322399735450745
6449.820282549429,1132212.0,-0.003229999914765358,0.009039999917149544,0.004269999917596579,-0.5348100066184998
6449.821282321644,1132213.0,-0.0017999999690800905,-0.0006399999838322401,0.00031999999191612005,-0.5312299728393555
6449.822282093859,1132214.0,-0.006020000204443932,0.00203999993391335,-0.004040000028908253,-0.5345799922943115
6449.8232818660745,1132215.0,-0.015359999611973763,0.0002699999895412475,-0.002589999930933118,-0.5360900163650513
6449.82428163829,1132216.0,-0.022910000756382942,-0.002589999930933118,-0.003539999946951866,-0.5318800210952759
6449.825281410505,1132217.0,-0.02857000008225441,-0.013489999808371067,-0.0036800000816583633,-0.5354899764060974
6449.826281182721,1132218.0,-0.03288000077009201,-0.006180000025779009,0.0024999999441206455,-0.5350300073623657
6449.827280954935,1132219.0,-0.03602999821305275,-0.008449999615550041,9.000000136438757e-05,-0.534529983997345
6449.828280727151,1132220.0,-0.036660000681877136,-0.0062699997797608376,-0.0010400000028312206,-0.5358999967575073
6449.829280499366,1132221.0,-0.03612000122666359,-0.0011399999493733048,-0.0015399999683722854,-0.5380100011825562
6449.830280271582,1132222.0,-0.03338000178337097,-0.006579999811947346,0.001769999973475933,-0.533519983291626
6449.831280043797,1132223.0,-0.02735999971628189,-0.0010000000474974513,0.0008200000156648457,-0.5360900163650513
6449.832279816012,1132224.0,-0.019950000569224358,0.00031999999191612005,-0.000539999979082495,-0.5387399792671204
6449.833279588227,1132225.0,-0.012670000083744526,-0.003000000026077032,-4.999999873689376e-05,-0.5344399809837341
6449.834279360442,1132226.0,-0.00674000009894371,0.0010000000474974513,-0.0021800000686198473,-0.539110004901886
6449.835279132658,1132227.0,-0.0037299999967217445,0.002319999970495701,0.0022299999836832285,-0.5403000116348267
6449.836278904873,1132228.0,-0.0007200000109151006,0.008129999972879887,0.0024999999441206455,-0.5353099703788757
6449.837278677088,1132229.0,0.005750000011175871,0.011719999834895134,-0.006039999891072512,-0.5378699898719788
6449.838278449303,1132230.0,0.01384000014513731,0.011760000139474869,0.0010000000474974513,-0.5388799905776978
6449.839278221519,1132231.0,0.01779000088572502,0.004540000110864639,0.001230000052601099,-0.5402500033378601
6449.840277993734,1132232.0,0.016170000657439232,0.005630000028759241,-0.0027199999894946814,-0.5358099937438965
6449.84127776595,1132233.0,0.014240000396966934,-0.00014000000373926014,-0.006579999811947346,-0.5374600291252136
6449.842277538165,1132234.0,0.010599999688565731,-0.009990000165998936,0.0008200000156648457,-0.54066002368927
6449.84327731038,1132235.0,0.003590000094845891,-0.0034099998883903027,9.000000136438757e-05,-0.5417199730873108
6449.844277082595,1132236.0,-0.0036800000816583633,-0.007720000110566616,-0.00267999991774559,-0.5373200178146362
6449.84527685481,1132237.0,-0.009789999574422836,-0.00044999999227002263,-0.002360000042244792,-0.54093998670578
6449.846276627026,1132238.0,-0.01348000019788742,0.00031999999191612005,0.0014100000262260437,-0.5421800017356873
6449.847276399241,1132239.0,-0.018149999901652336,-0.0045900000259280205,0.004129999782890081,-0.5377799868583679
6449.848276171456,1132240.0,-0.021379999816417694,0.0037700000684708357,-0.0010400000028312206,-0.5387399792671204
6449.849275943671,1132241.0,-0.01940999925136566,0.002319999970495701,-0.0022299999836832285,-0.5402100086212158
6449.850275715887,1132242.0,-0.016939999535679817,0.00494999997317791,0.004449999891221523,-0.5425900220870972
6449.851275488102,1132243.0,-0.012760000303387642,0.003539999946951866,-0.0011399999493733048,-0.5432699918746948
6449.852275260318,1132244.0,-0.005880000069737434,-0.0022299999836832285,0.001769999973475933,-0.5425000190734863
6449.853275032533,1132245.0,-0.0018899999558925629,0.0008200000156648457,0.001180000021122396,-0.5446500182151794
6449.854274804748,1132246.0,-9.000000136438757e-05,0.0017300000181421638,-9.000000136438757e-05,-0.5417199730873108
6449.855274576963,1132247.0,-0.001930000027641654,-0.0007699999841861427,0.0027699999045580626,-0.539929986000061
6449.856274349178,1132248.0,0.0022499999031424522,0.002319999970495701,-0.0011399999493733048,-0.5425000190734863
6449.857274121394,1132249.0,0.008270000107586384,-0.002589999930933118,-0.003860000055283308,-0.5431399941444397
6449.858273893609,1132250.0,0.011099999770522118,0.0031300000846385956,0.00014000000373926014,-0.5443699955940247
6449.859273665824,1132251.0,0.01095999963581562,0.0031300000846385956,0.0031799999997019768,-0.5405300259590149
6449.860273438039,1132252.0,0.011009999550879002,-0.005489999894052744,-0.0021800000686198473,-0.5418499708175659
6449.861273210255,1132253.0,0.009519999846816063,-0.003000000026077032,-0.004040000028908253,-0.5457000136375427
6449.86227298247,1132254.0,0.006920000072568655,-0.007809999864548445,-0.00018000000272877514,-0.5446900129318237
6449.863272754686,1132255.0,0.0028800000436604023,-0.006949999835342169,-0.0017300000181421638,-0.5461099743843079
6449.8642725269,1132256.0,-0.0027000000700354576,-0.0007300000288523734,-0.004769999999552965,-0.5418999791145325
6449.8652722991155,1132257.0,-0.008089999668300152,0.002859999891370535,-0.0007699999841861427,-0.5435000061988831
6449.866272071331,1132258.0,-0.013659999705851078,0.004769999999552965,0.004449999891221523,-0.5449699759483337
6449.867271843546,1132259.0,-0.019770000129938126,0.007860000245273113,-0.0019099999917671084,-0.5462999939918518
6449.868271615762,1132260.0,-0.019899999722838402,0.00795000046491623,-9.000000136438757e-05,-0.5425400137901306
6449.869271387977,1132261.0,-0.01761000044643879,0.0071299998089671135,9.000000136438757e-05,-0.5460699796676636
6449.870271160192,1132262.0,-0.013030000030994415,0.000910000002477318,0.004220000002533197,-0.5475299954414368
6449.871270932407,1132263.0,-0.0083600003272295,0.002859999891370535,0.00203999993391335,-0.5471199750900269
6449.872270704623,1132264.0,-0.00646999990567565,-0.006769999861717224,0.0027199999894946814,-0.5494999885559082
6449.873270476838,1132265.0,-0.0069599999114871025,0.0013599999947473407,-0.004540000110864639,-0.5493599772453308
6449.874270249054,1132266.0,-0.00800000037997961,-4.999999873689376e-05,-0.004089999943971634,-0.5490400195121765
6449.875270021268,1132267.0,-0.004089999943971634,-0.002090000081807375,0.006039999891072512,-0.5456100106239319
6449.8762697934835,1132268.0,0.0034099998883903027,0.00535999983549118,-0.0011399999493733048,-0.544920027256012
6449.877269565699,1132269.0,0.008630000054836273,0.009669999592006207,-0.0018599999602884054,-0.5468000173568726
6449.878269337914,1132270.0,0.010420000180602074,0.007720000110566616,0.00031999999191612005,-0.5484499931335449
6449.87926911013,1132271.0,0.011140000075101852,0.003719999920576811,0.0036299999337643385,-0.5502300262451172
6449.880268882345,1132272.0,0.014379999600350857,-0.00041000000783242285,-0.004410000052303076,-0.5461999773979187
6449.88126865456,1132273.0,0.015629999339580536,-0.001230000052601099,-0.002589999930933118,-0.5498200058937073
6449.882268426775,1132274.0,0.014150000177323818,-0.003539999946951866,4.999999873689376e-05,-0.5501400232315063
6449.883268198991,1132275.0,0.0088900001719594,-0.009990000165998936,-0.002409999957308173,-0.5507400035858154
6449.884267971206,1132276.0,0.003100000089034438,-0.009850000031292439,0.0016299999551847577,-0.5481299757957458
6449.8852677434215,1132277.0,-0.002959999954327941,-0.00913000013679266,-0.000539999979082495,-0.5519700050354004
6449.886267515636,1132278.0,-0.008630000054836273,-0.008449999615550041,-0.0035000001080334187,-0.548259973526001
6449.8872672878515,1132279.0,-0.01221999991685152,0.00535999983549118,-0.0011399999493733048,-0.5511000156402588
6449.888267060067,1132280.0,-0.011859999969601631,0.007540000136941671,0.00031999999191612005,-0.5517399907112122
6449.889266832282,1132281.0,-0.007189999800175428,-0.00041000000783242285,0.0027699999045580626,-0.5549499988555908
6449.890266604498,1132282.0,0.0022899999748915434,-0.002589999930933118,-0.005630000028759241,-0.5492200255393982
6449.891266376713,1132283.0,0.005929999984800816,0.0010400000028312206,-0.0031300000846385956,-0.5522000193595886
6449.892266148928,1132284.0,0.006920000072568655,-0.0006399999838322401,-0.0013599999947473407,-0.5544000267982483
6449.893265921143,1132285.0,0.008089999668300152,0.0072200000286102295,0.0030900000128895044,-0.5563200116157532
6449.894265693359,1132286.0,0.010689999908208847,0.005950000137090683,0.00031999999191612005,-0.5543500185012817
6449.895265465574,1132287.0,0.010870000347495079,0.006539999973028898,-0.002950000111013651,-0.5501899719238281
6449.8962652377895,1132288.0,0.008940000087022781,-0.0009500000160187483,0.00031999999191612005,-0.5533000230789185
6449.897265010004,1132289.0,0.008449999615550041,0.004220000002533197,0.004720000084489584,-0.5544899702072144
6449.8982647822195,1132290.0,0.01095999963581562,0.008310000412166119,0.0014100000262260437,-0.55485999584198
6449.899264554435,1132291.0,0.012889999896287918,0.006130000110715628,-0.0005000000237487257,-0.5516499876976013
6449.90026432665,1132292.0,0.013609999790787697,0.0027699999045580626,-0.0011399999493733048,-0.5549899935722351
6449.901264098866,1132293.0,0.012400000356137753,-0.004679999779909849,0.0002699999895412475,-0.5568199753761292
6449.90226387108,1132294.0,0.009340000338852406,-0.004410000052303076,-0.001820000004954636,-0.5514199733734131
6449.903263643296,1132295.0,0.0031900000758469105,-0.010130000300705433,-0.00041000000783242285,-0.5530700087547302
6449.904263415511,1132296.0,-0.006240000016987324,-0.00418000016361475,-0.002589999930933118,-0.556689977645874
6449.905263187727,1132297.0,-0.012849999591708183,0.00018000000272877514,-0.003539999946951866,-0.557919979095459
6449.906262959942,1132298.0,-0.0147299999371171,-0.0033199999015778303,-0.0027199999894946814,-0.5526099801063538
6449.9072627321575,1132299.0,-0.014910000376403332,-0.004629999864846468,0.00031999999191612005,-0.555180013179779
6449.908262504372,1132300.0,-0.011590000241994858,-0.001500000013038516,0.0021299999207258224,-0.556689977645874
6449.9092622765875,1132301.0,-0.005929999984800816,0.002319999970495701,0.0019099999917671084,-0.5531200170516968
6449.910262048803,1132302.0,-0.0027000000700354576,0.0016299999551847577,-0.0015399999683722854,-0.5553600192070007
6449.911261821018,1132303.0,-0.0008099999977275729,-0.0019099999917671084,-0.004769999999552965,-0.5566400289535522
6449.912261593234,1132304.0,0.001120000029914081,0.003590000094845891,-0.0007699999841861427,-0.5561800003051758
6449.913261365448,1132305.0,-0.0015300000086426735,0.004089999943971634,-0.001180000021122396,-0.5545799732208252
6449.914261137664,1132306.0,-0.004449999891221523,0.003809999907389283,0.0013599999947473407,-0.5575100183486938
6449.915260909879,1132307.0,-0.006560000125318766,-0.001769999973475933,0.0027199999894946814,-0.5598400235176086
6449.916260682095,1132308.0,-0.004579999949783087,-0.00041000000783242285,-0.0025400000158697367,-0.5570999979972839
6449.91726045431,1132309.0,-0.0014400000218302011,0.003220000071451068,-0.0027199999894946814,-0.5548099875450134
6449.9182602265255,1132310.0,0.006380000151693821,0.007400000002235174,0.00267999991774559,-0.558430016040802
6449.91925999874,1132311.0,0.012400000356137753,0.002409999957308173,0.0024999999441206455,-0.5599799752235413
6449.920259770955,1132312.0,0.012760000303387642,0.002859999891370535,-0.0011399999493733048,-0.5563200116157532
6449.921259543171,1132313.0,0.012760000303387642,0.00031999999191612005,-0.002859999891370535,-0.5559499859809875
6449.922259315386,1132314.0,0.010870000347495079,-0.00839999970048666,-0.0033199999015778303,-0.5587900280952454
6449.923259087602,1132315.0,0.004220000002533197,-0.005090000107884407,0.00203999993391335,-0.5611699819564819
6449.924258859816,1132316.0,-0.006380000151693821,-0.01030999980866909,0.001230000052601099,-0.555679976940155
6449.925258632032,1132317.0,-0.01508999988436699,-0.005489999894052744,-0.0027699999045580626,-0.5577899813652039
6449.926258404247,1132318.0,-0.018689999356865883,-0.007899999618530273,-0.001230000052601099,-0.5593400001525879
6449.927258176463,1132319.0,-0.020169999450445175,-0.004089999943971634,0.0019499999471008778,-0.5622699856758118
6449.928257948678,1132320.0,-0.019050000235438347,0.0020000000949949026,0.0012700000079348683,-0.5565900206565857
6449.929257720893,1132321.0,-0.016259999945759773,0.004999999888241291,-0.0007300000288523734,-0.5573300123214722
6449.930257493108,1132322.0,-0.01343000028282404,0.007400000002235174,-0.0022700000554323196,-0.5590699911117554
6449.931257265323,1132323.0,-0.012670000083744526,0.0044999998062849045,0.0033199999015778303,-0.5598000288009644
6449.932257037539,1132324.0,-0.009519999846816063,-0.00044999999227002263,0.0010400000028312206,-0.5603500008583069
6449.933256809754,1132325.0,-0.005929999984800816,0.006810000166296959,-0.002589999930933118,-0.5623599886894226
6449.93425658197,1132326.0,-0.004129999782890081,0.005400000140070915,-9.000000136438757e-05,-0.5602999925613403
6449.935256354184,1132327.0,-0.004310000222176313,0.002319999970495701,0.005810000002384186,-0.5576500296592712
6449.9362561264,1132328.0,-0.0013500000350177288,0.000859999970998615,0.0016299999551847577,-0.5609400272369385
6449.937255898615,1132329.0,0.006289999932050705,-0.0027699999045580626,-0.0011399999493733048,-0.5616300106048584
6449.938255670831,1132330.0,0.013930000364780426,0.006130000110715628,-0.003860000055283308,-0.5583299994468689
6449.939255443046,1132331.0,0.017249999567866325,0.011169999837875366,-0.004410000052303076,-0.561489999294281
6449.940255215261,1132332.0,0.02043999917805195,-0.0011399999493733048,-0.0022700000554323196,-0.5611699819564819
6449.941254987476,1132333.0,0.02102000080049038,0.0017300000181421638,-0.0002699999895412475,-0.5591999888420105
6449.942254759691,1132334.0,0.019500000402331352,-0.002589999930933118,-0.0010400000028312206,-0.561680018901825
6449.943254531907,1132335.0,0.012849999591708183,-0.011309999972581863,0.0017300000181421638,-0.5637800097465515
6449.944254304122,1132336.0,0.007679999805986881,-0.006219999864697456,-0.0024500000290572643,-0.5633699893951416
6449.945254076338,1132337.0,0.0033199999015778303,-0.007040000054985285,-0.000859999970998615,-0.559249997138977
6449.946253848552,1132338.0,-0.002520000096410513,-0.0018599999602884054,0.0016299999551847577,-0.5601699948310852
6449.947253620768,1132339.0,-0.005439999978989363,0.00494999997317791,-0.0059899999760091305,-0.5621799826622009
6449.948253392983,1132340.0,-0.005799999926239252,0.0016299999551847577,-0.003860000055283308,-0.5621799826622009
6449.949253165199,1132341.0,-0.004129999782890081,0.0029100000392645597,0.00031999999191612005,-0.5607600212097168
6449.950252937414,1132342.0,-0.0013899999903514981,0.008129999972879887,-0.000910000002477318,-0.5629100203514099
6449.9512527096285,1132343.0,0.0052999998442828655,0.003539999946951866,0.0012700000079348683,-0.5658400058746338
6449.952252481844,1132344.0,0.009750000201165676,-0.0028200000524520874,0.00018000000272877514,-0.5603899955749512
6449.953252254059,1132345.0,0.015359999611973763,0.0035000001080334187,-0.0033199999015778303,-0.5621799826622009
6449.954252026275,1132346.0,0.01779000088572502,0.00203999993391335,0.002090000081807375,-0.5632299780845642
6449.95525179849,1132347.0,0.018239999189972878,-0.0031799999997019768,0.004679999779909849,-0.5648800134658813
6449.956251570706,1132348.0,0.016979999840259552,0.0044999998062849045,0.002360000042244792,-0.564740002155304
6449.95725134292,1132349.0,0.017340000718832016,0.0021299999207258224,0.00031999999191612005,-0.5652899742126465
6449.958251115136,1132350.0,0.018239999189972878,0.0013200000394135714,0.0022700000554323196,-0.5610799789428711
6449.959250887351,1132351.0,0.01909000054001808,0.003220000071451068,0.0014100000262260437,-0.5647900104522705
6449.960250659567,1132352.0,0.02022000029683113,0.00018000000272877514,-0.00203999993391335,-0.5654299855232239
6449.961250431782,1132353.0,0.018869999796152115,-0.005489999894052744,-0.002630000002682209,-0.5651100277900696
6449.9622502039965,1132354.0,0.016039999201893806,-0.000590000010561198,-0.003860000055283308,-0.5632799863815308
6449.963249976212,1132355.0,0.008980000391602516,0.001180000021122396,-0.003000000026077032,-0.5656599998474121
6449.964249748427,1132356.0,0.0013500000350177288,0.0013200000394135714,-0.002950000111013651,-0.5665299892425537
6449.965249520643,1132357.0,-0.0069599999114871025,0.0027699999045580626,-0.006949999835342169,-0.5675399899482727
6449.966249292858,1132358.0,-0.013790000230073929,-0.003220000071451068,0.002859999891370535,-0.5675399899482727
6449.967249065073,1132359.0,-0.01607999950647354,0.00031999999191612005,0.00031999999191612005,-0.5637800097465515
6449.968248837288,1132360.0,-0.0147299999371171,-4.999999873689376e-05,0.0017300000181421638,-0.5680800080299377
6449.969248609504,1132361.0,-0.00925000011920929,-0.005040000192821026,-0.0005000000237487257,-0.5706899762153625
6449.970248381719,1132362.0,-0.0030499999411404133,-0.002090000081807375,-0.001180000021122396,-0.5652899742126465
6449.9712481539345,1132363.0,0.0009399999980814755,-0.002630000002682209,-0.002409999957308173,-0.5666199922561646
6449.97224792615,1132364.0,0.002520000096410513,-0.004269999917596579,0.004449999891221523,-0.5691400170326233
6449.9732476983645,1132365.0,0.002520000096410513,-0.004040000028908253,0.008170000277459621,-0.5684499740600586
6449.97424747058,1132366.0,0.0031900000758469105,0.0022299999836832285,0.0002699999895412475,-0.5663899779319763
6449.975247242795,1132367.0,0.0031399999279528856,-0.003860000055283308,-0.005179999861866236,-0.5704200267791748
6449.976247015011,1132368.0,0.00872000027447939,0.008170000277459621,-0.0033599999733269215,-0.5716599822044373
6449.977246787226,1132369.0,0.016440000385046005,0.022840000689029694,9.000000136438757e-05,-0.5672100186347961
6449.978246559441,1132370.0,0.023719999939203262,0.014120000414550304,0.0031799999997019768,-0.5688199996948242
6449.979246331656,1132371.0,0.03109000064432621,0.01221999991685152,0.004310000222176313,-0.5715199708938599
6449.980246103872,1132372.0,0.029109999537467957,0.005630000028759241,0.000859999970998615,-0.5696399807929993
6449.981245876087,1132373.0,0.02353999949991703,-0.0009500000160187483,-0.002090000081807375,-0.5678600072860718
6449.9822456483025,1132374.0,0.01769999973475933,-0.005489999894052744,-0.002589999930933118,-0.5715600252151489
6449.983245420518,1132375.0,0.012040000408887863,-0.010219999589025974,-0.0016299999551847577,-0.5723900198936462
6449.9842451927325,1132376.0,0.007770000025629997,-0.013120000250637531,-0.005489999894052744,-0.5710099935531616
6449.985244964948,1132377.0,0.005570000037550926,-0.00839999970048666,-0.004679999779909849,-0.5749099850654602
6449.986244737163,1132378.0,0.004000000189989805,-0.006039999891072512,0.0022700000554323196,-0.5700500011444092
6449.987244509379,1132379.0,0.0006699999794363976,-0.006310000084340572,0.0007300000288523734,-0.5696399807929993
6449.988244281594,1132380.0,-0.0002699999895412475,-0.0044999998062849045,-0.0036299999337643385,-0.572160005569458
6449.989244053809,1132381.0,0.00215999991632998,-0.0006399999838322401,-0.002090000081807375,-0.5729799866676331
6449.990243826024,1132382.0,0.008270000107586384,0.00031999999191612005,0.004360000137239695,-0.5724800229072571
6449.99124359824,1132383.0,0.012489999644458294,-0.0003600000054575503,0.005590000189840794,-0.5700100064277649
6449.992243370455,1132384.0,0.015629999339580536,0.0021299999207258224,-0.002589999930933118,-0.5724800229072571
6449.9932431426705,1132385.0,0.018959999084472656,0.008129999972879887,-0.002630000002682209,-0.5734900236129761
6449.994242914885,1132386.0,0.018729999661445618,0.00267999991774559,-0.0009500000160187483,-0.5699599981307983
6449.9952426871005,1132387.0,0.016489999368786812,0.01063000038266182,0.00031999999191612005,-0.5732100009918213
6449.996242459316,1132388.0,0.01679999940097332,0.010990000329911709,0.0019499999471008778,-0.5747699737548828
6449.997242231531,1132389.0,0.018729999661445618,0.01066999975591898,-0.001180000021122396,-0.5713300108909607
