LSL_Time,PLUX_P1_nSeq,PLUX_P1_ECG0,PLUX_P1_EMG1,PLUX_P1_EMG2,PLUX_P1_RESPIRATION3
6740.494056416676,1422952.0,0.03440999984741211,0.006810000166296959,0.005400000140070915,-0.07123000174760818
6740.495056188892,1422953.0,0.03099999949336052,0.009309999644756317,0.008580000139772892,-0.06765999644994736
6740.496055961106,1422954.0,0.03238999843597412,-0.0017300000181421638,0.004679999779909849,-0.0700799971818924
6740.497055733322,1422955.0,0.035349998623132706,0.0018599999602884054,0.0021299999207258224,-0.07242000102996826
6740.498055505537,1422956.0,0.033959999680519104,-0.0006799999973736703,0.0037700000684708357,-0.07146000117063522
6740.499055277753,1422957.0,0.03181000053882599,-0.00494999997317791,0.00018000000272877514,-0.07621999830007553
6740.500055049968,1422958.0,0.02928999997675419,-0.0051299999468028545,0.00031999999191612005,-0.07214000076055527
6740.5010548221835,1422959.0,0.026410000398755074,-0.002409999957308173,-0.00203999993391335,-0.07644999772310257
6740.502054594398,1422960.0,0.024170000106096268,-0.002589999930933118,0.001230000052601099,-0.07874000072479248
6740.5030543666135,1422961.0,0.026319999247789383,0.0011399999493733048,0.00031999999191612005,-0.07466000318527222
6740.504054138829,1422962.0,0.029650000855326653,0.003449999960139394,-0.0011399999493733048,-0.07924000173807144
6740.505053911044,1422963.0,0.030460000038146973,0.0013599999947473407,-0.0003600000054575503,-0.08152999728918076
6740.50605368326,1422964.0,0.029689999297261238,-0.000910000002477318,0.008899999782443047,-0.07750000059604645
6740.507053455474,1422965.0,0.027489999309182167,-0.0008200000156648457,-0.0006399999838322401,-0.08252999931573868
6740.50805322769,1422966.0,0.024709999561309814,0.005040000192821026,-0.002319999970495701,-0.0839499980211258
6740.509052999905,1422967.0,0.02443999983370304,-0.001230000052601099,-0.004040000028908253,-0.08106999844312668
6740.510052772121,1422968.0,0.02606000006198883,-0.0021299999207258224,0.004809999838471413,-0.08583000302314758
6740.511052544336,1422969.0,0.02686000056564808,-0.0031799999997019768,-0.006719999946653843,-0.08207999914884567
6740.5120523165515,1422970.0,0.026319999247789383,0.0030400000978261232,-0.002859999891370535,-0.08698000013828278
6740.513052088766,1422971.0,0.026149999350309372,0.006039999891072512,0.00031999999191612005,-0.08687999844551086
6740.514051860981,1422972.0,0.023719999939203262,0.007860000245273113,0.004269999917596579,-0.08692999929189682
6740.515051633197,1422973.0,0.021789999678730965,0.00795000046491623,-0.0017300000181421638,-0.09049999713897705
6740.516051405412,1422974.0,0.0218299999833107,-0.000590000010561198,-0.0030900000128895044,-0.08756999671459198
6740.517051177628,1422975.0,0.022509999573230743,-0.004410000052303076,-0.0010000000474974513,-0.0921500027179718
6740.518050949842,1422976.0,0.023719999939203262,-0.00571999978274107,0.0012700000079348683,-0.09283000230789185
6740.519050722058,1422977.0,0.023900000378489494,-0.0018599999602884054,-0.0016299999551847577,-0.09137000143527985
6740.520050494273,1422978.0,0.023310000076889992,-0.003000000026077032,0.0002300000051036477,-0.092739999294281
6740.521050266489,1422979.0,0.022549999877810478,-0.005489999894052744,-4.999999873689376e-05,-0.09635999798774719
6740.522050038704,1422980.0,0.023310000076889992,-0.003809999907389283,-0.006219999864697456,-0.09650000184774399
6740.5230498109195,1422981.0,0.024080000817775726,-0.0029100000392645597,-0.005679999943822622,-0.09407000243663788
6740.524049583134,1422982.0,0.024660000577569008,-0.00203999993391335,0.00031999999191612005,-0.09873999655246735
6740.525049355349,1422983.0,0.023719999939203262,0.002319999970495701,0.002360000042244792,-0.09819000214338303
6740.526049127565,1422984.0,0.02273000031709671,0.001180000021122396,0.0010400000028312206,-0.09809999912977219
6740.52704889978,1422985.0,0.023000000044703484,0.004449999891221523,0.0010400000028312206,-0.10166999697685242
6740.528048671996,1422986.0,0.022280000150203705,0.004269999917596579,0.004540000110864639,-0.09974999725818634
6740.52904844421,1422987.0,0.02061999961733818,0.0019099999917671084,0.0014100000262260437,-0.10171999782323837
6740.530048216426,1422988.0,0.01981000043451786,0.00031999999191612005,-0.000590000010561198,-0.10524000227451324
6740.531047988641,1422989.0,0.016529999673366547,-0.00041000000783242285,-0.001769999973475933,-0.10262999683618546
6740.532047760857,1422990.0,0.011409999802708626,0.003539999946951866,-0.0011399999493733048,-0.10519000142812729
6740.533047533072,1422991.0,0.003590000094845891,0.006769999861717224,0.004310000222176313,-0.10756999999284744
6740.5340473052875,1422992.0,-0.004449999891221523,-0.0012700000079348683,0.004679999779909849,-0.10550999641418457
6740.535047077502,1422993.0,-0.016759999096393585,-0.000590000010561198,-0.0045900000259280205,-0.10931000113487244
6740.536046849717,1422994.0,-0.03198999911546707,0.00031999999191612005,-0.007449999917298555,-0.11136999726295471
6740.537046621933,1422995.0,-0.04402000084519386,-0.00018000000272877514,-0.009449999779462814,-0.10830999910831451
6740.538046394148,1422996.0,-0.05623999983072281,-0.005630000028759241,-0.0021800000686198473,-0.11105000227689743
6740.539046166364,1422997.0,-0.06684999912977219,-0.006680000107735395,0.003000000026077032,-0.11343000084161758
6740.540045938578,1422998.0,-0.07582999765872955,-0.010940000414848328,0.000859999970998615,-0.11196999996900558
6740.541045710794,1422999.0,-0.08355999737977982,-0.008220000192523003,-0.0011399999493733048,-0.11535999923944473
6740.542045483009,1423000.0,-0.09064999967813492,-0.007860000245273113,0.0031799999997019768,-0.11548999696969986
6740.543045255225,1423001.0,-0.10048999637365341,-0.0016299999551847577,0.007579999975860119,-0.11576999723911285
6740.54404502744,1423002.0,-0.11163000017404556,-0.000590000010561198,0.005040000192821026,-0.11851999908685684
6740.5450447996545,1423003.0,-0.12578000128269196,-4.999999873689376e-05,0.004129999782890081,-0.11687000095844269
6740.54604457187,1423004.0,-0.13979999721050262,0.00031999999191612005,0.007720000110566616,-0.12030000239610672
6740.547044344085,1423005.0,-0.14985999464988708,0.0024999999441206455,0.006630000192672014,-0.11846999824047089
6740.548044116301,1423006.0,-0.15633000433444977,0.004089999943971634,-0.000859999970998615,-0.12304999679327011
6740.549043888516,1423007.0,-0.1635199934244156,0.0044999998062849045,-0.006579999811947346,-0.12131000310182571
6740.550043660732,1423008.0,-0.1698099970817566,0.0031300000846385956,-0.009170000441372395,-0.1246500015258789
6740.551043432946,1423009.0,-0.17622999846935272,0.00031999999191612005,-0.003909999970346689,-0.12409999966621399
6740.552043205162,1423010.0,-0.1788800060749054,0.005270000081509352,0.0020000000949949026,-0.12598000466823578
6740.553042977377,1423011.0,-0.17847999930381775,0.010040000081062317,0.0015399999683722854,-0.1253799945116043
6740.554042749593,1423012.0,-0.17681999504566193,0.006990000139921904,-0.004629999864846468,-0.1278499960899353
6740.555042521808,1423013.0,-0.17186999320983887,0.008080000057816505,-0.005489999894052744,-0.1278499960899353
6740.5560422940225,1423014.0,-0.16144999861717224,0.0027199999894946814,-0.0051299999468028545,-0.1288599967956543
6740.557042066238,1423015.0,-0.14815999567508698,-4.999999873689376e-05,0.0018599999602884054,-0.1301400065422058
6740.558041838453,1423016.0,-0.13432000577449799,-0.005950000137090683,0.00031999999191612005,-0.13152000308036804
6740.559041610669,1423017.0,-0.11568000167608261,-0.005679999943822622,0.000910000002477318,-0.13022999465465546
6740.560041382884,1423018.0,-0.09605000168085098,-0.00989999994635582,0.0037700000684708357,-0.13334999978542328
6740.561041155099,1423019.0,-0.07619000226259232,-0.01030999980866909,0.004410000052303076,-0.131740003824234
6740.562040927314,1423020.0,-0.0557899996638298,0.0002699999895412475,0.003909999970346689,-0.13416999578475952
6740.56304069953,1423021.0,-0.03369000181555748,-0.002630000002682209,0.0029100000392645597,-0.13407999277114868
6740.564040471745,1423022.0,-0.0037299999967217445,-0.005489999894052744,0.00749000022187829,-0.1363700032234192
6740.5650402439605,1423023.0,0.03423000127077103,-0.0012700000079348683,0.008270000107586384,-0.13595999777317047
6740.566040016176,1423024.0,0.07357999682426453,0.004410000052303076,0.004410000052303076,-0.1377899944782257
6740.5670397883905,1423025.0,0.10668999701738358,0.0036299999337643385,-0.00041000000783242285,-0.13683000206947327
6740.568039560606,1423026.0,0.13207000494003296,0.001180000021122396,-0.0036800000816583633,-0.14076000452041626
6740.569039332821,1423027.0,0.14753000438213348,0.0019099999917671084,-0.005090000107884407,-0.13892999291419983
6740.570039105037,1423028.0,0.1540900021791458,0.002859999891370535,-0.0013200000394135714,-0.14168000221252441
6740.571038877252,1423029.0,0.16132000088691711,0.002950000111013651,0.003539999946951866,-0.14030000567436218
6740.572038649467,1423030.0,0.1745699942111969,0.0012700000079348683,0.001500000013038516,-0.1432799994945526
6740.573038421682,1423031.0,0.19321000576019287,0.005630000028759241,0.002589999930933118,-0.14217999577522278
6740.574038193898,1423032.0,0.21734000742435455,0.008220000192523003,-0.0021299999207258224,-0.14507000148296356
6740.575037966113,1423033.0,0.24181999266147614,0.006039999891072512,-0.0037700000684708357,-0.14383000135421753
6740.5760377383285,1423034.0,0.2576799988746643,0.002319999970495701,-0.005489999894052744,-0.14639000594615936
6740.577037510544,1423035.0,0.2684600055217743,-0.0037700000684708357,-0.0013200000394135714,-0.14812999963760376
6740.5780372827585,1423036.0,0.2768099904060364,-0.002409999957308173,-0.003539999946951866,-0.14616000652313232
6740.579037054974,1423037.0,0.28176000714302063,-0.004999999888241291,-0.004410000052303076,-0.1482200026512146
6740.580036827189,1423038.0,0.2831900119781494,-0.00494999997317791,-0.004999999888241291,-0.1500999927520752
6740.581036599405,1423039.0,0.27546998858451843,-0.0033599999733269215,-0.000539999979082495,-0.15092000365257263
6740.58203637162,1423040.0,0.26225998997688293,-0.0033199999015778303,-0.003860000055283308,-0.1511099934577942
6740.583036143835,1423041.0,0.25165998935699463,-0.0030400000978261232,-0.003269999986514449,-0.1505099982023239
6740.58403591605,1423042.0,0.24653999507427216,-0.00267999991774559,0.0014100000262260437,-0.15202000737190247
6740.585035688266,1423043.0,0.24240000545978546,9.000000136438757e-05,0.0008200000156648457,-0.15349000692367554
6740.586035460481,1423044.0,0.238319993019104,-0.000910000002477318,-0.0010400000028312206,-0.15331000089645386
6740.5870352326965,1423045.0,0.23531000316143036,0.0016799999866634607,-0.005489999894052744,-0.15408000349998474
6740.588035004912,1423046.0,0.23800000548362732,0.0027699999045580626,-0.0006399999838322401,-0.15633000433444977
6740.5890347771265,1423047.0,0.24132999777793884,0.0021299999207258224,-0.0007699999841861427,-0.15494999289512634
6740.590034549342,1423048.0,0.23396000266075134,-0.0010900000343099236,-0.009259999729692936,-0.15751999616622925
6740.591034321557,1423049.0,0.2159000039100647,-0.004040000028908253,-0.004360000137239695,-0.1576099991798401
6740.592034093773,1423050.0,0.19136999547481537,-0.0022299999836832285,0.002090000081807375,-0.15806999802589417
6740.593033865988,1423051.0,0.17016999423503876,0.0010000000474974513,0.005489999894052744,-0.1594800055027008
6740.594033638203,1423052.0,0.15283000469207764,0.0010000000474974513,0.006130000110715628,-0.15839000046253204
6740.595033410418,1423053.0,0.13481000065803528,0.009759999811649323,-0.004410000052303076,-0.16040000319480896
6740.596033182634,1423054.0,0.11078000068664551,0.0037700000684708357,-0.0009500000160187483,-0.16232000291347504
6740.597032954849,1423055.0,0.08679000288248062,0.003220000071451068,0.00031999999191612005,-0.16126999258995056
6740.5980327270645,1423056.0,0.06559000164270401,-0.0018599999602884054,0.004360000137239695,-0.16227999329566956
6740.59903249928,1423057.0,0.04707999899983406,0.00014000000373926014,0.0014100000262260437,-0.1639299988746643
6740.6000322714945,1423058.0,0.03189999982714653,-0.001500000013038516,-0.001180000021122396,-0.16434000432491302
6740.60103204371,1423059.0,0.021199999377131462,-0.0019499999471008778,0.00203999993391335,-0.16434000432491302
6740.602031815925,1423060.0,0.014150000177323818,-0.0022299999836832285,0.0019099999917671084,-0.16603000462055206
6740.603031588141,1423061.0,0.005210000090301037,-0.0033199999015778303,-0.0030400000978261232,-0.1661199927330017
6740.604031360356,1423062.0,-0.004670000169426203,0.00031999999191612005,-0.004269999917596579,-0.16818000376224518
6740.605031132571,1423063.0,-0.0147299999371171,0.004679999779909849,-0.0022700000554323196,-0.16767999529838562
6740.606030904786,1423064.0,-0.020260000601410866,0.001230000052601099,0.002409999957308173,-0.16868999600410461
6740.607030677002,1423065.0,-0.021199999377131462,-0.000910000002477318,-0.0008200000156648457,-0.16910000145435333
6740.608030449217,1423066.0,-0.019990000873804092,0.00686000008136034,0.004679999779909849,-0.17020000517368317
6740.6090302214325,1423067.0,-0.018239999189972878,0.0024500000290572643,4.999999873689376e-05,-0.17001000046730042
6740.610029993647,1423068.0,-0.015990000218153,0.004089999943971634,0.0019499999471008778,-0.17180000245571136
6740.611029765862,1423069.0,-0.014689999632537365,-0.004040000028908253,0.00686000008136034,-0.17166000604629517
6740.612029538078,1423070.0,-0.015540000051259995,0.0034099998883903027,0.0030400000978261232,-0.17267000675201416
6740.613029310293,1423071.0,-0.019050000235438347,0.0024999999441206455,-0.0002300000051036477,-0.17330999672412872
6740.614029082509,1423072.0,-0.02402999997138977,0.005400000140070915,-0.000539999979082495,-0.17344999313354492
6740.615028854724,1423073.0,-0.030009999871253967,0.003539999946951866,-0.0011399999493733048,-0.17513999342918396
6740.616028626939,1423074.0,-0.03683999925851822,0.002859999891370535,-0.007309999782592058,-0.17476999759674072
6740.617028399154,1423075.0,-0.04145999997854233,-0.0010400000028312206,-0.006219999864697456,-0.1755100041627884
6740.61802817137,1423076.0,-0.043129999190568924,-0.0051299999468028545,-0.005679999943822622,-0.176829993724823
6740.619027943585,1423077.0,-0.041189998388290405,-0.007400000002235174,-0.0030900000128895044,-0.1769299954175949
6740.6200277158005,1423078.0,-0.03971000015735626,-0.004449999891221523,0.004679999779909849,-0.17660999298095703
6740.621027488015,1423079.0,-0.03844999894499779,-0.007180000189691782,0.0029100000392645597,-0.17802000045776367
6740.62202726023,1423080.0,-0.036660000681877136,-0.00203999993391335,0.0016299999551847577,-0.17829999327659607
6740.623027032446,1423081.0,-0.03449999913573265,-0.0035000001080334187,-0.000910000002477318,-0.1783899962902069
6740.624026804661,1423082.0,-0.03269999846816063,0.00031999999191612005,0.0051299999468028545,-0.1792600005865097
6740.625026576877,1423083.0,-0.032430000603199005,-0.0019499999471008778,0.003860000055283308,-0.17949000000953674
6740.626026349091,1423084.0,-0.03229999914765358,0.004449999891221523,0.0030900000128895044,-0.17985999584197998
6740.627026121307,1423085.0,-0.03319999948143959,-0.0013200000394135714,0.003220000071451068,-0.18059000372886658
6740.628025893522,1423086.0,-0.034049998968839645,-0.0007300000288523734,0.0012700000079348683,-0.18073000013828278
6740.629025665738,1423087.0,-0.03418999910354614,-0.00203999993391335,0.002409999957308173,-0.1809999942779541
6740.630025437953,1423088.0,-0.034860000014305115,-0.0010400000028312206,-0.00913000013679266,-0.1818699985742569
6740.631025210168,1423089.0,-0.0350399985909462,-0.002950000111013651,-0.010350000113248825,-0.18278999626636505
6740.632024982383,1423090.0,-0.0321200005710125,0.00031999999191612005,-0.004769999999552965,-0.18205000460147858
6740.633024754598,1423091.0,-0.03136000037193298,0.009039999917149544,-0.005179999861866236,-0.18314999341964722
6740.634024526814,1423092.0,-0.0350399985909462,0.009949999861419201,0.00267999991774559,-0.18352000415325165
6740.635024299029,1423093.0,-0.03976000100374222,0.0028200000524520874,0.000859999970998615,-0.18291999399662018
6740.636024071245,1423094.0,-0.04052000120282173,0.0031799999997019768,-0.004129999782890081,-0.18466000258922577
6740.637023843459,1423095.0,-0.04114999994635582,-0.0022299999836832285,0.0014100000262260437,-0.18398000299930573
6740.638023615675,1423096.0,-0.0436599999666214,-0.0011399999493733048,0.00031999999191612005,-0.18570999801158905
6740.63902338789,1423097.0,-0.049949999898672104,-0.0028200000524520874,-0.00203999993391335,-0.18553000688552856
6740.640023160106,1423098.0,-0.05490000173449516,-0.005489999894052744,-0.0036800000816583633,-0.1857600063085556
6740.641022932321,1423099.0,-0.05623999983072281,-0.005489999894052744,0.006769999861717224,-0.18616999685764313
6740.642022704536,1423100.0,-0.05516999959945679,-0.002589999930933118,0.005040000192821026,-0.18553000688552856
6740.643022476751,1423101.0,-0.0514799989759922,0.0010000000474974513,0.007860000245273113,-0.18636000156402588
6740.644022248966,1423102.0,-0.047210000455379486,0.003539999946951866,0.0059899999760091305,-0.18740999698638916
6740.645022021182,1423103.0,-0.043219998478889465,0.0002300000051036477,0.015350000001490116,-0.18685999512672424
6740.646021793397,1423104.0,-0.041280001401901245,0.00795000046491623,0.014310000464320183,-0.18759000301361084
6740.647021565613,1423105.0,-0.03967000171542168,-0.0007699999841861427,0.0052200001664459705,-0.18828000128269196
6740.648021337827,1423106.0,-0.03822999820113182,0.005950000137090683,-0.0007699999841861427,-0.1883700042963028
6740.649021110043,1423107.0,-0.037289999425411224,0.00203999993391335,-0.006719999946653843,-0.18886999785900116
6740.650020882258,1423108.0,-0.03522000089287758,0.0034099998883903027,-0.009580000303685665,-0.18961000442504883
6740.6510206544735,1423109.0,-0.03206999972462654,-0.002589999930933118,-0.00953999999910593,-0.1906999945640564
6740.652020426689,1423110.0,-0.03130999952554703,0.007079999893903732,-0.015799999237060547,-0.18974000215530396
6740.653020198904,1423111.0,-0.030549999326467514,0.005040000192821026,-0.014209999702870846,-0.1906999945640564
6740.654019971119,1423112.0,-0.030549999326467514,0.002319999970495701,-0.011350000277161598,-0.1917099952697754
6740.655019743334,1423113.0,-0.030820000916719437,0.004089999943971634,-0.0051299999468028545,-0.1908400058746338
6740.65601951555,1423114.0,-0.03117999993264675,-0.0022299999836832285,-0.0024500000290572643,-0.19179999828338623
6740.657019287765,1423115.0,-0.031939998269081116,-0.0044999998062849045,-0.0002699999895412475,-0.192440003156662
6740.658019059981,1423116.0,-0.03288000077009201,-0.010400000028312206,0.007269999943673611,-0.1916700005531311
6740.659018832195,1423117.0,-0.032340001314878464,-0.006769999861717224,0.005270000081509352,-0.1925400048494339
6740.660018604411,1423118.0,-0.03162999823689461,-0.00839999970048666,0.006769999861717224,-0.19322000443935394
6740.661018376626,1423119.0,-0.03215999901294708,-0.005489999894052744,0.006899999920278788,-0.1931300014257431
6740.6620181488415,1423120.0,-0.030549999326467514,-0.000590000010561198,0.0015399999683722854,-0.19345000386238098
6740.663017921057,1423121.0,-0.028030000627040863,-0.002589999930933118,0.006130000110715628,-0.1940000057220459
6740.664017693272,1423122.0,-0.02694999985396862,0.0015899999998509884,0.010490000247955322,-0.19423000514507294
6740.665017465487,1423123.0,-0.025340000167489052,0.0017300000181421638,0.010400000028312206,-0.19505000114440918
6740.666017237702,1423124.0,-0.024620000272989273,-9.000000136438757e-05,0.009669999592006207,-0.19518999755382538
6740.667017009918,1423125.0,-0.02191999927163124,0.0016799999866634607,0.006039999891072512,-0.19547000527381897
6740.668016782133,1423126.0,-0.021560000255703926,0.00031999999191612005,9.000000136438757e-05,-0.1963299959897995
6740.669016554349,1423127.0,-0.024210000410676003,0.002859999891370535,-0.0033199999015778303,-0.197160005569458
6740.670016326563,1423128.0,-0.027939999476075172,0.0045900000259280205,-0.006089999806135893,-0.19678999483585358
6740.671016098779,1423129.0,-0.029020000249147415,0.001769999973475933,-0.006810000166296959,-0.19779999554157257
6740.672015870994,1423130.0,-0.028119999915361404,0.005040000192821026,-0.006769999861717224,-0.1973399966955185
6740.6730156432095,1423131.0,-0.026729999110102654,0.004220000002533197,-0.0033199999015778303,-0.19853000342845917
6740.674015415425,1423132.0,-0.025699999183416367,0.006990000139921904,-0.0037700000684708357,-0.1980299949645996
6740.67501518764,1423133.0,-0.02776000089943409,0.0045900000259280205,-0.0008200000156648457,-0.1988999992609024
6740.676014959855,1423134.0,-0.029109999537467957,0.00031999999191612005,0.0019499999471008778,-0.1988999992609024
6740.67701473207,1423135.0,-0.030910000205039978,0.0,0.0014100000262260437,-0.19939999282360077
6740.678014504286,1423136.0,-0.03305999934673309,-0.0033599999733269215,0.0010400000028312206,-0.20000000298023224
6740.679014276501,1423137.0,-0.03513000160455704,0.0020000000949949026,-0.0035000001080334187,-0.20013000071048737
6740.680014048717,1423138.0,-0.03413999825716019,-0.005900000222027302,0.00535999983549118,-0.20017999410629272
6740.681013820931,1423139.0,-0.03149000182747841,-0.0036800000816583633,0.009759999811649323,-0.2007800042629242
6740.682013593147,1423140.0,-0.02817000076174736,-0.0022299999836832285,0.0071299998089671135,-0.20081999897956848
6740.683013365362,1423141.0,-0.025830000638961792,-0.0013200000394135714,0.003909999970346689,-0.20118999481201172
6740.6840131375775,1423142.0,-0.024800000712275505,0.00203999993391335,-0.0021800000686198473,-0.20205999910831451
6740.685012909793,1423143.0,-0.022690000012516975,0.001769999973475933,0.003909999970346689,-0.20173999667167664
6740.6860126820075,1423144.0,-0.022779999300837517,0.0030400000978261232,0.004860000219196081,-0.20186999440193176
6740.687012454223,1423145.0,-0.024800000712275505,-0.0009500000160187483,0.00014000000373926014,-0.2023800015449524
6740.688012226438,1423146.0,-0.0258799996227026,0.00494999997317791,-0.006130000110715628,-0.2031099945306778
6740.689011998654,1423147.0,-0.025699999183416367,0.0022299999836832285,-0.009170000441372395,-0.20255999267101288
6740.690011770869,1423148.0,-0.02223999984562397,0.003949999809265137,-0.009170000441372395,-0.20388999581336975
6740.691011543084,1423149.0,-0.0185100007802248,0.005179999861866236,-0.0011399999493733048,-0.20338000357151031
6740.692011315299,1423150.0,-0.016349999234080315,0.004449999891221523,-0.003539999946951866,-0.20443999767303467
6740.693011087515,1423151.0,-0.0175199992954731,0.0072200000286102295,-0.00203999993391335,-0.2037999927997589
6740.69401085973,1423152.0,-0.019139999523758888,0.003539999946951866,-0.0009500000160187483,-0.20403000712394714
6740.6950106319455,1423153.0,-0.022280000150203705,-0.0022299999836832285,-0.00418000016361475,-0.20476000010967255
6740.696010404161,1423154.0,-0.02597000077366829,9.000000136438757e-05,-0.0007300000288523734,-0.20476000010967255
6740.697010176375,1423155.0,-0.026499999687075615,-0.004769999999552965,-0.001820000004954636,-0.20498999953269958
6740.698009948591,1423156.0,-0.027489999309182167,-0.007180000189691782,0.0027199999894946814,-0.20508000254631042
6740.699009720806,1423157.0,-0.03136000037193298,-0.01030999980866909,0.005950000137090683,-0.20494000613689423
6740.700009493022,1423158.0,-0.03539999946951866,-0.002589999930933118,0.004679999779909849,-0.20521999895572662
6740.701009265237,1423159.0,-0.037470001727342606,0.0014100000262260437,-0.00041000000783242285,-0.20609000325202942
6740.702009037452,1423160.0,-0.036660000681877136,-0.00041000000783242285,-0.004220000002533197,-0.20586000382900238
6740.703008809667,1423161.0,-0.03593999892473221,-0.0016799999866634607,0.00031999999191612005,-0.20622000098228455
6740.704008581883,1423162.0,-0.03468000143766403,0.0018599999602884054,-0.0002699999895412475,-0.2064100056886673
6740.705008354098,1423163.0,-0.03440999984741211,0.006130000110715628,-0.004360000137239695,-0.20663000643253326
6740.7060081263135,1423164.0,-0.035760000348091125,0.003809999907389283,-0.0036800000816583633,-0.20677000284194946
6740.707007898529,1423165.0,-0.03765000030398369,0.0035000001080334187,0.000859999970998615,-0.20690999925136566
6740.708007670743,1423166.0,-0.03799999877810478,-0.0022299999836832285,0.00535999983549118,-0.207179993391037
6740.709007442959,1423167.0,-0.0370200015604496,0.0024999999441206455,0.002950000111013651,-0.20736999809741974
6740.710007215174,1423168.0,-0.03660999983549118,0.001230000052601099,0.0036800000816583633,-0.20740999281406403
6740.71100698739,1423169.0,-0.037379998713731766,0.0010400000028312206,0.0071299998089671135,-0.20749999582767487
6740.712006759605,1423170.0,-0.03818000108003616,0.0018599999602884054,0.005590000189840794,-0.20818999409675598
6740.71300653182,1423171.0,-0.03809000179171562,0.0014100000262260437,0.000910000002477318,-0.20837000012397766
6740.714006304035,1423172.0,-0.03809000179171562,0.006490000057965517,-0.002090000081807375,-0.20905999839305878
6740.715006076251,1423173.0,-0.037379998713731766,0.004679999779909849,-0.002630000002682209,-0.20850999653339386
6740.716005848466,1423174.0,-0.03809000179171562,0.003220000071451068,-0.005090000107884407,-0.20915000140666962
6740.717005620681,1423175.0,-0.0393499992787838,-0.0007699999841861427,-0.01071999967098236,-0.2097499966621399
6740.718005392897,1423176.0,-0.03971000015735626,-0.001500000013038516,-0.00798999983817339,-0.20924000442028046
6740.719005165111,1423177.0,-0.040300000458955765,-0.003949999809265137,0.0030900000128895044,-0.20987999439239502
6740.720004937327,1423178.0,-0.041510000824928284,-0.001500000013038516,0.0034099998883903027,-0.2106200009584427
6740.721004709542,1423179.0,-0.040300000458955765,0.0,-0.00041000000783242285,-0.2106200009584427
6740.722004481758,1423180.0,-0.03818000108003616,-0.003809999907389283,-0.000859999970998615,-0.2106200009584427
6740.723004253973,1423181.0,-0.035760000348091125,-0.0014100000262260437,-0.001500000013038516,-0.21126000583171844
6740.724004026188,1423182.0,-0.03418999910354614,-0.00267999991774559,0.00031999999191612005,-0.2119400054216385
6740.725003798403,1423183.0,-0.031939998269081116,0.00494999997317791,0.003220000071451068,-0.2120400071144104
6740.726003570619,1423184.0,-0.031129999086260796,-0.00041000000783242285,0.0014100000262260437,-0.21185000240802765
6740.727003342834,1423185.0,-0.0301900003105402,-0.00041000000783242285,0.007400000002235174,-0.2122199982404709
6740.728003115049,1423186.0,-0.02735999971628189,-0.0018599999602884054,0.0014100000262260437,-0.21172000467777252
6740.729002887265,1423187.0,-0.02353999949991703,0.0,-0.002630000002682209,-0.212909996509552
6740.730002659479,1423188.0,-0.02111000008881092,0.00014000000373926014,-0.0010900000343099236,-0.21355000138282776
6740.731002431695,1423189.0,-0.01981000043451786,-0.00203999993391335,-0.013120000250637531,-0.21404999494552612
6740.73200220391,1423190.0,-0.0200399998575449,0.0002300000051036477,-0.012760000303387642,-0.21355000138282776
6740.733001976126,1423191.0,-0.020659999921917915,0.0010000000474974513,-0.004360000137239695,-0.21390999853610992
6740.734001748341,1423192.0,-0.021379999816417694,0.004220000002533197,-0.0031300000846385956,-0.21432000398635864
6740.735001520556,1423193.0,-0.022910000756382942,0.004679999779909849,0.0027699999045580626,-0.21404999494552612
6740.736001292771,1423194.0,-0.023089999333024025,0.004129999782890081,0.008080000057816505,-0.21413999795913696
6740.7370010649865,1423195.0,-0.025200000032782555,0.001769999973475933,0.0071299998089671135,-0.21459999680519104
6740.738000837202,1423196.0,-0.0301900003105402,-0.0006799999973736703,0.006630000192672014,-0.21427999436855316
6740.739000609417,1423197.0,-0.033959999680519104,-0.003000000026077032,0.003000000026077032,-0.21482999622821808
6740.740000381633,1423198.0,-0.03305999934673309,-0.004900000058114529,0.004629999864846468,-0.21547000110149384
6740.741000153847,1423199.0,-0.03027999959886074,-0.0011399999493733048,0.005770000163465738,-0.21487000584602356
6740.741999926063,1423200.0,-0.0301900003105402,-0.005489999894052744,0.005400000140070915,-0.21501000225543976
6740.742999698278,1423201.0,-0.030549999326467514,-0.0010000000474974513,0.001769999973475933,-0.21528999507427216
6740.743999470494,1423202.0,-0.02848000079393387,0.0011399999493733048,0.00014000000373926014,-0.2161100059747696
6740.744999242709,1423203.0,-0.026909999549388885,-0.0002699999895412475,-0.006990000139921904,-0.21570000052452087
6740.745999014924,1423204.0,-0.027130000293254852,0.00031999999191612005,-0.0002699999895412475,-0.2162500023841858
6740.746998787139,1423205.0,-0.027720000594854355,-0.0036800000816583633,-0.0011399999493733048,-0.21651999652385712
6740.7479985593545,1423206.0,-0.029650000855326653,0.001500000013038516,-0.0062699997797608376,-0.21648000180721283
6740.74899833157,1423207.0,-0.030729999765753746,-4.999999873689376e-05,-0.004089999943971634,-0.21648000180721283
6740.749998103785,1423208.0,-0.02848000079393387,0.005270000081509352,-0.00267999991774559,-0.21665999293327332
6740.750997876,1423209.0,-0.025200000032782555,-0.000590000010561198,-0.0006799999973736703,-0.21602000296115875
6740.751997648215,1423210.0,-0.022690000012516975,0.009220000356435776,-0.005539999809116125,-0.21648000180721283
6740.752997420431,1423211.0,-0.020570000633597374,0.0016299999551847577,-0.000910000002477318,-0.216839998960495
6740.753997192646,1423212.0,-0.02012999914586544,0.006130000110715628,0.004129999782890081,-0.21634000539779663
6740.754996964862,1423213.0,-0.023900000378489494,0.0025400000158697367,-0.0031799999997019768,-0.21674999594688416
6740.755996737076,1423214.0,-0.029020000249147415,0.005309999920427799,-0.0044999998062849045,-0.21735000610351562
6740.756996509292,1423215.0,-0.03311000019311905,-0.0007699999841861427,-0.0028200000524520874,-0.216839998960495
6740.757996281507,1423216.0,-0.0350399985909462,-0.002950000111013651,-0.00494999997317791,-0.21671000123023987
6740.7589960537225,1423217.0,-0.034949999302625656,-0.00267999991774559,0.0010900000343099236,-0.21660999953746796
6740.759995825938,1423218.0,-0.03369000181555748,-0.0062699997797608376,0.001180000021122396,-0.21619999408721924
6740.760995598153,1423219.0,-0.032519999891519547,-0.0002300000051036477,0.0034099998883903027,-0.21648000180721283
6740.761995370368,1423220.0,-0.033330000936985016,-0.0007300000288523734,0.00031999999191612005,-0.216839998960495
6740.762995142583,1423221.0,-0.03347000107169151,-0.005679999943822622,-0.002360000042244792,-0.2171200066804886
6740.763994914799,1423222.0,-0.0321200005710125,0.00031999999191612005,-0.002589999930933118,-0.21689000725746155
6740.764994687014,1423223.0,-0.03009999915957451,-0.0031799999997019768,0.0010900000343099236,-0.21648000180721283
6740.76599445923,1423224.0,-0.02807999961078167,-0.0011399999493733048,0.0022299999836832285,-0.21651999652385712
6740.766994231444,1423225.0,-0.026499999687075615,-0.003449999960139394,0.003220000071451068,-0.21648000180721283
6740.76799400366,1423226.0,-0.02443999983370304,0.00418000016361475,-0.002589999930933118,-0.21648000180721283
6740.768993775875,1423227.0,-0.01923000067472458,9.000000136438757e-05,-0.006130000110715628,-0.21674999594688416
6740.7699935480905,1423228.0,-0.01384000014513731,0.002859999891370535,-0.003000000026077032,-0.21671000123023987
6740.770993320306,1423229.0,-0.007910000160336494,-0.004040000028908253,0.013399999588727951,-0.21619999408721924
6740.771993092521,1423230.0,-0.003229999914765358,4.999999873689376e-05,0.008449999615550041,-0.21648000180721283
6740.772992864736,1423231.0,0.0,0.003949999809265137,0.00203999993391335,-0.21602000296115875
6740.773992636951,1423232.0,0.0023399998899549246,0.006130000110715628,-0.004769999999552965,-0.21638000011444092
6740.774992409167,1423233.0,0.0016599999507889152,0.0072200000286102295,-0.0019099999917671084,-0.21648000180721283
6740.775992181382,1423234.0,-0.0010300000431016088,0.0021299999207258224,-0.0007699999841861427,-0.21651999652385712
6740.776991953598,1423235.0,-0.0037700000684708357,0.003220000071451068,-0.0006799999973736703,-0.2159699946641922
6740.777991725812,1423236.0,-0.003949999809265137,-0.0010000000474974513,0.00031999999191612005,-0.2157900035381317
6740.778991498028,1423237.0,-0.003229999914765358,-0.003860000055283308,0.00031999999191612005,-0.2159299999475479
6740.779991270243,1423238.0,-0.0013500000350177288,-0.0011399999493733048,-0.005489999894052744,-0.21648000180721283
6740.7809910424585,1423239.0,0.0026499999221414328,-0.000910000002477318,-0.002589999930933118,-0.2161100059747696
6740.781990814674,1423240.0,0.0048500001430511475,-0.007040000054985285,-0.006180000025779009,-0.21573999524116516
6740.782990586889,1423241.0,0.006560000125318766,-0.0020000000949949026,-0.006089999806135893,-0.21560999751091003
6740.783990359104,1423242.0,0.005929999984800816,0.00031999999191612005,-0.00203999993391335,-0.2157900035381317
6740.784990131319,1423243.0,0.004540000110864639,-0.0005000000237487257,0.00031999999191612005,-0.21573999524116516
6740.785989903535,1423244.0,0.00215999991632998,-0.002630000002682209,0.0037700000684708357,-0.215379998087883
6740.78698967575,1423245.0,-0.0014400000218302011,0.0022700000554323196,0.00686000008136034,-0.215379998087883
6740.787989447966,1423246.0,-0.004670000169426203,-0.0011399999493733048,0.010040000081062317,-0.21501000225543976
6740.78898922018,1423247.0,-0.009390000253915787,-0.00041000000783242285,0.005900000222027302,-0.21478000283241272
6740.789988992396,1423248.0,-0.0129399998113513,0.003909999970346689,0.0018599999602884054,-0.21482999622821808
6740.790988764611,1423249.0,-0.01689000055193901,0.003000000026077032,-0.0008200000156648457,-0.21556000411510468
6740.7919885368265,1423250.0,-0.02102000080049038,0.00494999997317791,0.0016799999866634607,-0.21533000469207764
6740.792988309042,1423251.0,-0.023719999939203262,0.009399999864399433,0.001769999973475933,-0.21482999622821808
6740.793988081257,1423252.0,-0.02694999985396862,0.008270000107586384,-0.0006399999838322401,-0.21547000110149384
6740.794987853472,1423253.0,-0.030009999871253967,0.006399999838322401,0.003449999960139394,-0.21528999507427216
6740.795987625687,1423254.0,-0.03413999825716019,-0.0035000001080334187,0.003000000026077032,-0.21528999507427216
6740.796987397903,1423255.0,-0.03765000030398369,0.0036800000816583633,-0.002589999930933118,-0.21518999338150024
6740.797987170118,1423256.0,-0.038270000368356705,-0.0008200000156648457,-0.005489999894052744,-0.21605999767780304
6740.798986942334,1423257.0,-0.036249998956918716,-0.008310000412166119,0.00031999999191612005,-0.21693000197410583
6740.799986714548,1423258.0,-0.03418999910354614,-0.007400000002235174,0.006130000110715628,-0.21501000225543976
6740.800986486764,1423259.0,-0.032519999891519547,-0.005859999917447567,0.0018599999602884054,-0.2155199944972992
6740.801986258979,1423260.0,-0.03181000053882599,-0.00913000013679266,-0.0002699999895412475,-0.21583999693393707
6740.802986031194,1423261.0,-0.03127000108361244,-0.004040000028908253,0.003220000071451068,-0.21619999408721924
6740.80398580341,1423262.0,-0.030640000477433205,-0.006399999838322401,0.002090000081807375,-0.21619999408721924
6740.804985575625,1423263.0,-0.030050000175833702,0.00203999993391335,-0.0022700000554323196,-0.21628999710083008
6740.80598534784,1423264.0,-0.02889000065624714,0.004679999779909849,-0.006949999835342169,-0.2159299999475479
6740.806985120055,1423265.0,-0.029650000855326653,0.0064500002190470695,0.00031999999191612005,-0.21657000482082367
6740.807984892271,1423266.0,-0.030009999871253967,0.004449999891221523,-0.0014100000262260437,-0.21689000725746155
6740.808984664486,1423267.0,-0.029559999704360962,0.008949999697506428,-0.005489999894052744,-0.216839998960495
6740.809984436702,1423268.0,-0.02937999926507473,0.003220000071451068,-0.002589999930933118,-0.21703000366687775
6740.810984208916,1423269.0,-0.030009999871253967,0.002859999891370535,-0.000859999970998615,-0.21703000366687775
6740.811983981132,1423270.0,-0.03127000108361244,0.004679999779909849,0.0016299999551847577,-0.216839998960495
6740.812983753347,1423271.0,-0.03342000022530556,0.002589999930933118,0.00031999999191612005,-0.2173900008201599
6740.813983525562,1423272.0,-0.03553000092506409,0.004679999779909849,-0.000539999979082495,-0.21794000267982483
6740.814983297778,1423273.0,-0.04114999994635582,0.003949999809265137,-0.0008200000156648457,-0.21775999665260315
6740.815983069992,1423274.0,-0.046720001846551895,0.006539999973028898,-0.0027699999045580626,-0.21807999908924103
6740.816982842208,1423275.0,-0.05012999847531319,0.004129999782890081,-0.004269999917596579,-0.2184000015258789
6740.817982614423,1423276.0,-0.05192999914288521,-0.0021299999207258224,0.0024500000290572643,-0.21811999380588531
6740.818982386639,1423277.0,-0.05350000038743019,-0.0019499999471008778,0.0018599999602884054,-0.21830999851226807
6740.819982158854,1423278.0,-0.05490000173449516,-0.007400000002235174,0.00031999999191612005,-0.21876999735832214
6740.820981931069,1423279.0,-0.0545400008559227,-0.005270000081509352,0.003269999986514449,-0.2189899981021881
6740.821981703284,1423280.0,-0.051569998264312744,-0.009759999811649323,0.005900000222027302,-0.21881000697612762
6740.8229814755,1423281.0,-0.04726000130176544,-0.005539999809116125,0.005040000192821026,-0.2194100022315979
6740.823981247715,1423282.0,-0.042410001158714294,-0.0036800000816583633,-0.002950000111013651,-0.2202800065279007
6740.82498101993,1423283.0,-0.03953000158071518,0.001500000013038516,-0.0011399999493733048,-0.21950000524520874
6740.825980792146,1423284.0,-0.03720000013709068,0.002360000042244792,0.003449999960139394,-0.2198600023984909
6740.82698056436,1423285.0,-0.035760000348091125,0.00795000046491623,0.003949999809265137,-0.2202800065279007
6740.827980336576,1423286.0,-0.03468000143766403,0.003449999960139394,0.0,-0.22078000009059906
6740.828980108791,1423287.0,-0.03279000148177147,0.0035000001080334187,-0.0016299999551847577,-0.2208700031042099
6740.829979881007,1423288.0,-0.030549999326467514,-0.0028200000524520874,0.001820000004954636,-0.2208700031042099
6740.830979653222,1423289.0,-0.02785000018775463,0.006769999861717224,0.000859999970998615,-0.22041000425815582
6740.831979425437,1423290.0,-0.02694999985396862,0.00031999999191612005,-0.0007300000288523734,-0.22133000195026398
6740.832979197652,1423291.0,-0.02727000042796135,0.005810000002384186,-0.00044999999227002263,-0.22321000695228577
6740.8339789698675,1423292.0,-0.02889000065624714,0.005590000189840794,0.0025400000158697367,-0.22127999365329742
6740.834978742083,1423293.0,-0.031449999660253525,0.006130000110715628,0.00031999999191612005,-0.22234000265598297
6740.835978514298,1423294.0,-0.03720000013709068,-0.0018599999602884054,-0.007180000189691782,-0.22237999737262726
6740.836978286514,1423295.0,-0.04349000006914139,0.0027699999045580626,-0.00953999999910593,-0.22269999980926514
6740.837978058728,1423296.0,-0.04569000005722046,-0.002589999930933118,-0.013849999755620956,-0.2224700003862381
6740.838977830944,1423297.0,-0.04645000025629997,-0.006219999864697456,-0.01576000079512596,-0.22283999621868134
6740.839977603159,1423298.0,-0.04707999899983406,-0.005489999894052744,-0.00839999970048666,-0.22283999621868134
6740.840977375375,1423299.0,-0.045910000801086426,-0.013939999975264072,-0.011309999972581863,-0.2233400046825409
6740.84197714759,1423300.0,-0.04447000101208687,-0.0072200000286102295,-0.0011399999493733048,-0.22380000352859497
6740.842976919805,1423301.0,-0.042899999767541885,-0.0002699999895412475,0.007579999975860119,-0.22357000410556793
6740.84397669202,1423302.0,-0.04114999994635582,0.0002699999895412475,0.007040000054985285,-0.22342999279499054
6740.8449764642355,1423303.0,-0.0413299985229969,0.00031999999191612005,0.007670000195503235,-0.22397999465465546
6740.845976236451,1423304.0,-0.04142000153660774,0.004310000222176313,0.008489999920129776,-0.2241699993610382
6740.846976008666,1423305.0,-0.04187000170350075,0.0027699999045580626,0.007670000195503235,-0.22412000596523285
6740.847975780882,1423306.0,-0.0413299985229969,0.005179999861866236,0.013030000030994415,-0.2241699993610382
6740.848975553096,1423307.0,-0.04114999994635582,-0.0013599999947473407,0.011850000359117985,-0.2247599959373474
6740.849975325312,1423308.0,-0.04075000062584877,-0.001449999981559813,0.0051299999468028545,-0.22517000138759613
6740.850975097527,1423309.0,-0.0399399995803833,-0.007309999782592058,-0.0019499999471008778,-0.22527000308036804
6740.851974869743,1423310.0,-0.03971000015735626,0.0031799999997019768,0.001769999973475933,-0.22599999606609344
6740.852974641958,1423311.0,-0.041510000824928284,0.00031999999191612005,-0.0006399999838322401,-0.22599999606609344
6740.853974414173,1423312.0,-0.04586999863386154,0.006130000110715628,-0.003949999809265137,-0.22614000737667084
6740.854974186388,1423313.0,-0.04958999902009964,0.0064500002190470695,-0.008860000409185886,-0.22627000510692596
6740.8559739586035,1423314.0,-0.05332000181078911,0.006130000110715628,-0.002589999930933118,-0.22673000395298004
6740.856973730819,1423315.0,-0.0544000007212162,0.0024999999441206455,0.0021299999207258224,-0.22604000568389893
6740.857973503034,1423316.0,-0.05445000156760216,-0.0008200000156648457,0.0016299999551847577,-0.22709999978542328
6740.85897327525,1423317.0,-0.0528700016438961,-0.0029100000392645597,-0.00014000000373926014,-0.22768999636173248
6740.859973047464,1423318.0,-0.05121000111103058,-0.005950000137090683,-4.999999873689376e-05,-0.22732999920845032
6740.86097281968,1423319.0,-0.0494999997317791,-0.003000000026077032,-0.0036299999337643385,-0.2282000035047531
6740.861972591895,1423320.0,-0.04726000130176544,-0.0018599999602884054,-0.0016799999866634607,-0.22846999764442444
6740.862972364111,1423321.0,-0.04340000078082085,-0.0007699999841861427,-0.007809999864548445,-0.22846999764442444
6740.863972136326,1423322.0,-0.0413299985229969,0.0010400000028312206,-0.009669999592006207,-0.22905999422073364
6740.864971908541,1423323.0,-0.04177999868988991,0.003220000071451068,-0.005810000002384186,-0.2291100025177002
6740.865971680756,1423324.0,-0.04374999925494194,0.000859999970998615,0.002950000111013651,-0.2293899953365326
6740.8669714529715,1423325.0,-0.04295000061392784,0.0021299999207258224,0.0031300000846385956,-0.2296600043773651
6740.867971225187,1423326.0,-0.040789999067783356,-0.001820000004954636,-0.004410000052303076,-0.23003000020980835
6740.868970997402,1423327.0,-0.0399399995803833,0.00267999991774559,-0.005090000107884407,-0.22989000380039215
6740.869970769618,1423328.0,-0.04061000049114227,9.000000136438757e-05,-0.0033199999015778303,-0.23061999678611755
6740.870970541832,1423329.0,-0.04075000062584877,0.0020000000949949026,0.00798999983817339,-0.2307099997997284
6740.871970314048,1423330.0,-0.0399399995803833,0.004040000028908253,0.011219999752938747,-0.2306700050830841
6740.872970086263,1423331.0,-0.03953000158071518,0.007309999782592058,0.01181000005453825,-0.23044000566005707
6740.873969858479,1423332.0,-0.03853999823331833,0.00686000008136034,0.006990000139921904,-0.2318599969148636
6740.874969630694,1423333.0,-0.03863000124692917,0.00267999991774559,0.005950000137090683,-0.2318599969148636
6740.875969402909,1423334.0,-0.03799999877810478,0.005179999861866236,0.0015899999998509884,-0.2322700023651123
6740.876969175124,1423335.0,-0.03683999925851822,-0.0015399999683722854,0.001180000021122396,-0.23259000480175018
6740.8779689473395,1423336.0,-0.036570001393556595,-0.005859999917447567,0.001449999981559813,-0.23331999778747559
6740.878968719555,1423337.0,-0.034370001405477524,-0.008129999972879887,-0.0028200000524520874,-0.23405000567436218
6740.87996849177,1423338.0,-0.030910000205039978,-0.014259999617934227,-0.0027199999894946814,-0.23405000567436218
6740.880968263985,1423339.0,-0.026729999110102654,-0.012670000083744526,-0.004900000058114529,-0.23405000567436218
6740.8819680362,1423340.0,-0.023900000378489494,-0.006630000192672014,-0.01217000000178814,-0.23469999432563782
6740.882967808416,1423341.0,-0.023269999772310257,-0.004129999782890081,-0.009259999729692936,-0.23506000638008118
6740.883967580631,1423342.0,-0.02363000065088272,0.00031999999191612005,-0.0007699999841861427,-0.23520000278949738
6740.884967352847,1423343.0,-0.023269999772310257,0.00267999991774559,-0.004220000002533197,-0.23611000180244446
6740.885967125061,1423344.0,-0.023900000378489494,0.009399999864399433,0.0010400000028312206,-0.2356099933385849
6740.886966897277,1423345.0,-0.025790000334382057,0.004129999782890081,0.000859999970998615,-0.23693999648094177
6740.887966669492,1423346.0,-0.0276699997484684,0.004310000222176313,-0.002950000111013651,-0.23680000007152557
6740.888966441707,1423347.0,-0.02986999973654747,-0.00571999978274107,0.002859999891370535,-0.2372100055217743
6740.889966213923,1423348.0,-0.03127000108361244,0.006130000110715628,0.006130000110715628,-0.2367600053548813
6740.890965986138,1423349.0,-0.03279000148177147,0.0031799999997019768,0.0012700000079348683,-0.2380799949169159
6740.891965758353,1423350.0,-0.030549999326467514,0.006630000192672014,0.0027699999045580626,-0.23752999305725098
6740.892965530568,1423351.0,-0.027809999883174896,0.00798999983817339,-0.0018599999602884054,-0.2389100044965744
6740.893965302784,1423352.0,-0.025699999183416367,0.002360000042244792,-0.0009500000160187483,-0.23940999805927277
6740.894965074999,1423353.0,-0.025469999760389328,0.010490000247955322,0.0035000001080334187,-0.23826999962329865
6740.895964847215,1423354.0,-0.027219999581575394,0.002630000002682209,-0.0007699999841861427,-0.24009999632835388
6740.896964619429,1423355.0,-0.029020000249147415,0.0002699999895412475,-0.004809999838471413,-0.24045999348163605
6740.897964391645,1423356.0,-0.027939999476075172,-0.00044999999227002263,-0.005900000222027302,-0.24068999290466309
6740.89896416386,1423357.0,-0.026680000126361847,-0.0022299999836832285,-0.0052200001664459705,-0.2413800060749054
6740.899963936075,1423358.0,-0.0243500005453825,-0.005489999894052744,-0.0013200000394135714,-0.24201999604701996
6740.900963708291,1423359.0,-0.018869999796152115,-0.011309999972581863,-4.999999873689376e-05,-0.24201999604701996
6740.901963480506,1423360.0,-0.013249999843537807,-0.0059899999760091305,0.004769999999552965,-0.242249995470047
6740.902963252721,1423361.0,-0.009879999794065952,-0.004129999782890081,0.003220000071451068,-0.2431199997663498
6740.903963024936,1423362.0,-0.0069599999114871025,0.0024500000290572643,-4.999999873689376e-05,-0.24338999390602112
6740.904962797152,1423363.0,-0.004579999949783087,-0.000859999970998615,-0.001230000052601099,-0.24361999332904816
6740.905962569367,1423364.0,-0.003229999914765358,0.0022299999836832285,-0.0019099999917671084,-0.24408000707626343
6740.906962341583,1423365.0,-0.002520000096410513,0.0014100000262260437,0.002409999957308173,-0.24494999647140503
6740.907962113797,1423366.0,-0.0016199999954551458,-0.0013200000394135714,-0.0020000000949949026,-0.2454099953174591
6740.908961886013,1423367.0,0.0009899999713525176,0.0002699999895412475,-0.0045900000259280205,-0.2451300024986267
6740.909961658228,1423368.0,0.004000000189989805,-0.002950000111013651,-0.0005000000237487257,-0.24640999734401703
6740.910961430443,1423369.0,0.0053900000639259815,0.000910000002477318,-0.0045900000259280205,-0.24650999903678894
6740.911961202659,1423370.0,0.006020000204443932,0.003949999809265137,0.005309999920427799,-0.2461400032043457
6740.912960974874,1423371.0,0.00610999995842576,0.00839999970048666,0.0072200000286102295,-0.24751000106334686
6740.913960747089,1423372.0,0.006829999852925539,0.007670000195503235,0.002589999930933118,-0.24724000692367554
6740.914960519304,1423373.0,0.006829999852925539,0.004679999779909849,0.001230000052601099,-0.2470099925994873
6740.91596029152,1423374.0,0.008489999920129776,0.008860000409185886,-0.0022700000554323196,-0.24842999875545502
6740.916960063735,1423375.0,0.010420000180602074,-0.0007300000288523734,-0.0013599999947473407,-0.2486100047826767
6740.917959835951,1423376.0,0.011189999990165234,-0.0007300000288523734,0.0010900000343099236,-0.24815000593662262
6740.918959608165,1423377.0,0.011769999749958515,-0.0019099999917671084,-0.00041000000783242285,-0.24824999272823334
6740.9199593803805,1423378.0,0.013570000417530537,-0.0059899999760091305,0.004860000219196081,-0.24907000362873077
6740.920959152596,1423379.0,0.016669999808073044,-0.00418000016361475,0.0027699999045580626,-0.24966000020503998
6740.921958924811,1423380.0,0.0185100007802248,-0.0010400000028312206,0.0022299999836832285,-0.24953000247478485
6740.922958697027,1423381.0,0.020659999921917915,-0.0006399999838322401,-0.002409999957308173,-0.2503100037574768
6740.923958469242,1423382.0,0.023000000044703484,-0.002950000111013651,-0.001500000013038516,-0.24988999962806702
6740.924958241457,1423383.0,0.025919999927282333,0.0010000000474974513,0.0018599999602884054,-0.249439999461174
6740.925958013672,1423384.0,0.02947000041604042,-0.00041000000783242285,-0.004360000137239695,-0.2503100037574768
6740.926957785888,1423385.0,0.03127000108361244,0.0025400000158697367,-0.000910000002477318,-0.25126999616622925
6740.927957558103,1423386.0,0.03181000053882599,0.004310000222176313,0.006539999973028898,-0.250900000333786
6740.928957330319,1423387.0,0.030950000509619713,-0.000539999979082495,0.01030999980866909,-0.2505300045013428
6740.929957102533,1423388.0,0.028750000521540642,0.0016799999866634607,0.003220000071451068,-0.25172001123428345
6740.9309568747485,1423389.0,0.02703999914228916,-0.00203999993391335,-0.005679999943822622,-0.2516300082206726
6740.931956646964,1423390.0,0.026319999247789383,0.00203999993391335,-0.006579999811947346,-0.25172001123428345
6740.932956419179,1423391.0,0.026319999247789383,0.004860000219196081,-0.0027199999894946814,-0.2526400089263916
6740.933956191395,1423392.0,0.026319999247789383,0.00267999991774559,0.0031799999997019768,-0.2522299885749817
6740.93495596361,1423393.0,0.02694999985396862,0.005400000140070915,0.001180000021122396,-0.2531900107860565
6740.935955735825,1423394.0,0.02443999983370304,0.00031999999191612005,-0.0020000000949949026,-0.25273001194000244
6740.93695550804,1423395.0,0.021740000694990158,0.004310000222176313,-0.003539999946951866,-0.2537800073623657
6740.937955280256,1423396.0,0.02053000032901764,-0.002589999930933118,0.00494999997317791,-0.2531000077724457
6740.938955052471,1423397.0,0.019589999690651894,-0.006180000025779009,0.006130000110715628,-0.2542000114917755
6740.9399548246865,1423398.0,0.020390000194311142,-0.005489999894052744,0.009309999644756317,-0.25415000319480896
6740.940954596901,1423399.0,0.02273000031709671,-0.0044999998062849045,-9.000000136438757e-05,-0.25488001108169556
6740.9419543691165,1423400.0,0.024529999122023582,-0.000539999979082495,9.000000136438757e-05,-0.2549700140953064
6740.942954141332,1423401.0,0.026319999247789383,9.000000136438757e-05,-0.0036800000816583633,-0.2552500069141388
6740.943953913547,1423402.0,0.028209999203681946,-0.002589999930933118,0.00031999999191612005,-0.2554300129413605
6740.944953685763,1423403.0,0.028750000521540642,0.006810000166296959,-0.001500000013038516,-0.25602999329566956
6740.945953457977,1423404.0,0.028389999642968178,0.002360000042244792,-0.0006399999838322401,-0.2563900053501129
6740.946953230193,1423405.0,0.02622999995946884,0.00031999999191612005,-0.0012700000079348683,-0.25648000836372375
6740.947953002408,1423406.0,0.023719999939203262,-0.00014000000373926014,-0.008080000057816505,-0.25694000720977783
6740.948952774624,1423407.0,0.022099999710917473,-0.00203999993391335,-0.01140000019222498,-0.256989985704422
6740.949952546839,1423408.0,0.02263999916613102,0.003909999970346689,-0.004310000222176313,-0.25749000906944275
6740.950952319054,1423409.0,0.023310000076889992,-0.0019499999471008778,-0.006130000110715628,-0.25749000906944275
6740.951952091269,1423410.0,0.02314000017940998,0.0033599999733269215,0.00018000000272877514,-0.25905001163482666
6740.9529518634845,1423411.0,0.022099999710917473,0.0025400000158697367,0.012400000356137753,-0.2590000033378601
6740.9539516357,1423412.0,0.020309999585151672,0.00031999999191612005,0.009039999917149544,-0.25835999846458435
6740.954951407915,1423413.0,0.019859999418258667,0.006130000110715628,0.0016799999866634607,-0.2593199908733368
6740.955951180131,1423414.0,0.020080000162124634,0.00014000000373926014,-0.006089999806135893,-0.25992000102996826
6740.956950952345,1423415.0,0.02012999914586544,0.003220000071451068,-0.004679999779909849,-0.2601499855518341
6740.957950724561,1423416.0,0.02092999964952469,-0.003949999809265137,0.00031999999191612005,-0.2610200047492981
6740.958950496776,1423417.0,0.024080000817775726,-0.0007699999841861427,-0.0021800000686198473,-0.2606000006198883
6740.959950268992,1423418.0,0.02848000079393387,-0.0029100000392645597,-0.003909999970346689,-0.2611500024795532
6740.960950041207,1423419.0,0.03189999982714653,-0.0011399999493733048,-0.0010000000474974513,-0.2608799934387207
6740.961949813422,1423420.0,0.033240001648664474,-0.0028200000524520874,0.002409999957308173,-0.261929988861084
6740.962949585637,1423421.0,0.03711000084877014,0.0021299999207258224,0.004540000110864639,-0.26124998927116394
6740.9639493578525,1423422.0,0.04114999994635582,-0.001500000013038516,0.01143999956548214,-0.2634899914264679
6740.964949130068,1423423.0,0.043129999190568924,0.0010400000028312206,0.005770000163465738,-0.2631700038909912
6740.965948902283,1423424.0,0.0428600013256073,0.0017300000181421638,0.00686000008136034,-0.26225000619888306
6740.966948674499,1423425.0,0.043129999190568924,0.0044999998062849045,0.00535999983549118,-0.26431000232696533
6740.967948446713,1423426.0,0.0428600013256073,0.001769999973475933,0.005630000028759241,-0.2637600004673004
6740.968948218929,1423427.0,0.04222999885678291,0.0021299999207258224,-0.0011399999493733048,-0.2640799880027771
6740.969947991144,1423428.0,0.040070001035928726,0.0010400000028312206,-0.0022700000554323196,-0.2652699947357178
6740.97094776336,1423429.0,0.03756000101566315,-0.000539999979082495,-0.0006399999838322401,-0.2650499939918518
6740.971947535575,1423430.0,0.03413999825716019,0.0021299999207258224,-0.004040000028908253,-0.26482000946998596
6740.97294730779,1423431.0,0.029829999431967735,0.005590000189840794,-0.0037700000684708357,-0.26614001393318176
6740.973947080005,1423432.0,0.025919999927282333,0.0024999999441206455,-0.011309999972581863,-0.26627999544143677
6740.9749468522205,1423433.0,0.023360000923275948,0.005040000192821026,-0.009809999726712704,-0.26627999544143677
6740.975946624436,1423434.0,0.020659999921917915,-0.00041000000783242285,-0.0063599999994039536,-0.2666899859905243
6740.976946396651,1423435.0,0.019589999690651894,0.00031999999191612005,-0.008270000107586384,-0.2666899859905243
6740.977946168867,1423436.0,0.019770000129938126,-0.004040000028908253,-0.005630000028759241,-0.2673799991607666
6740.978945941081,1423437.0,0.019680000841617584,-0.0022299999836832285,-0.003000000026077032,-0.267520010471344
6740.979945713297,1423438.0,0.018780000507831573,-0.005859999917447567,-0.002859999891370535,-0.2673799991607666
6740.980945485512,1423439.0,0.02151999995112419,-0.0033199999015778303,-0.00418000016361475,-0.2689400017261505
6740.981945257728,1423440.0,0.025919999927282333,-0.008220000192523003,-0.0011399999493733048,-0.26848000288009644
6740.982945029943,1423441.0,0.030230000615119934,-0.0018599999602884054,0.002630000002682209,-0.26761001348495483
6740.983944802158,1423442.0,0.032340001314878464,-0.00267999991774559,0.005179999861866236,-0.2698099911212921
6740.984944574373,1423443.0,0.0350399985909462,9.000000136438757e-05,0.0037700000684708357,-0.26921001076698303
6740.985944346588,1423444.0,0.037780001759529114,-0.002319999970495701,0.006130000110715628,-0.2682499885559082
6740.986944118804,1423445.0,0.03912999853491783,-0.000539999979082495,0.009580000303685665,-0.2701700031757355
6740.987943891019,1423446.0,0.03971000015735626,0.0019499999471008778,0.007670000195503235,-0.26962000131607056
6740.988943663235,1423447.0,0.03962000086903572,0.005539999809116125,0.008449999615550041,-0.27008000016212463
6740.989943435449,1423448.0,0.03889999911189079,0.0019499999471008778,0.004809999838471413,-0.270579993724823
6740.990943207665,1423449.0,0.038770001381635666,0.003220000071451068,0.006130000110715628,-0.2706800103187561
6740.99194297988,1423450.0,0.03813999891281128,0.003220000071451068,0.0019499999471008778,-0.270579993724823
6740.992942752096,1423451.0,0.036479998379945755,0.007540000136941671,0.003000000026077032,-0.2718699872493744
6740.993942524311,1423452.0,0.034860000014305115,0.004129999782890081,-0.0063599999994039536,-0.2721399962902069
6740.994942296526,1423453.0,0.032519999891519547,0.0071299998089671135,-0.0072200000286102295,-0.2714099884033203
6740.995942068741,1423454.0,0.030640000477433205,0.0,-0.005489999894052744,-0.27195999026298523
6740.996941840956,1423455.0,0.028030000627040863,4.999999873689376e-05,-0.005859999917447567,-0.27222999930381775
6740.997941613172,1423456.0,0.02507000043988228,0.00031999999191612005,-0.007400000002235174,-0.27204999327659607
6740.998941385387,1423457.0,0.023269999772310257,-0.00041000000783242285,-0.007540000136941671,-0.2728700041770935
6740.999941157603,1423458.0,0.02201000042259693,0.0014100000262260437,-0.00686000008136034,-0.2737399935722351
6741.000940929817,1423459.0,0.020260000601410866,-0.008449999615550041,-0.0045900000259280205,-0.27327999472618103
6741.001940702033,1423460.0,0.0200399998575449,-0.00875999964773655,-0.00044999999227002263,-0.27305999398231506
6741.002940474248,1423461.0,0.020840000361204147,-0.0064500002190470695,-0.0008200000156648457,-0.2726899981498718
6741.003940246464,1423462.0,0.022369999438524246,-0.0030400000978261232,0.003590000094845891,-0.2743400037288666
6741.004940018679,1423463.0,0.023310000076889992,-0.0027699999045580626,0.0007300000288523734,-0.2741999924182892
6741.0059397908935,1423464.0,0.025609999895095825,0.005040000192821026,0.00031999999191612005,-0.2741999924182892
6741.006939563109,1423465.0,0.026189999654889107,0.00267999991774559,0.002090000081807375,-0.2757999897003174
6741.007939335324,1423466.0,0.02525000087916851,0.000910000002477318,9.000000136438757e-05,-0.27452000975608826
6741.00893910754,1423467.0,0.024620000272989273,-0.0002699999895412475,-0.0035000001080334187,-0.27410998940467834
6741.009938879755,1423468.0,0.02425999939441681,0.004860000219196081,-0.005489999894052744,-0.27469998598098755
6741.01093865197,1423469.0,0.023399999365210533,0.0021299999207258224,0.0010000000474974513,-0.2757999897003174
6741.011938424185,1423470.0,0.02425999939441681,0.004129999782890081,0.006130000110715628,-0.2753399908542633
6741.012938196401,1423471.0,0.02353999949991703,0.005179999861866236,-0.0002699999895412475,-0.27584999799728394
6741.013937968616,1423472.0,0.021740000694990158,0.001820000004954636,0.0,-0.27612000703811646
6741.014937740832,1423473.0,0.019589999690651894,0.003809999907389283,0.0010400000028312206,-0.2757999897003174
6741.015937513046,1423474.0,0.018689999356865883,-0.0010000000474974513,0.003949999809265137,-0.27643999457359314
6741.0169372852615,1423475.0,0.020840000361204147,-0.0009500000160187483,0.0027199999894946814,-0.2766300141811371
6741.017937057477,1423476.0,0.02273000031709671,-0.0009500000160187483,0.00031999999191612005,-0.2763499915599823
6741.018936829692,1423477.0,0.02353999949991703,0.00203999993391335,-0.0027699999045580626,-0.2760300040245056
6741.019936601908,1423478.0,0.021649999544024467,-0.002589999930933118,-0.004129999782890081,-0.27768000960350037
6741.020936374123,1423479.0,0.019050000235438347,-0.003590000094845891,-0.002360000042244792,-0.2776300013065338
6741.021936146338,1423480.0,0.017880000174045563,-0.0027699999045580626,-0.0011399999493733048,-0.27731001377105713
6741.022935918553,1423481.0,0.01671000011265278,-0.007400000002235174,0.0010400000028312206,-0.2768999934196472
6741.023935690769,1423482.0,0.014999999664723873,0.0017300000181421638,-0.005489999894052744,-0.2783699929714203
6741.024935462984,1423483.0,0.012040000408887863,0.001769999973475933,-0.010219999589025974,-0.2780900001525879
6741.0259352351995,1423484.0,0.00930000003427267,0.003909999970346689,-0.004410000052303076,-0.27698999643325806
6741.026935007414,1423485.0,0.006920000072568655,0.0009500000160187483,-0.007540000136941671,-0.27873000502586365
6741.0279347796295,1423486.0,0.005350000225007534,0.00031999999191612005,-0.00749000022187829,-0.27827000617980957
6741.028934551845,1423487.0,0.003100000089034438,-9.000000136438757e-05,-0.0051299999468028545,-0.2777700126171112
6741.02993432406,1423488.0,0.0009899999713525176,0.002360000042244792,-0.004999999888241291,-0.27959999442100525
6741.030934096276,1423489.0,-0.00018000000272877514,-0.004410000052303076,0.007579999975860119,-0.27873000502586365
6741.031933868491,1423490.0,-0.00013000000035390258,-0.0028200000524520874,0.0195700004696846,-0.2787800133228302
6741.032933640706,1423491.0,-0.0022499999031424522,0.002319999970495701,0.013489999808371067,-0.27946001291275024
6741.033933412921,1423492.0,-0.003949999809265137,0.0072200000286102295,0.003719999920576811,-0.27928000688552856
6741.034933185137,1423493.0,-0.0047599999234080315,0.003809999907389283,-0.0015899999998509884,-0.2792400121688843
6741.035932957352,1423494.0,-0.004939999897032976,0.003590000094845891,-0.002360000042244792,-0.2800599932670593
6741.0369327295675,1423495.0,-0.0036800000816583633,0.0044999998062849045,-0.00203999993391335,-0.2795099914073944
6741.037932501782,1423496.0,-0.0020699999295175076,-0.0007699999841861427,-0.00041000000783242285,-0.27873000502586365
6741.0389322739975,1423497.0,-0.0023799999617040157,-0.006399999838322401,-0.0028200000524520874,-0.2809300124645233
6741.039932046213,1423498.0,-0.004399999976158142,-0.0051299999468028545,0.003809999907389283,-0.2799200117588043
6741.040931818428,1423499.0,-0.005570000037550926,-0.006990000139921904,-0.00014000000373926014,-0.2795099914073944
6741.041931590644,1423500.0,-0.005350000225007534,-0.00494999997317791,-0.0017300000181421638,-0.2809300124645233
6741.042931362859,1423501.0,-0.00610999995842576,-0.0019099999917671084,-0.0064500002190470695,-0.28148001432418823
6741.043931135074,1423502.0,-0.005080000031739473,0.0031300000846385956,-0.0009500000160187483,-0.2798300087451935
6741.044930907289,1423503.0,-0.003590000094845891,-0.0022299999836832285,-0.0022299999836832285,-0.2809799909591675
6741.045930679505,1423504.0,-0.001979999942705035,0.003000000026077032,9.000000136438757e-05,-0.28125
6741.04693045172,1423505.0,-0.0031399999279528856,0.0017300000181421638,-0.000590000010561198,-0.2809300124645233
6741.0479302239355,1423506.0,-0.0065100002102553844,0.00031999999191612005,-0.0051299999468028545,-0.2810699939727783
6741.04892999615,1423507.0,-0.007639999967068434,0.00031999999191612005,0.00031999999191612005,-0.2819400131702423
6741.0499297683655,1423508.0,-0.007819999940693378,-0.0006799999973736703,0.002589999930933118,-0.2809300124645233
6741.050929540581,1423509.0,-0.008089999668300152,0.0021299999207258224,-0.000590000010561198,-0.28130000829696655
6741.051929312796,1423510.0,-0.007910000160336494,0.002319999970495701,-0.002589999930933118,-0.28185001015663147
6741.052929085012,1423511.0,-0.007910000160336494,0.004449999891221523,-0.00014000000373926014,-0.28174999356269836
6741.053928857227,1423512.0,-0.009119999594986439,0.002859999891370535,0.0036299999337643385,-0.2813900113105774
6741.054928629442,1423513.0,-0.009390000253915787,0.001230000052601099,0.0021299999207258224,-0.282260000705719
6741.055928401657,1423514.0,-0.010239999741315842,0.00031999999191612005,-0.0006399999838322401,-0.2821199893951416
6741.056928173873,1423515.0,-0.011680000461637974,0.0019499999471008778,-0.0021800000686198473,-0.2823899984359741
6741.057927946088,1423516.0,-0.012760000303387642,0.0016799999866634607,-0.005539999809116125,-0.2825799882411957
6741.0589277183035,1423517.0,-0.01343000028282404,-9.000000136438757e-05,-0.006769999861717224,-0.2823899984359741
6741.059927490518,1423518.0,-0.014109999872744083,-0.005489999894052744,0.004220000002533197,-0.28235000371932983
6741.0609272627335,1423519.0,-0.015629999339580536,-0.0044999998062849045,0.005590000189840794,-0.2835800051689148
6741.061927034949,1423520.0,-0.016440000385046005,-0.006310000084340572,-0.00494999997317791,-0.2831299901008606
6741.062926807164,1423521.0,-0.015949999913573265,-0.005489999894052744,-0.0019099999917671084,-0.28262001276016235
6741.06392657938,1423522.0,-0.015990000218153,-0.00203999993391335,0.005900000222027302,-0.2831299901008606
6741.064926351595,1423523.0,-0.015629999339580536,-0.00203999993391335,0.001769999973475933,-0.28317001461982727
6741.06592612381,1423524.0,-0.014639999717473984,-0.0006399999838322401,0.0037700000684708357,-0.28216999769210815
6741.066925896025,1423525.0,-0.012670000083744526,0.003220000071451068,-0.00014000000373926014,-0.28376999497413635
6741.067925668241,1423526.0,-0.01307000033557415,0.002409999957308173,-0.0033199999015778303,-0.2836799919605255
6741.068925440456,1423527.0,-0.014550000429153442,0.003590000094845891,-0.002360000042244792,-0.28349000215530396
6741.0699252126715,1423528.0,-0.014639999717473984,0.00031999999191612005,0.003949999809265137,-0.28336000442504883
6741.070924984886,1423529.0,-0.014290000312030315,-0.0027199999894946814,0.00203999993391335,-0.28422999382019043
6741.071924757101,1423530.0,-0.01307000033557415,0.00031999999191612005,0.0037700000684708357,-0.28349000215530396
6741.072924529317,1423531.0,-0.014290000312030315,0.0027699999045580626,-0.00014000000373926014,-0.2833099961280823
6741.073924301532,1423532.0,-0.017880000174045563,0.001180000021122396,-0.002090000081807375,-0.284960001707077
6741.074924073748,1423533.0,-0.020309999585151672,0.002589999930933118,0.004860000219196081,-0.2844099998474121
6741.075923845962,1423534.0,-0.021560000255703926,0.0014100000262260437,0.005770000163465738,-0.28303998708724976
6741.076923618178,1423535.0,-0.023000000044703484,-0.001820000004954636,0.00267999991774559,-0.28505000472068787
6741.077923390393,1423536.0,-0.024170000106096268,-0.004269999917596579,-0.009720000438392162,-0.28481999039649963
6741.078923162609,1423537.0,-0.023000000044703484,-0.005950000137090683,-0.012400000356137753,-0.28404000401496887
6741.079922934824,1423538.0,-0.02191999927163124,-0.004999999888241291,-0.0019499999471008778,-0.28505000472068787
6741.080922707039,1423539.0,-0.02201000042259693,-0.001769999973475933,0.001769999973475933,-0.2844099998474121
6741.081922479254,1423540.0,-0.022280000150203705,-0.001500000013038516,-0.0006399999838322401,-0.2848699986934662
6741.082922251469,1423541.0,-0.02102000080049038,0.000859999970998615,0.002319999970495701,-0.2845900058746338
6741.083922023685,1423542.0,-0.019589999690651894,-0.0006799999973736703,-0.001500000013038516,-0.2844499945640564
6741.0849217959,1423543.0,-0.018330000340938568,0.003949999809265137,-0.001500000013038516,-0.2856900095939636
6741.085921568116,1423544.0,-0.0175199992954731,0.006039999891072512,-0.0021800000686198473,-0.2858699858188629
6741.08692134033,1423545.0,-0.016440000385046005,0.008449999615550041,-0.0029100000392645597,-0.2854200005531311
6741.087921112546,1423546.0,-0.015720000490546227,0.0035000001080334187,-0.006810000166296959,-0.2854200005531311
6741.088920884761,1423547.0,-0.014820000156760216,0.0021299999207258224,-0.00418000016361475,-0.2844499945640564
6741.089920656977,1423548.0,-0.014019999653100967,-0.001180000021122396,-0.004220000002533197,-0.28624001145362854
6741.090920429192,1423549.0,-0.0129399998113513,-0.003860000055283308,0.001500000013038516,-0.28551000356674194
6741.0919202014065,1423550.0,-0.011230000294744968,-4.999999873689376e-05,0.003590000094845891,-0.286190003156662
6741.092919973622,1423551.0,-0.010239999741315842,0.003949999809265137,0.008949999697506428,-0.28554999828338623
6741.093919745837,1423552.0,-0.009970000013709068,0.009039999917149544,0.0013200000394135714,-0.2857399880886078
6741.094919518053,1423553.0,-0.012760000303387642,0.008489999920129776,0.00839999970048666,-0.2860099971294403
6741.095919290268,1423554.0,-0.01769999973475933,0.004679999779909849,0.002630000002682209,-0.28679001331329346
6741.096919062484,1423555.0,-0.022690000012516975,0.004679999779909849,0.0016799999866634607,-0.2851400077342987
6741.097918834698,1423556.0,-0.02443999983370304,-0.0019099999917671084,-0.00041000000783242285,-0.28665000200271606
6741.098918606914,1423557.0,-0.023989999666810036,-0.008949999697506428,0.005679999943822622,-0.28481999039649963
6741.099918379129,1423558.0,-0.022690000012516975,-0.007309999782592058,0.00031999999191612005,-0.2858699858188629
6741.100918151345,1423559.0,-0.02102000080049038,-0.006219999864697456,-0.006399999838322401,-0.2862899899482727
6741.10191792356,1423560.0,-0.022910000756382942,-0.004769999999552965,0.0009500000160187483,-0.2866100072860718
6741.1029176957745,1423561.0,-0.02363000065088272,-0.004129999782890081,0.000910000002477318,-0.28679001331329346
6741.10391746799,1423562.0,-0.021560000255703926,-0.003860000055283308,0.0010400000028312206,-0.2863300144672394
6741.104917240205,1423563.0,-0.01909000054001808,-0.0030900000128895044,0.00031999999191612005,-0.28610000014305115
6741.105917012421,1423564.0,-0.01779000088572502,0.00031999999191612005,-0.0036800000816583633,-0.28679001331329346
6741.106916784636,1423565.0,-0.0185100007802248,0.0027699999045580626,-0.0029100000392645597,-0.28641998767852783
6741.107916556852,1423566.0,-0.018149999901652336,0.002589999930933118,-0.004999999888241291,-0.28641998767852783
6741.108916329066,1423567.0,-0.018869999796152115,0.0031300000846385956,-0.004220000002533197,-0.28711000084877014
6741.109916101282,1423568.0,-0.01931999996304512,-4.999999873689376e-05,-0.0029100000392645597,-0.28692999482154846
6741.110915873497,1423569.0,-0.01841999962925911,4.999999873689376e-05,0.004900000058114529,-0.28679001331329346
6741.1119156457125,1423570.0,-0.017069999128580093,0.001230000052601099,0.004679999779909849,-0.2870199978351593
6741.112915417928,1423571.0,-0.01508999988436699,0.004999999888241291,0.001769999973475933,-0.28679001331329346
6741.1139151901425,1423572.0,-0.014290000312030315,0.008630000054836273,-0.003949999809265137,-0.2866100072860718
6741.114914962358,1423573.0,-0.015410000458359718,0.006810000166296959,-0.002589999930933118,-0.28641998767852783
6741.115914734573,1423574.0,-0.018060000613331795,0.003220000071451068,0.00267999991774559,-0.28665000200271606
6741.116914506789,1423575.0,-0.021740000694990158,0.003220000071451068,0.002589999930933118,-0.28578001260757446
6741.117914279004,1423576.0,-0.02394000068306923,-0.005040000192821026,0.001449999981559813,-0.2867000102996826
6741.11891405122,1423577.0,-0.02443999983370304,-0.004769999999552965,-0.003590000094845891,-0.28606000542640686
6741.119913823434,1423578.0,-0.022690000012516975,-0.006630000192672014,-0.005539999809116125,-0.2870599925518036
6741.12091359565,1423579.0,-0.020309999585151672,-0.008220000192523003,-0.000539999979082495,-0.2861500084400177
6741.121913367865,1423580.0,-0.018060000613331795,-0.009449999779462814,0.00031999999191612005,-0.2868799865245819
6741.1229131400805,1423581.0,-0.015949999913573265,-0.0022299999836832285,0.00031999999191612005,-0.2862899899482727
6741.123912912296,1423582.0,-0.014059999957680702,0.002859999891370535,0.00031999999191612005,-0.2871600091457367
6741.1249126845105,1423583.0,-0.012760000303387642,0.0014100000262260437,-0.0035000001080334187,-0.28679001331329346
6741.125912456726,1423584.0,-0.011950000189244747,0.00267999991774559,0.002360000042244792,-0.287339985370636
6741.126912228941,1423585.0,-0.011409999802708626,0.005900000222027302,0.009039999917149544,-0.28610000014305115
6741.127912001157,1423586.0,-0.010200000368058681,0.003719999920576811,0.0009500000160187483,-0.28725001215934753
6741.128911773372,1423587.0,-0.010830000042915344,0.0044999998062849045,0.00031999999191612005,-0.28696998953819275
6741.129911545588,1423588.0,-0.012489999644458294,0.003220000071451068,-0.0022700000554323196,-0.28725001215934753
6741.130911317802,1423589.0,-0.011680000461637974,-0.003719999920576811,0.002090000081807375,-0.2868799865245819
6741.131911090018,1423590.0,-0.009970000013709068,0.005859999917447567,0.0019099999917671084,-0.2871600091457367
6741.132910862233,1423591.0,-0.009789999574422836,0.007360000163316727,0.002409999957308173,-0.28641998767852783
6741.1339106344485,1423592.0,-0.011189999990165234,0.0029100000392645597,-0.0027699999045580626,-0.2878899872303009
6741.134910406664,1423593.0,-0.012350000441074371,0.003719999920576811,0.0017300000181421638,-0.2877500057220459
6741.1359101788785,1423594.0,-0.015320000238716602,0.001449999981559813,-0.001820000004954636,-0.28870999813079834
6741.136909951094,1423595.0,-0.017430000007152557,-0.002589999930933118,-0.0024500000290572643,-0.2884399890899658
6741.137909723309,1423596.0,-0.018689999356865883,-0.004220000002533197,-0.00913000013679266,-0.2874299883842468
6741.138909495525,1423597.0,-0.01940999925136566,-0.0031300000846385956,-0.0052200001664459705,-0.2884399890899658
6741.13990926774,1423598.0,-0.018869999796152115,-0.005489999894052744,0.004860000219196081,-0.28692999482154846
6741.140909039955,1423599.0,-0.01689000055193901,-0.004900000058114529,0.0027699999045580626,-0.2886199951171875
6741.14190881217,1423600.0,-0.014600000344216824,-0.007079999893903732,-0.0018599999602884054,-0.2880200147628784
6741.142908584386,1423601.0,-0.011859999969601631,-0.0010400000028312206,-0.0011399999493733048,-0.28683000802993774
6741.143908356601,1423602.0,-0.007459999993443489,0.001769999973475933,-0.0037700000684708357,-0.2884800136089325
6741.1449081288165,1423603.0,-0.005350000225007534,0.006039999891072512,-0.005859999917447567,-0.2876099944114685
6741.145907901031,1423604.0,-0.0034099998883903027,0.002859999891370535,0.0012700000079348683,-0.2886199951171875
6741.1469076732465,1423605.0,-0.002959999954327941,0.00267999991774559,0.0020000000949949026,-0.28679001331329346
6741.147907445462,1423606.0,-0.0017999999690800905,0.006680000107735395,-0.0012700000079348683,-0.2884800136089325
6741.148907217677,1423607.0,-0.00107999995816499,0.008129999972879887,-0.0016299999551847577,-0.2878899872303009
6741.149906989893,1423608.0,-0.0012600000482052565,0.005770000163465738,-0.0027199999894946814,-0.28870999813079834
6741.150906762108,1423609.0,-0.0017099999822676182,0.002630000002682209,0.00267999991774559,-0.28780001401901245
6741.151906534323,1423610.0,-0.0008999999845400453,-0.001500000013038516,0.003949999809265137,-0.28953999280929565
6741.152906306538,1423611.0,-0.0009899999713525176,0.003949999809265137,0.004720000084489584,-0.28889000415802
6741.153906078754,1423612.0,-0.000539999979082495,0.0033199999015778303,-0.0013200000394135714,-0.2893100082874298
6741.154905850969,1423613.0,-0.0009399999980814755,-0.0005000000237487257,-0.00041000000783242285,-0.2888000011444092
6741.1559056231845,1423614.0,-0.002469999948516488,-0.0009500000160187483,0.0044999998062849045,-0.28999000787734985
6741.156905395399,1423615.0,-0.004399999976158142,-0.004679999779909849,0.004129999782890081,-0.28824999928474426
6741.157905167614,1423616.0,-0.00547999981790781,-0.002589999930933118,0.00031999999191612005,-0.28995001316070557
6741.15890493983,1423617.0,-0.00610999995842576,-0.005489999894052744,-0.002630000002682209,-0.28898999094963074
6741.159904712045,1423618.0,-0.006020000204443932,-0.004220000002533197,-0.0002699999895412475,-0.29027000069618225
6741.160904484261,1423619.0,-0.004040000028908253,-0.0030400000978261232,-0.002090000081807375,-0.28870999813079834
6741.161904256476,1423620.0,-0.0047599999234080315,0.00018000000272877514,-0.002589999930933118,-0.28995001316070557
6741.162904028691,1423621.0,-0.005570000037550926,0.0002699999895412475,0.001769999973475933,-0.2884399890899658
6741.163903800906,1423622.0,-0.0047599999234080315,-0.0007300000288523734,0.00913000013679266,-0.28999000787734985
6741.164903573122,1423623.0,-0.004129999782890081,0.003220000071451068,0.00031999999191612005,-0.28889000415802
6741.165903345337,1423624.0,-0.0048500001430511475,-0.00041000000783242285,9.000000136438757e-05,-0.29027000069618225
6741.1669031175525,1423625.0,-0.00547999981790781,0.0010400000028312206,-0.0014100000262260437,-0.28971999883651733
6741.167902889767,1423626.0,-0.005439999978989363,-0.001500000013038516,-0.0016799999866634607,-0.29058998823165894
6741.168902661982,1423627.0,-0.005799999926239252,-0.000859999970998615,0.00031999999191612005,-0.290039986371994
6741.169902434198,1423628.0,-0.0069599999114871025,0.0027699999045580626,0.00031999999191612005,-0.29082000255584717
6741.170902206413,1423629.0,-0.00674000009894371,-4.999999873689376e-05,-0.009630000218749046,-0.2900800108909607
6741.171901978629,1423630.0,-0.00547999981790781,0.000910000002477318,-0.008170000277459621,-0.291920006275177
6741.172901750844,1423631.0,-0.003590000094845891,0.005539999809116125,-0.01030999980866909,-0.2911800146102905
6741.173901523059,1423632.0,-0.0009899999713525176,0.00494999997317791,-0.0022299999836832285,-0.2906799912452698
6741.174901295274,1423633.0,0.00215999991632998,0.005679999943822622,-0.0016299999551847577,-0.29218998551368713
6741.17590106749,1423634.0,0.0047599999234080315,0.0016299999551847577,-0.0003600000054575503,-0.29113999009132385
6741.176900839705,1423635.0,0.005210000090301037,0.00031999999191612005,0.00686000008136034,-0.2911800146102905
6741.17790061192,1423636.0,0.0048500001430511475,0.0016299999551847577,0.004769999999552965,-0.29172998666763306
6741.178900384135,1423637.0,0.0031399999279528856,-4.999999873689376e-05,0.008129999972879887,-0.29155001044273376
6741.17990015635,1423638.0,0.0027000000700354576,-0.005489999894052744,0.0027699999045580626,-0.2922399938106537
6741.180899928566,1423639.0,0.003590000094845891,-0.007309999782592058,-0.006949999835342169,-0.2926500141620636
6741.181899700781,1423640.0,0.005119999870657921,-0.007449999917298555,-0.016580000519752502,-0.29205000400543213
6741.182899472997,1423641.0,0.006149999797344208,-0.00494999997317791,-0.005859999917447567,-0.29328998923301697
6741.183899245212,1423642.0,0.006779999937862158,-0.003449999960139394,0.00031999999191612005,-0.2926900088787079
6741.184899017427,1423643.0,0.005030000116676092,0.001180000021122396,0.004860000219196081,-0.2919600009918213
6741.185898789642,1423644.0,0.005080000031739473,0.006039999891072512,0.00014000000373926014,-0.2938399910926819
6741.186898561858,1423645.0,0.006060000043362379,0.002859999891370535,-0.000590000010561198,-0.2933799922466278
6741.187898334073,1423646.0,0.0070500001311302185,0.00031999999191612005,0.007860000245273113,-0.292279988527298
6741.188898106288,1423647.0,0.007860000245273113,-0.0003600000054575503,0.008489999920129776,-0.2935599982738495
6741.189897878503,1423648.0,0.005840000230818987,0.00031999999191612005,0.007540000136941671,-0.2926500141620636
6741.190897650718,1423649.0,0.0033199999015778303,-0.0011399999493733048,0.0062699997797608376,-0.2947100102901459
6741.191897422934,1423650.0,0.003590000094845891,0.003449999960139394,0.009669999592006207,-0.29420000314712524
6741.192897195149,1423651.0,0.005659999791532755,0.006130000110715628,0.00795000046491623,-0.29343000054359436
6741.193896967365,1423652.0,0.005210000090301037,0.0024500000290572643,-0.002630000002682209,-0.29447999596595764
6741.19489673958,1423653.0,0.0028800000436604023,0.004000000189989805,-0.0071299998089671135,-0.2939299941062927
6741.195896511795,1423654.0,-0.000539999979082495,0.00031999999191612005,-0.004999999888241291,-0.2943899929523468
6741.19689628401,1423655.0,-0.002959999954327941,0.0002300000051036477,-0.0014100000262260437,-0.29475000500679016
6741.1978960562255,1423656.0,-0.003229999914765358,0.003220000071451068,-0.005489999894052744,-0.29374998807907104
6741.198895828441,1423657.0,-0.0027000000700354576,-0.002859999891370535,-0.011669999919831753,-0.29572001099586487
6741.199895600656,1423658.0,-0.0003600000054575503,-0.0033599999733269215,-0.005489999894052744,-0.29434001445770264
6741.200895372871,1423659.0,0.0031399999279528856,-0.002589999930933118,-0.0028200000524520874,-0.2958100140094757
6741.201895145086,1423660.0,0.003949999809265137,0.00014000000373926014,-0.0020000000949949026,-0.2955799996852875
6741.202894917302,1423661.0,0.0053900000639259815,0.00031999999191612005,-0.001449999981559813,-0.2941100001335144
6741.203894689517,1423662.0,0.006829999852925539,-0.0018599999602884054,0.003949999809265137,-0.29603999853134155
6741.204894461733,1423663.0,0.007410000078380108,0.00031999999191612005,-0.0014100000262260437,-0.29561999440193176
6741.205894233947,1423664.0,0.007819999940693378,-0.0034099998883903027,-0.0013599999947473407,-0.2955799996852875
6741.206894006163,1423665.0,0.010689999908208847,-0.0018599999602884054,0.005270000081509352,-0.2955799996852875
6741.207893778378,1423666.0,0.014689999632537365,0.004900000058114529,0.0015399999683722854,-0.2943899929523468
6741.2088935505935,1423667.0,0.015359999611973763,0.0020000000949949026,0.0008200000156648457,-0.29677000641822815
6741.209893322809,1423668.0,0.014379999600350857,0.004360000137239695,-0.0002699999895412475,-0.2955799996852875
6741.2108930950235,1423669.0,0.015629999339580536,0.0016299999551847577,-0.0008200000156648457,-0.29677000641822815
6741.211892867239,1423670.0,0.016620000824332237,0.003590000094845891,-0.0008200000156648457,-0.2961300015449524
6741.212892639454,1423671.0,0.016170000657439232,0.005400000140070915,-0.001180000021122396,-0.2953900098800659
6741.21389241167,1423672.0,0.015809999778866768,0.004679999779909849,0.005810000002384186,-0.29681000113487244
6741.214892183885,1423673.0,0.01508999988436699,0.005770000163465738,0.0022700000554323196,-0.29475000500679016
6741.215891956101,1423674.0,0.012799999676644802,0.0012700000079348683,0.002859999891370535,-0.29635998606681824
6741.216891728315,1423675.0,0.01001999992877245,0.00031999999191612005,0.0024500000290572643,-0.2948499917984009
6741.217891500531,1423676.0,0.010239999741315842,-0.0033199999015778303,0.00872000027447939,-0.2961300015449524
6741.218891272746,1423677.0,0.010470000095665455,-0.00875999964773655,0.0072200000286102295,-0.2962599992752075
6741.2198910449615,1423678.0,0.009789999574422836,-0.007670000195503235,-0.002589999930933118,-0.2975899875164032
6741.220890817177,1423679.0,0.01095999963581562,-0.0045900000259280205,-0.0005000000237487257,-0.2954399883747101
6741.2218905893915,1423680.0,0.013209999538958073,-0.006579999811947346,0.0008200000156648457,-0.29589998722076416
6741.222890361607,1423681.0,0.014999999664723873,-0.0011399999493733048,-0.0027699999045580626,-0.29767999053001404
6741.223890133822,1423682.0,0.014379999600350857,-0.000590000010561198,-0.010219999589025974,-0.29589998722076416
6741.224889906038,1423683.0,0.011140000075101852,0.0020000000949949026,-0.006219999864697456,-0.296860009431839
6741.225889678253,1423684.0,0.007639999967068434,0.0002300000051036477,-0.0015899999998509884,-0.2956700026988983
6741.226889450469,1423685.0,0.007189999800175428,0.0045900000259280205,-0.004129999782890081,-0.29681000113487244
6741.227889222683,1423686.0,0.009700000286102295,0.004000000189989805,-0.005489999894052744,-0.2967199981212616
6741.228888994899,1423687.0,0.012400000356137753,0.004269999917596579,-0.0010900000343099236,-0.2966800034046173
6741.229888767114,1423688.0,0.01384000014513731,0.0016799999866634607,0.001769999973475933,-0.2975499927997589
6741.2308885393295,1423689.0,0.014379999600350857,0.001230000052601099,0.0024500000290572643,-0.2958100140094757
6741.231888311545,1423690.0,0.014379999600350857,0.002950000111013651,0.00031999999191612005,-0.2975899875164032
6741.2328880837595,1423691.0,0.015359999611973763,0.007579999975860119,-0.000859999970998615,-0.2961300015449524
6741.233887855975,1423692.0,0.015449999831616879,0.001769999973475933,-0.003000000026077032,-0.2974100112915039
6741.23488762819,1423693.0,0.014379999600350857,0.002950000111013651,0.001230000052601099,-0.2953000068664551
6741.235887400406,1423694.0,0.011500000022351742,-0.004540000110864639,0.00031999999191612005,-0.29690998792648315
6741.236887172621,1423695.0,0.009519999846816063,-0.0013599999947473407,-0.0010900000343099236,-0.29594001173973083
6741.237886944837,1423696.0,0.0088900001719594,-0.0062699997797608376,-0.003949999809265137,-0.296860009431839
6741.238886717051,1423697.0,0.008799999952316284,-0.008220000192523003,0.001769999973475933,-0.296860009431839
6741.239886489267,1423698.0,0.008270000107586384,-0.009580000303685665,0.005859999917447567,-0.2966800034046173
6741.240886261482,1423699.0,0.008799999952316284,4.999999873689376e-05,0.0010400000028312206,-0.2981399893760681
6741.2418860336975,1423700.0,0.010420000180602074,-0.0013200000394135714,-0.0003600000054575503,-0.2961699962615967
6741.242885805913,1423701.0,0.013609999790787697,0.0010400000028312206,0.0010400000028312206,-0.29732000827789307
6741.243885578127,1423702.0,0.017069999128580093,-0.00044999999227002263,0.008580000139772892,-0.2955799996852875
6741.244885350343,1423703.0,0.019859999418258667,0.002409999957308173,0.0014100000262260437,-0.29677000641822815
6741.245885122558,1423704.0,0.020749999210238457,0.00203999993391335,-0.0025400000158697367,-0.2965399920940399
6741.246884894774,1423705.0,0.020479999482631683,0.0018599999602884054,0.00031999999191612005,-0.2970399856567383
6741.247884666989,1423706.0,0.020309999585151672,-0.0045900000259280205,0.006089999806135893,-0.2970399856567383
6741.248884439205,1423707.0,0.01931999996304512,0.001820000004954636,0.0044999998062849045,-0.2970399856567383
6741.249884211419,1423708.0,0.01689000055193901,0.00031999999191612005,-0.0024999999441206455,-0.29695001244544983
6741.250883983635,1423709.0,0.013880000449717045,0.0031799999997019768,-0.005179999861866236,-0.296999990940094
6741.25188375585,1423710.0,0.011859999969601631,0.00203999993391335,-0.000539999979082495,-0.2964499890804291
6741.2528835280655,1423711.0,0.011140000075101852,0.0031300000846385956,-0.004000000189989805,-0.29763999581336975
6741.253883300281,1423712.0,0.00925000011920929,0.0033599999733269215,-0.003269999986514449,-0.2964499890804291
6741.254883072495,1423713.0,0.007369999773800373,0.0030400000978261232,-0.003949999809265137,-0.29809999465942383
6741.255882844711,1423714.0,0.0036800000816583633,0.007579999975860119,-0.002319999970495701,-0.2970399856567383
6741.256882616926,1423715.0,0.0017500000540167093,0.00031999999191612005,9.000000136438757e-05,-0.2972300052642822
6741.257882389142,1423716.0,0.001120000029914081,0.0015899999998509884,-0.0011399999493733048,-0.29822999238967896
6741.258882161357,1423717.0,0.0023399998899549246,-0.000859999970998615,0.0024500000290572643,-0.2971299886703491
6741.259881933573,1423718.0,0.003590000094845891,-0.006719999946653843,-0.0021800000686198473,-0.29690998792648315
6741.260881705787,1423719.0,0.004579999949783087,-0.004900000058114529,-0.004860000219196081,-0.29767999053001404
6741.261881478003,1423720.0,0.0047599999234080315,-0.0027699999045580626,0.005450000055134296,-0.29763999581336975
6741.262881250218,1423721.0,0.00547999981790781,-0.002950000111013651,-0.0013599999947473407,-0.2972699999809265
6741.263881022433,1423722.0,0.006829999852925539,-0.002360000042244792,-0.001230000052601099,-0.29778000712394714
6741.264880794649,1423723.0,0.00800000037997961,-0.0018599999602884054,-0.00041000000783242285,-0.29818999767303467
6741.265880566863,1423724.0,0.009519999846816063,0.0002699999895412475,0.0016799999866634607,-0.29695001244544983
6741.266880339079,1423725.0,0.011370000429451466,-0.000590000010561198,0.0024500000290572643,-0.29892000555992126
6741.267880111294,1423726.0,0.012400000356137753,0.005489999894052744,0.005590000189840794,-0.29818999767303467
6741.26887988351,1423727.0,0.014019999653100967,-0.0013599999947473407,0.001180000021122396,-0.29732000827789307
6741.269879655725,1423728.0,0.01348000019788742,0.0010000000474974513,0.009399999864399433,-0.298550009727478
6741.27087942794,1423729.0,0.011859999969601631,0.00031999999191612005,-0.001230000052601099,-0.29822999238967896
6741.271879200155,1423730.0,0.011009999550879002,0.005400000140070915,-0.0033199999015778303,-0.298550009727478
6741.272878972371,1423731.0,0.011680000461637974,0.006130000110715628,0.002409999957308173,-0.29850998520851135
6741.273878744586,1423732.0,0.010649999603629112,0.001769999973475933,-0.000590000010561198,-0.29850998520851135
6741.274878516801,1423733.0,0.011189999990165234,0.0013200000394135714,-0.0033199999015778303,-0.2987399995326996
6741.275878289016,1423734.0,0.010870000347495079,0.004360000137239695,-0.0037700000684708357,-0.2981399893760681
6741.276878061231,1423735.0,0.008799999952316284,0.0008200000156648457,-0.0002300000051036477,-0.2994700074195862
6741.277877833447,1423736.0,0.00646999990567565,-0.0033599999733269215,-0.005489999894052744,-0.2988699972629547
6741.278877605662,1423737.0,0.004310000222176313,-0.004040000028908253,-0.006579999811947346,-0.29910001158714294
6741.279877377878,1423738.0,0.0020699999295175076,-0.006039999891072512,-0.005950000137090683,-0.298550009727478
6741.280877150093,1423739.0,-0.00107999995816499,-0.0017300000181421638,-0.00267999991774559,-0.3004299998283386
6741.281876922308,1423740.0,-0.005530000198632479,-0.004769999999552965,0.000910000002477318,-0.29941999912261963
6741.282876694523,1423741.0,-0.012489999644458294,0.00018000000272877514,4.999999873689376e-05,-0.29850998520851135
6741.283876466739,1423742.0,-0.019859999418258667,-0.0031300000846385956,0.003220000071451068,-0.29877999424934387
6741.284876238954,1423743.0,-0.02857000008225441,0.002859999891370535,0.005770000163465738,-0.3007499873638153
6741.285876011169,1423744.0,-0.03799999877810478,0.0021299999207258224,0.0012700000079348683,-0.2996099889278412
6741.286875783384,1423745.0,-0.04958999902009964,0.004629999864846468,0.002630000002682209,-0.2988699972629547
6741.287875555599,1423746.0,-0.06029000133275986,0.0024999999441206455,0.005179999861866236,-0.29997000098228455
6741.288875327815,1423747.0,-0.07002999633550644,0.0009500000160187483,0.002589999930933118,-0.3007499873638153
6741.28987510003,1423748.0,-0.07852999866008759,0.003590000094845891,0.0014100000262260437,-0.3001599907875061
6741.290874872246,1423749.0,-0.08930999785661697,-0.0015899999998509884,-0.0033599999733269215,-0.29910001158714294
6741.291874644461,1423750.0,-0.1012599989771843,0.006089999806135893,-0.007269999943673611,-0.3001599907875061
6741.292874416676,1423751.0,-0.11482000350952148,0.003000000026077032,-0.0024500000290572643,-0.3007499873638153
6741.293874188891,1423752.0,-0.12820999324321747,0.010540000163018703,0.004999999888241291,-0.30011001229286194
6741.2948739611065,1423753.0,-0.14249999821186066,0.009039999917149544,-0.000859999970998615,-0.2994700074195862
6741.295873733322,1423754.0,-0.15453000366687775,0.005309999920427799,-0.004220000002533197,-0.300929993391037
6741.296873505537,1423755.0,-0.16652999818325043,0.0030900000128895044,-0.005040000192821026,-0.3014400005340576
6741.297873277752,1423756.0,-0.17770999670028687,-0.006219999864697456,-0.003269999986514449,-0.3007499873638153
6741.298873049967,1423757.0,-0.18795999884605408,-0.005679999943822622,-0.004269999917596579,-0.300570011138916
6741.299872822183,1423758.0,-0.1945199966430664,-0.005489999894052744,-0.0033599999733269215,-0.3003399968147278
6741.300872594398,1423759.0,-0.1954600065946579,-0.006949999835342169,0.002589999930933118,-0.301800012588501
6741.301872366614,1423760.0,-0.19267000257968903,0.00031999999191612005,0.004679999779909849,-0.3014400005340576
6741.302872138829,1423761.0,-0.1867000013589859,-0.006949999835342169,0.001449999981559813,-0.29965001344680786
6741.303871911044,1423762.0,-0.17767000198364258,-0.0009500000160187483,-0.0019499999471008778,-0.3020800054073334
6741.304871683259,1423763.0,-0.16261999309062958,-0.001500000013038516,0.00031999999191612005,-0.300929993391037
6741.3058714554745,1423764.0,-0.14388999342918396,-0.003539999946951866,0.008310000412166119,-0.30083999037742615
6741.30687122769,1423765.0,-0.12964999675750732,0.001769999973475933,0.00795000046491623,-0.3011600077152252
6741.307870999905,1423766.0,-0.11468999832868576,0.001769999973475933,0.00031999999191612005,-0.30079999566078186
6741.30887077212,1423767.0,-0.09452000260353088,0.007860000245273113,-0.0006799999973736703,-0.30098000168800354
6741.309870544335,1423768.0,-0.0743900015950203,0.006680000107735395,-0.0011399999493733048,-0.3018999993801117
6741.310870316551,1423769.0,-0.052560001611709595,-0.0035000001080334187,0.0007300000288523734,-0.30052000284194946
6741.311870088766,1423770.0,-0.028440000489354134,0.0022299999836832285,-0.0009500000160187483,-0.3007499873638153
6741.312869860982,1423771.0,0.0011699999449774623,0.006949999835342169,-0.002589999930933118,-0.30239999294281006
6741.313869633197,1423772.0,0.032340001314878464,0.008310000412166119,0.0010400000028312206,-0.30125001072883606
6741.314869405412,1423773.0,0.06764999777078629,0.005770000163465738,0.004999999888241291,-0.30037999153137207
6741.315869177627,1423774.0,0.10008999705314636,0.008170000277459621,0.004000000189989805,-0.30254000425338745
6741.3168689498425,1423775.0,0.12910999357700348,0.005900000222027302,0.0,-0.3014400005340576
6741.317868722058,1423776.0,0.15103000402450562,0.00031999999191612005,-0.002950000111013651,-0.3010300099849701
6741.318868494273,1423777.0,0.16163000464439392,9.000000136438757e-05,0.0022700000554323196,-0.301800012588501
6741.319868266488,1423778.0,0.1642799973487854,-0.006719999946653843,0.0044999998062849045,-0.3018999993801117
6741.320868038703,1423779.0,0.16999000310897827,-0.007860000245273113,0.0015399999683722854,-0.3014400005340576
6741.321867810919,1423780.0,0.18508000671863556,-0.0072200000286102295,-0.0051299999468028545,-0.300929993391037
6741.322867583134,1423781.0,0.20771999657154083,-0.006579999811947346,0.00031999999191612005,-0.30272001028060913
6741.32386735535,1423782.0,0.23323999345302582,-0.0033199999015778303,0.003000000026077032,-0.30171000957489014
6741.324867127565,1423783.0,0.2556999921798706,0.0015899999998509884,-0.0010400000028312206,-0.30070000886917114
6741.32586689978,1423784.0,0.2710599899291992,0.001820000004954636,-0.0036800000816583633,-0.3008899986743927
6741.326866671995,1423785.0,0.2801400125026703,0.00031999999191612005,-0.001500000013038516,-0.301800012588501
6741.3278664442105,1423786.0,0.2827000021934509,0.004449999891221523,-0.0018599999602884054,-0.30298998951911926
6741.328866216426,1423787.0,0.28202998638153076,0.00031999999191612005,0.0019099999917671084,-0.30199000239372253
6741.329865988641,1423788.0,0.27761998772621155,-0.004220000002533197,0.010219999589025974,-0.3014400005340576
6741.330865760856,1423789.0,0.26620998978614807,-0.005040000192821026,0.003909999970346689,-0.30184999108314514
6741.331865533071,1423790.0,0.2539899945259094,-0.002589999930933118,-0.0002699999895412475,-0.3016200065612793
6741.332865305287,1423791.0,0.24765999615192413,0.006130000110715628,-0.004129999782890081,-0.3012999892234802
6741.333865077502,1423792.0,0.2424899935722351,0.0013599999947473407,-0.004769999999552965,-0.30112001299858093
6741.334864849718,1423793.0,0.2401600033044815,0.006039999891072512,-0.004310000222176313,-0.30125001072883606
6741.335864621932,1423794.0,0.2388100028038025,-0.0018599999602884054,-0.0016799999866634607,-0.30254000425338745
6741.336864394148,1423795.0,0.24276000261306763,-0.005770000163465738,-0.0013200000394135714,-0.30309000611305237
6741.337864166363,1423796.0,0.2487799972295761,-0.0020000000949949026,0.00031999999191612005,-0.30309000611305237
6741.3388639385785,1423797.0,0.2464900016784668,-0.0007300000288523734,-0.0015399999683722854,-0.30254000425338745
6741.339863710794,1423798.0,0.23688000440597534,0.00031999999191612005,-0.0024500000290572643,-0.30254000425338745
6741.340863483008,1423799.0,0.220660001039505,-0.00014000000373926014,-0.0027199999894946814,-0.3008899986743927
6741.341863255224,1423800.0,0.20247000455856323,-0.000590000010561198,-0.0033199999015778303,-0.30257999897003174
6741.342863027439,1423801.0,0.18508000671863556,0.001769999973475933,0.004900000058114529,-0.3026300072669983
6741.343862799655,1423802.0,0.16814999282360077,0.003539999946951866,0.0021299999207258224,-0.30281001329421997
6741.34486257187,1423803.0,0.1485999971628189,0.0014100000262260437,0.003539999946951866,-0.3011600077152252
6741.345862344086,1423804.0,0.12803000211715698,0.003949999809265137,0.005309999920427799,-0.3033599853515625
6741.3468621163,1423805.0,0.10822000354528427,0.001500000013038516,0.005040000192821026,-0.30226001143455505
6741.347861888516,1423806.0,0.09055999666452408,0.005770000163465738,0.006810000166296959,-0.3023099899291992
6741.348861660731,1423807.0,0.07519999891519547,0.004540000110864639,0.012310000136494637,-0.3014400005340576
6741.349861432946,1423808.0,0.06055999919772148,0.003220000071451068,0.007309999782592058,-0.30184999108314514
6741.350861205162,1423809.0,0.04735000059008598,0.0037700000684708357,0.003909999970346689,-0.30327001214027405
6741.351860977376,1423810.0,0.03809000179171562,-0.0009500000160187483,-0.0010900000343099236,-0.30254000425338745
6741.352860749592,1423811.0,0.02986999973654747,0.005590000189840794,-0.003269999986514449,-0.3023500144481659
6741.353860521807,1423812.0,0.021560000255703926,0.0031300000846385956,-0.004310000222176313,-0.30171000957489014
6741.354860294023,1423813.0,0.012310000136494637,0.004679999779909849,-0.0033599999733269215,-0.3035399913787842
6741.355860066238,1423814.0,0.003100000089034438,0.00031999999191612005,-0.0027699999045580626,-0.3028999865055084
6741.356859838454,1423815.0,-0.0030499999411404133,-0.0033199999015778303,-0.0010000000474974513,-0.30254000425338745
6741.357859610668,1423816.0,-0.006020000204443932,-0.0016799999866634607,-0.0037700000684708357,-0.30281001329421997
6741.358859382884,1423817.0,-0.007910000160336494,-0.004769999999552965,-0.002950000111013651,-0.3016200065612793
6741.359859155099,1423818.0,-0.008179999887943268,-0.0064500002190470695,-0.006949999835342169,-0.3028999865055084
6741.360858927314,1423819.0,-0.008089999668300152,-0.0013599999947473407,-0.004449999891221523,-0.3034999966621399
6741.36185869953,1423820.0,-0.009479999542236328,-0.0027699999045580626,-0.0019099999917671084,-0.3028999865055084
6741.362858471744,1423821.0,-0.009879999794065952,-0.005489999894052744,-0.003000000026077032,-0.3028999865055084
6741.36385824396,1423822.0,-0.009879999794065952,0.00014000000373926014,-0.003000000026077032,-0.3018999993801117
6741.364858016175,1423823.0,-0.009929999709129333,-0.002589999930933118,0.00031999999191612005,-0.30399999022483826
6741.365857788391,1423824.0,-0.011140000075101852,-0.0006399999838322401,0.0012700000079348683,-0.302949994802475
6741.366857560606,1423825.0,-0.011769999749958515,0.00018000000272877514,-0.001769999973475933,-0.3028999865055084
6741.367857332822,1423826.0,-0.01271000038832426,0.0022299999836832285,0.00031999999191612005,-0.30171000957489014
6741.368857105036,1423827.0,-0.016130000352859497,-0.0002699999895412475,0.003860000055283308,-0.3033599853515625
6741.369856877252,1423828.0,-0.018459999933838844,-9.000000136438757e-05,0.0027199999894946814,-0.30313000082969666
6741.370856649467,1423829.0,-0.018459999933838844,0.0064500002190470695,0.00267999991774559,-0.30281001329421997
6741.371856421682,1423830.0,-0.01860000006854534,0.004129999782890081,-9.000000136438757e-05,-0.3014400005340576
6741.372856193898,1423831.0,-0.01841999962925911,0.0072200000286102295,0.0,-0.30243998765945435
6741.373855966112,1423832.0,-0.01899999938905239,0.005270000081509352,0.007400000002235174,-0.30331000685691833
6741.374855738328,1423833.0,-0.020840000361204147,0.0063599999994039536,0.0024999999441206455,-0.30171000957489014
6741.375855510543,1423834.0,-0.022690000012516975,0.00571999978274107,-0.0007699999841861427,-0.30070000886917114
6741.376855282759,1423835.0,-0.024890000000596046,-0.00041000000783242285,-0.00018000000272877514,-0.3011600077152252
6741.377855054974,1423836.0,-0.028030000627040863,-0.004089999943971634,-0.0012700000079348683,-0.3018999993801117
6741.37885482719,1423837.0,-0.028300000354647636,-0.00267999991774559,-0.0036800000816583633,-0.30098000168800354
6741.379854599404,1423838.0,-0.028030000627040863,-0.0059899999760091305,-0.003909999970346689,-0.30112001299858093
6741.3808543716195,1423839.0,-0.028300000354647636,-0.0033199999015778303,-0.004040000028908253,-0.3000200092792511
6741.381854143835,1423840.0,-0.02727000042796135,-0.002409999957308173,-0.000590000010561198,-0.30138999223709106
6741.38285391605,1423841.0,-0.025609999895095825,-0.004040000028908253,-0.005179999861866236,-0.3003399968147278
6741.383853688266,1423842.0,-0.02363000065088272,0.003949999809265137,-0.004809999838471413,-0.2997399866580963
6741.38485346048,1423843.0,-0.02201000042259693,0.00203999993391335,-0.0010400000028312206,-0.29850998520851135
6741.385853232696,1423844.0,-0.020980000495910645,0.005400000140070915,0.0009500000160187483,-0.30037999153137207
6741.386853004911,1423845.0,-0.01940999925136566,0.0037700000684708357,0.001769999973475933,-0.2987399995326996
6741.387852777127,1423846.0,-0.017829999327659607,0.0016799999866634607,0.0022700000554323196,-0.2979600131511688
6741.388852549342,1423847.0,-0.018279999494552612,0.004310000222176313,0.00571999978274107,-0.29690998792648315
6741.389852321558,1423848.0,-0.018869999796152115,-0.001449999981559813,0.00535999983549118,-0.29877999424934387
6741.390852093772,1423849.0,-0.01720999926328659,0.00031999999191612005,0.00031999999191612005,-0.2974500060081482
6741.3918518659875,1423850.0,-0.015990000218153,-0.003909999970346689,0.0037700000684708357,-0.29594001173973083
6741.392851638203,1423851.0,-0.01761000044643879,0.001500000013038516,-0.0003600000054575503,-0.2971799969673157
6741.393851410418,1423852.0,-0.021649999544024467,-0.0015399999683722854,0.003719999920576811,-0.2964000105857849
6741.394851182634,1423853.0,-0.025340000167489052,0.002319999970495701,-0.005489999894052744,-0.2953000068664551
6741.395850954848,1423854.0,-0.02776000089943409,9.000000136438757e-05,-0.01030999980866909,-0.29690998792648315
6741.396850727064,1423855.0,-0.02947000041604042,-0.004679999779909849,-0.005539999809116125,-0.29576000571250916
6741.397850499279,1423856.0,-0.032430000603199005,-0.010540000163018703,0.0030900000128895044,-0.2938399910926819
6741.398850271495,1423857.0,-0.03491000086069107,-0.002360000042244792,0.003860000055283308,-0.2949399948120117
6741.39985004371,1423858.0,-0.03440999984741211,-0.002589999930933118,0.0030400000978261232,-0.29502999782562256
6741.400849815925,1423859.0,-0.032249998301267624,-0.001500000013038516,0.005770000163465738,-0.2941100001335144
6741.40184958814,1423860.0,-0.031220000237226486,-0.003000000026077032,0.005810000002384186,-0.29374998807907104
6741.4028493603555,1423861.0,-0.029559999704360962,-0.002589999930933118,-0.005679999943822622,-0.2927899956703186
6741.403849132571,1423862.0,-0.027000000700354576,0.003949999809265137,-0.005090000107884407,-0.2925100028514862
6741.404848904786,1423863.0,-0.02425999939441681,0.0018599999602884054,-0.00494999997317791,-0.29205000400543213
6741.405848677001,1423864.0,-0.022280000150203705,0.0045900000259280205,-0.00880999956279993,-0.29201000928878784
6741.406848449216,1423865.0,-0.02191999927163124,0.007040000054985285,-0.008220000192523003,-0.292279988527298
6741.407848221432,1423866.0,-0.022099999710917473,0.004679999779909849,-0.00571999978274107,-0.2928299903869629
6741.408847993647,1423867.0,-0.020080000162124634,0.001230000052601099,-0.005590000189840794,-0.291920006275177
6741.409847765863,1423868.0,-0.018279999494552612,0.004679999779909849,-0.000539999979082495,-0.29172998666763306
6741.410847538078,1423869.0,-0.017340000718832016,0.00031999999191612005,0.004540000110864639,-0.28999000787734985
6741.411847310293,1423870.0,-0.015589999966323376,0.001769999973475933,0.009170000441372395,-0.2902199923992157
6741.412847082508,1423871.0,-0.014019999653100967,0.0037700000684708357,0.009759999811649323,-0.2916400134563446
6741.4138468547235,1423872.0,-0.0129399998113513,0.004679999779909849,0.0015899999998509884,-0.29012998938560486
6741.414846626939,1423873.0,-0.01217000000178814,-0.00203999993391335,0.00031999999191612005,-0.2906300127506256
6741.415846399154,1423874.0,-0.012760000303387642,-0.0011399999493733048,-0.0027199999894946814,-0.2889400124549866
6741.416846171369,1423875.0,-0.01351999957114458,-0.0003600000054575503,-0.004360000137239695,-0.290039986371994
6741.417845943584,1423876.0,-0.014469999819993973,-0.00044999999227002263,-0.0051299999468028545,-0.2897599935531616
6741.4188457158,1423877.0,-0.014639999717473984,-0.004769999999552965,0.00031999999191612005,-0.28922000527381897
6741.419845488015,1423878.0,-0.015629999339580536,-0.0034099998883903027,-0.001500000013038516,-0.2877500057220459
6741.420845260231,1423879.0,-0.016669999808073044,-0.002090000081807375,0.001769999973475933,-0.2880200147628784
6741.421845032446,1423880.0,-0.01679999940097332,-0.009630000218749046,0.0064500002190470695,-0.28911998867988586
6741.422844804661,1423881.0,-0.016529999673366547,-0.0011399999493733048,0.0002699999895412475,-0.28769999742507935
6741.423844576876,1423882.0,-0.01679999940097332,-0.0006399999838322401,-0.006219999864697456,-0.28751999139785767
6741.4248443490915,1423883.0,-0.015270000323653221,0.00031999999191612005,-0.003909999970346689,-0.28679001331329346
6741.425844121307,1423884.0,-0.010599999688565731,0.0045900000259280205,-0.006130000110715628,-0.2879300117492676
6741.426843893522,1423885.0,-0.005530000198632479,0.0015899999998509884,-0.00014000000373926014,-0.28725001215934753
6741.427843665737,1423886.0,-0.0023399998899549246,0.004310000222176313,0.0024999999441206455,-0.28591999411582947
6741.428843437952,1423887.0,-0.00018000000272877514,0.002859999891370535,0.002319999970495701,-0.28606000542640686
6741.429843210168,1423888.0,0.0002699999895412475,0.003809999907389283,-0.000539999979082495,-0.28641998767852783
6741.430842982383,1423889.0,-0.0006300000241026282,0.00031999999191612005,0.0014100000262260437,-0.28591999411582947
6741.431842754599,1423890.0,-0.002520000096410513,0.00031999999191612005,0.0024999999441206455,-0.2844499945640564
6741.432842526814,1423891.0,-0.004220000002533197,0.002090000081807375,0.00571999978274107,-0.28582999110221863
6741.433842299029,1423892.0,-0.006200000178068876,0.005770000163465738,0.002630000002682209,-0.2851000130176544
6741.434842071244,1423893.0,-0.01051000040024519,0.007860000245273113,0.0016799999866634607,-0.28468000888824463
6741.4358418434595,1423894.0,-0.01568000018596649,-0.00041000000783242285,0.00535999983549118,-0.28395000100135803
6741.436841615675,1423895.0,-0.01940999925136566,0.0010400000028312206,0.0033599999733269215,-0.2828499972820282
6741.43784138789,1423896.0,-0.020169999450445175,4.999999873689376e-05,-0.0012700000079348683,-0.28349000215530396
6741.438841160105,1423897.0,-0.022059999406337738,-0.002589999930933118,-0.0062699997797608376,-0.2840000092983246
6741.43984093232,1423898.0,-0.02191999927163124,-0.0044999998062849045,-0.001500000013038516,-0.2838599979877472
6741.440840704536,1423899.0,-0.02191999927163124,-0.0033599999733269215,-0.002409999957308173,-0.28275999426841736
6741.441840476751,1423900.0,-0.020309999585151672,-0.005770000163465738,-0.0019099999917671084,-0.2824400067329407
6741.442840248967,1423901.0,-0.018149999901652336,-0.0017300000181421638,0.003220000071451068,-0.2815200090408325
6741.443840021182,1423902.0,-0.015180000104010105,0.00031999999191612005,0.0,-0.28275999426841736
6741.444839793397,1423903.0,-0.012400000356137753,0.00031999999191612005,-0.0036800000816583633,-0.28148001432418823
6741.445839565612,1423904.0,-0.011099999770522118,0.004860000219196081,-0.006949999835342169,-0.28101998567581177
6741.446839337827,1423905.0,-0.010599999688565731,0.0008200000156648457,-0.005489999894052744,-0.2798300087451935
6741.447839110043,1423906.0,-0.007280000019818544,-0.0011399999493733048,-0.002090000081807375,-0.28115999698638916
6741.448838882258,1423907.0,-0.0048500001430511475,-0.001820000004954636,0.0002699999895412475,-0.2803800106048584
6741.449838654473,1423908.0,-0.0036800000816583633,-0.0033599999733269215,0.003449999960139394,-0.27932998538017273
6741.450838426688,1423909.0,-0.004670000169426203,0.0013200000394135714,-0.00044999999227002263,-0.27873000502586365
6741.451838198904,1423910.0,-0.005530000198632479,0.0014100000262260437,0.005590000189840794,-0.2801100015640259
6741.452837971119,1423911.0,-0.005659999791532755,0.009309999644756317,0.009039999917149544,-0.27869001030921936
6741.453837743335,1423912.0,-0.009030000306665897,0.004040000028908253,0.006039999891072512,-0.2776300013065338
6741.45483751555,1423913.0,-0.01508999988436699,0.006490000057965517,0.013399999588727951,-0.2789599895477295
6741.455837287765,1423914.0,-0.019859999418258667,0.00031999999191612005,0.0022299999836832285,-0.27799999713897705
6741.45683705998,1423915.0,-0.02273000031709671,0.004129999782890081,-0.003909999970346689,-0.27799999713897705
6741.457836832195,1423916.0,-0.024620000272989273,-0.001769999973475933,-0.009759999811649323,-0.2773599922657013
6741.458836604411,1423917.0,-0.02525000087916851,-0.0033599999733269215,-0.007899999618530273,-0.27772998809814453
6741.459836376626,1423918.0,-0.023669999092817307,-0.007860000245273113,-0.007449999917298555,-0.27713000774383545
6741.460836148841,1423919.0,-0.02363000065088272,-0.0017300000181421638,-0.010759999975562096,-0.2763499915599823
6741.461835921056,1423920.0,-0.025520000606775284,-0.0071299998089671135,-0.013120000250637531,-0.27713000774383545
6741.462835693272,1423921.0,-0.029020000249147415,0.0008200000156648457,-0.002950000111013651,-0.27671998739242554
6741.463835465487,1423922.0,-0.03189999982714653,0.000910000002477318,0.0013200000394135714,-0.2754400074481964
6741.464835237703,1423923.0,-0.03305999934673309,0.002630000002682209,0.006130000110715628,-0.27726998925209045
6741.465835009917,1423924.0,-0.032519999891519547,-9.000000136438757e-05,0.007079999893903732,-0.276309996843338
6741.4668347821325,1423925.0,-0.03229999914765358,0.004089999943971634,0.002589999930933118,-0.2747499942779541
6741.467834554348,1423926.0,-0.029510000720620155,0.000910000002477318,-0.0012700000079348683,-0.27658000588417053
6741.468834326563,1423927.0,-0.026319999247789383,0.0008200000156648457,0.0013599999947473407,-0.2757999897003174
6741.469834098779,1423928.0,-0.023269999772310257,0.0010000000474974513,-0.0007699999841861427,-0.2750700116157532
6741.470833870993,1423929.0,-0.018869999796152115,0.0013200000394135714,0.004220000002533197,-0.27524998784065247
6741.471833643209,1423930.0,-0.015809999778866768,0.005400000140070915,0.003909999970346689,-0.276309996843338
6741.472833415424,1423931.0,-0.014329999685287476,0.00031999999191612005,0.0016799999866634607,-0.2750700116157532
6741.47383318764,1423932.0,-0.014379999600350857,0.00686000008136034,-0.000590000010561198,-0.2745699882507324
6741.474832959855,1423933.0,-0.014019999653100967,0.004129999782890081,0.0011399999493733048,-0.2756200134754181
6741.475832732071,1423934.0,-0.015449999831616879,0.003719999920576811,0.00014000000373926014,-0.27584999799728394
6741.476832504285,1423935.0,-0.01761000044643879,0.0022700000554323196,0.0006799999973736703,-0.27511999011039734
6741.4778322765005,1423936.0,-0.017340000718832016,-0.0002300000051036477,0.004900000058114529,-0.2742899954319
6741.478832048716,1423937.0,-0.017650000751018524,-0.004040000028908253,0.005900000222027302,-0.27469998598098755
6741.479831820931,1423938.0,-0.01779000088572502,-0.004999999888241291,0.0022299999836832285,-0.2754400074481964
6741.480831593147,1423939.0,-0.018370000645518303,-0.004220000002533197,-0.003220000071451068,-0.2750700116157532
6741.481831365361,1423940.0,-0.015410000458359718,-0.0028200000524520874,0.00018000000272877514,-0.27397000789642334
6741.482831137577,1423941.0,-0.012129999697208405,0.00031999999191612005,-0.00014000000373926014,-0.2750700116157532
6741.483830909792,1423942.0,-0.009069999679923058,-0.002589999930933118,0.0024999999441206455,-0.2744300067424774
6741.484830682008,1423943.0,-0.00674000009894371,0.0034099998883903027,0.0030900000128895044,-0.27351000905036926
6741.485830454223,1423944.0,-0.00646999990567565,0.0014100000262260437,0.002950000111013651,-0.27437999844551086
6741.4868302264385,1423945.0,-0.005929999984800816,0.003220000071451068,0.00031999999191612005,-0.27498000860214233
6741.487829998653,1423946.0,-0.00547999981790781,0.0015899999998509884,-0.006539999973028898,-0.27469998598098755
6741.4888297708685,1423947.0,-0.004129999782890081,0.004809999838471413,-0.012029999867081642,-0.27364999055862427
6741.489829543084,1423948.0,-0.0028800000436604023,0.0010400000028312206,-0.013939999975264072,-0.27480000257492065
6741.490829315299,1423949.0,-0.0028800000436604023,-0.000910000002477318,-0.009039999917149544,-0.2740600109100342
6741.491829087515,1423950.0,-0.002959999954327941,-0.0006399999838322401,-0.005810000002384186,-0.27437999844551086
6741.492828859729,1423951.0,-0.0027000000700354576,0.004679999779909849,-0.002589999930933118,-0.27324000000953674
6741.493828631945,1423952.0,-0.00215999991632998,0.002630000002682209,0.0014100000262260437,-0.2741999924182892
6741.49482840416,1423953.0,-0.0034099998883903027,-0.0021299999207258224,-0.000590000010561198,-0.2737399935722351
6741.495828176376,1423954.0,-0.0053900000639259815,0.0021299999207258224,-0.0003600000054575503,-0.2736999988555908
6741.496827948591,1423955.0,-0.008179999887943268,-0.005810000002384186,0.009850000031292439,-0.2721399962902069
6741.4978277208065,1423956.0,-0.011590000241994858,-0.0015899999998509884,0.009259999729692936,-0.27397000789642334
6741.498827493021,1423957.0,-0.014910000376403332,-0.005859999917447567,0.004310000222176313,-0.27309998869895935
6741.4998272652365,1423958.0,-0.014419999904930592,-0.006039999891072512,-0.0016799999866634607,-0.27237001061439514
6741.500827037452,1423959.0,-0.010870000347495079,-0.007809999864548445,0.003539999946951866,-0.27338001132011414
6741.501826809667,1423960.0,-0.005119999870657921,-0.0019099999917671084,-0.0011399999493733048,-0.2728300094604492
6741.502826581883,1423961.0,0.0003100000030826777,-0.002859999891370535,0.003220000071451068,-0.27149999141693115
6741.503826354097,1423962.0,0.003590000094845891,-0.0007699999841861427,0.00031999999191612005,-0.2727400064468384
6741.504826126313,1423963.0,0.004670000169426203,0.003220000071451068,-0.0006399999838322401,-0.2721399962902069
6741.505825898528,1423964.0,0.00279000005684793,0.004310000222176313,0.003949999809265137,-0.2710399925708771
6741.506825670744,1423965.0,-0.0007600000244565308,0.002090000081807375,0.0037700000684708357,-0.2722800076007843
6741.507825442959,1423966.0,-0.004939999897032976,0.0030900000128895044,0.005040000192821026,-0.2706800103187561
6741.5088252151745,1423967.0,-0.007009999826550484,-0.00267999991774559,0.005630000028759241,-0.27195999026298523
6741.509824987389,1423968.0,-0.0088900001719594,0.003000000026077032,0.001500000013038516,-0.2699899971485138
6741.5108247596045,1423969.0,-0.010060000233352184,-0.000859999970998615,0.00418000016361475,-0.2706800103187561
6741.51182453182,1423970.0,-0.010599999688565731,0.004679999779909849,-0.0030400000978261232,-0.2698099911212921
6741.512824304035,1423971.0,-0.009700000286102295,0.002360000042244792,-0.004040000028908253,-0.27031001448631287
6741.513824076251,1423972.0,-0.009700000286102295,0.005770000163465738,-0.007400000002235174,-0.2698499858379364
6741.514823848465,1423973.0,-0.009390000253915787,0.00494999997317791,-0.0030400000978261232,-0.26993998885154724
6741.515823620681,1423974.0,-0.009069999679923058,0.002319999970495701,0.0016299999551847577,-0.2688399851322174
6741.516823392896,1423975.0,-0.009879999794065952,0.00014000000373926014,-0.0037700000684708357,-0.26949000358581543
6741.517823165112,1423976.0,-0.01051000040024519,-0.0007300000288523734,-0.005539999809116125,-0.26903000473976135
6741.518822937327,1423977.0,-0.010239999741315842,-0.004410000052303076,-0.010809999890625477,-0.2688399851322174
6741.5198227095425,1423978.0,-0.00925000011920929,-0.005489999894052744,-0.007040000054985285,-0.2685700058937073
6741.520822481757,1423979.0,-0.007280000019818544,-0.005489999894052744,-0.003000000026077032,-0.2681100070476532
6741.5218222539725,1423980.0,-0.005119999870657921,0.00018000000272877514,-0.003809999907389283,-0.2675600051879883
6741.522822026188,1423981.0,-0.0018899999558925629,-0.006680000107735395,0.0013599999947473407,-0.2669700086116791
6741.523821798403,1423982.0,0.0009399999980814755,-0.003809999907389283,0.0063599999994039536,-0.2672399878501892
6741.524821570619,1423983.0,0.0037700000684708357,-0.0062699997797608376,0.007540000136941671,-0.2663699984550476
6741.525821342833,1423984.0,0.005570000037550926,-0.001449999981559813,0.0,-0.2662400007247925
6741.526821115049,1423985.0,0.007189999800175428,0.0036299999337643385,0.0021299999207258224,-0.26568999886512756
6741.527820887264,1423986.0,0.00674000009894371,0.0024999999441206455,-0.0010900000343099236,-0.26482000946998596
6741.52882065948,1423987.0,0.007770000025629997,0.004220000002533197,0.0031799999997019768,-0.26482000946998596
6741.529820431695,1423988.0,0.009700000286102295,-0.0011399999493733048,0.001769999973475933,-0.26339998841285706
6741.53082020391,1423989.0,0.011189999990165234,0.0015899999998509884,0.001449999981559813,-0.2645399868488312
6741.531819976125,1423990.0,0.010470000095665455,0.0011399999493733048,9.000000136438757e-05,-0.2634899914264679
6741.53281974834,1423991.0,0.006649999879300594,0.006399999838322401,-0.0002699999895412475,-0.26372000575065613
6741.533819520556,1423992.0,0.002739999908953905,0.004679999779909849,-0.00203999993391335,-0.26298999786376953
6741.534819292771,1423993.0,0.00107999995816499,0.007400000002235174,0.001230000052601099,-0.26357999444007874
6741.535819064987,1423994.0,0.0017099999822676182,0.004089999943971634,-0.00014000000373926014,-0.2623000144958496
6741.536818837201,1423995.0,0.0020200000144541264,0.000910000002477318,-0.0011399999493733048,-0.2618899941444397
6741.537818609417,1423996.0,-0.0003100000030826777,-0.0007699999841861427,-0.0011399999493733048,-0.2618899941444397
6741.538818381632,1423997.0,-0.002520000096410513,-0.0031300000846385956,-0.002589999930933118,-0.26111000776290894
6741.539818153848,1423998.0,-0.0034600000362843275,-0.0030400000978261232,0.0010400000028312206,-0.2606000006198883
6741.540817926063,1423999.0,-0.00215999991632998,-0.005489999894052744,0.0019099999917671084,-0.25905001163482666
6741.541817698278,1424000.0,-0.00044999999227002263,-0.003809999907389283,0.005590000189840794,-0.2607400119304657
6741.542817470493,1424001.0,0.001930000027641654,-0.008580000139772892,0.0027699999045580626,-0.25951001048088074
6741.543817242708,1424002.0,0.0028299998957663774,-0.0051299999468028545,0.004129999782890081,-0.2590000033378601
6741.544817014924,1424003.0,0.004310000222176313,-0.004629999864846468,0.0027699999045580626,-0.258870005607605
6741.545816787139,1424004.0,0.005350000225007534,-0.0006799999973736703,-0.004999999888241291,-0.2579500079154968
6741.546816559354,1424005.0,0.005929999984800816,-0.003269999986514449,-0.004629999864846468,-0.25835999846458435
6741.547816331569,1424006.0,0.0070500001311302185,-0.0007699999841861427,-0.00418000016361475,-0.25804001092910767
6741.548816103785,1424007.0,0.007679999805986881,0.00203999993391335,9.000000136438757e-05,-0.25749000906944275
6741.549815876,1424008.0,0.008539999835193157,0.004449999891221523,-0.00014000000373926014,-0.25635001063346863
